11111,11111
0,0
81637,81186
104312,102385
104264,102366
104256,102348
104158,102296
104332,102356
104388,102384
104336,102406
104306,102365
104230,102344
104369,102365
104456,102445
104393,102401
104410,102374
104256,102346
104446,102401
104496,102467
104417,102398
104456,102406
104359,102388
104467,102433
104592,102484
104537,102469
104561,102440
104494,102455
104610,102500
104645,102531
104631,102497
104628,102510
104502,102452
104666,102533
104747,102555
104668,102529
104621,102510
104564,102502
104648,102477
104711,102550
104739,102557
104633,102499
104578,102472
104668,102478
104721,102570
104655,102528
104650,102482
104575,102429
104656,102511
104704,102560
104707,102517
104659,102534
104573,102479
104705,102559
104780,102555
104759,102524
104725,102532
104624,102479
104734,102566
104799,102558
104800,102556
104731,102551
104730,102494
104843,102587
104879,102607
104875,102608
104842,102592
104801,102558
104938,102637
104984,102658
104986,102647
104941,102641
104930,102633
105010,102655
105107,102645
105080,102694
105047,102656
105022,102691
105169,102710
105224,102736
105241,102742
105188,102743
105132,102745
105319,102756
105392,102843
105350,102764
105344,102794
105304,102769
105454,102859
105505,102889
105542,102861
105500,102876
105509,102837
105675,102927
105678,102978
105687,102938
105664,102916
105654,102938
105746,102995
105803,103015
105829,103002
105733,102968
105805,102980
105901,103023
105977,103056
105918,103042
105836,102983
105913,103028
105997,103106
106074,103067
106033,103109
105983,103087
105996,103037
106098,103142
106176,103149
106152,103137
106077,103137
106081,103102
106238,103176
106256,103158
106251,103195
106146,103128
106175,103154
106275,103208
106353,103237
106268,103188
106259,103194
106782,103398
107237,103604
107174,103579
106587,103252
106361,103169
106093,103023
104995,102577
104962,102564
104970,102556
104878,102518
105193,102650
105290,102720
105356,102748
105331,102786
105299,102703
105283,102692
105358,102746
105439,102781
105422,102752
105417,102757
105301,102733
105437,102784
105445,102806
105479,102796
105477,102768
105377,102748
105479,102815
105578,102817
105528,102862
105514,102828
105479,102801
105569,102842
105689,102881
105611,102886
105551,102845
105544,102838
105663,102889
105663,102894
105654,102854
105610,102848
105535,102805
105578,102860
105635,102892
105587,102832
105512,102811
105459,102795
105566,102825
105610,102850
105558,102846
105508,102794
105445,102799
105556,102832
105585,102850
105539,102834
105502,102797
105431,102775
105542,102832
105582,102839
105546,102809
105524,102799
105457,102783
105584,102846
105627,102837
105605,102848
105555,102828
105509,102795
105628,102839
105666,102918
105661,102855
105622,102831
105598,102819
105698,102897
105732,102918
105744,102915
105666,102872
105675,102908
105781,102908
105852,102980
105820,102954
105799,102927
105823,102923
105896,103018
105954,102988
105961,103003
105916,102981
105942,102992
106011,103044
106085,103029
106065,103070
106025,103022
106036,103033
106197,103103
106228,103161
106220,103059
106133,103075
106158,103099
106274,103127
106362,103178
106320,103168
106265,103108
106293,103135
106422,103198
106514,103241
106423,103168
106436,103189
106432,103234
106527,103238
106590,103280
106595,103275
106511,103234
106514,103197
106660,103305
106648,103318
106631,103280
106586,103254
106618,103267
106691,103333
106726,103291
106697,103325
106611,103262
106637,103315
106755,103351
106802,103335
106786,103333
106707,103270
106771,103349
106807,103360
106895,103340
106813,103376
106782,103292
106812,103328
106916,103396
106889,103398
106901,103390
106814,103331
106851,103349
106982,103400
106931,103397
106902,103404
106827,103337
106888,103377
107005,103452
106970,103387
106927,103419
106854,103357
106966,103427
106998,103449
107012,103433
106987,103417
106887,103351
106979,103431
107067,103440
107103,103448
107057,103453
107005,103415
107049,103470
107159,103466
107184,103491
107100,103437
107060,103461
107149,103513
107210,103492
107190,103526
107194,103447
107097,103462
107179,103510
107263,103548
107254,103508
107217,103515
107178,103477
107264,103536
107305,103566
107322,103551
107300,103540
107253,103484
107306,103540
107416,103600
107355,103587
107375,103580
107311,103508
107364,103550
107480,103636
107446,103626
107426,103601
107357,103540
107467,103599
107559,103646
107487,103651
107477,103639
107365,103555
107469,103654
107504,103630
107434,103580
107324,103515
107067,103407
107034,103403
106929,103328
106686,103250
106518,103153
106197,103033
106170,102981
106080,102950
105897,102899
105743,102802
105552,102720
105577,102723
105550,102747
105425,102642
105316,102628
105193,102526
105279,102604
105264,102619
105187,102520
105106,102518
104989,102483
105061,102523
105124,102511
105046,102499
105040,102491
104967,102468
105021,102481
105109,102551
105058,102473
105075,102509
104979,102473
105114,102535
105167,102577
105150,102520
105137,102567
105108,102531
105205,102569
105260,102654
105261,102571
105307,102601
105202,102580
105359,102641
105398,102670
105426,102673
105387,102647
105299,102633
105428,102721
105502,102693
105499,102726
105472,102680
105413,102662
105532,102720
105600,102766
105535,102691
105480,102703
105446,102697
105576,102739
105591,102777
105574,102735
105526,102706
105468,102714
105583,102734
105678,102826
105648,102796
105609,102744
105572,102751
105696,102851
105720,102829
105718,102833
105654,102813
105650,102771
105780,102872
105791,102868
105818,102845
105742,102865
105712,102836
105807,102881
105843,102915
105828,102831
105756,102820
105759,102826
105809,102844
105863,102897
105816,102893
105739,102828
105763,102811
105840,102901
105845,102904
105848,102887
105789,102824
105729,102853
105840,102829
105878,102880
105816,102873
105753,102816
105692,102813
105818,102876
105834,102902
105813,102839
105721,102775
105749,102806
105833,102875
105850,102856
105813,102884
105781,102828
105774,102854
105840,102888
105871,102872
105884,102877
105782,102845
105829,102835
105927,102894
105995,102941
105932,102855
105925,102876
105901,102919
106031,102948
106065,102957
106025,102930
106011,102909
105967,102945
106127,102969
106156,103017
106136,102972
106107,102949
106081,102972
106210,103021
106237,103041
106246,103000
106145,102984
106218,103007
106300,103057
106313,103067
106337,103024
106257,103025
106246,103033
106389,103073
106398,103102
106384,103042
106312,103056
106333,103052
106444,103117
106452,103107
106411,103099
106348,103017
106408,103088
106498,103126
106520,103142
106516,103129
106407,103097
106484,103087
106573,103193
106590,103143
106552,103102
106498,103092
106543,103127
106669,103223
106653,103178
106667,103185
106565,103125
106670,103169
106747,103261
106728,103175
106740,103253
106636,103147
106742,103239
106830,103267
106774,103244
106810,103252
106722,103211
106775,103254
106849,103280
106879,103260
106848,103269
106784,103215
106843,103286
106922,103299
106915,103291
106896,103280
106821,103236
106898,103285
107007,103334
106954,103287
106984,103295
106902,103270
106987,103332
107085,103356
107000,103312
107029,103335
106957,103258
107045,103354
107096,103393
107116,103342
107060,103374
106983,103283
107116,103360
107225,103427
107142,103378
107161,103410
107064,103339
107191,103421
107251,103428
107268,103434
107226,103385
107172,103395
107251,103419
107361,103453
107289,103463
107324,103426
107206,103369
107328,103420
107389,103461
107351,103455
107329,103459
107206,103412
107345,103451
107430,103498
107349,103471
107373,103460
107249,103438
107393,103466
107454,103495
107381,103499
107427,103473
107318,103438
107417,103508
107473,103519
107474,103471
107413,103471
107381,103444
107502,103504
107567,103539
107506,103524
107519,103499
107386,103434
107462,103488
107508,103498
107370,103446
107296,103384
107049,103269
106951,103211
106878,103180
106594,103049
106399,102996
106169,102829
106065,102847
105940,102783
105774,102673
105612,102629
105427,102530
105453,102532
105474,102567
105281,102513
105209,102460
105103,102381
105105,102405
105158,102405
105034,102403
104978,102297
104870,102266
104931,102325
104975,102333
104913,102335
104853,102265
104779,102261
104860,102309
104929,102338
104915,102344
104871,102276
104820,102268
104919,102344
104990,102383
104930,102341
104932,102349
104901,102331
104986,102346
105068,102393
104988,102406
104989,102353
104943,102346
105051,102399
105057,102433
105081,102403
105031,102396
105011,102354
105069,102396
105080,102423
105125,102473
105033,102371
105008,102356
105108,102451
105101,102458
105117,102437
105036,102429
105004,102357
105152,102482
105149,102490
105108,102432
105091,102401
105077,102428
105163,102435
105198,102500
105196,102458
105121,102403
105127,102438
105256,102509
105305,102519
105225,102479
105199,102447
105167,102464
105303,102521
105357,102564
105317,102521
105235,102490
105217,102469
105304,102531
105359,102552
105292,102512
105234,102507
105232,102508
105356,102503
105344,102522
105318,102525
105242,102492
105266,102521
105342,102529
105372,102537
105328,102537
105271,102499
105255,102504
105378,102538
105404,102559
105330,102538
105289,102521
105278,102525
105418,102555
105441,102563
105360,102559
105316,102484
105386,102497
105412,102583
105434,102566
105452,102548
105376,102523
105428,102536
105480,102576
105542,102605
105530,102590
105456,102562
105510,102569
105622,102644
105615,102667
105620,102620
105529,102592
105620,102648
105741,102698
105735,102694
105741,102713
105698,102634
105745,102706
105852,102759
105856,102754
105846,102756
105799,102730
105882,102749
105929,102800
106002,102769
105986,102789
105902,102733
105973,102773
106084,102866
106061,102833
106086,102821
106030,102772
106090,102818
106193,102904
106176,102855
106218,102878
106136,102844
106217,102895
106295,102921
106327,102904
106247,102938
106197,102869
106322,102940
106367,102958
106401,102949
106383,102974
106335,102910
106366,102956
106473,103031
106469,102971
106491,103004
106392,102933
106481,103006
106550,103026
106550,103014
106535,103003
106461,102980
106538,103029
106650,103082
106613,103098
106639,103028
106529,103037
106673,103083
106714,103101
106703,103077
106680,103089
106598,103049
106708,103084
106735,103116
106748,103092
106755,103088
106676,103071
106758,103092
106831,103176
106773,103138
106844,103142
106723,103119
106833,103118
106918,103205
106855,103149
106907,103126
106822,103134
106913,103178
107027,103212
106943,103225
106944,103184
106862,103136
106984,103222
107030,103228
107036,103200
107018,103234
106951,103182
107089,103231
107093,103271
107116,103233
107083,103227
107018,103228
107103,103262
107147,103306
107165,103269
107168,103259
107066,103248
107168,103259
107218,103333
107235,103303
107181,103274
107164,103255
107243,103333
107339,103351
107294,103346
107281,103317
107233,103284
107350,103346
107390,103397
107362,103401
107337,103322
107268,103351
107404,103371
107454,103413
107449,103408
107419,103364
107364,103373
107476,103427
107526,103467
107509,103431
107463,103397
107474,103405
107556,103481
107590,103485
107627,103479
107544,103426
107532,103427
107610,103493
107682,103514
107642,103495
107565,103492
107543,103479
107559,103482
107538,103425
107407,103383
107242,103297
107005,103210
106954,103141
106797,103074
106538,102997
106361,102850
106125,102781
106028,102776
105959,102689
105832,102650
105613,102531
105509,102492
105534,102517
105477,102530
105382,102423
105302,102399
105180,102343
105291,102388
105257,102388
105176,102366
105083,102271
105062,102288
105139,102335
105166,102351
105136,102335
105078,102253
105044,102317
105109,102303
105206,102370
105140,102355
105093,102282
105107,102311
105249,102397
105294,102415
105242,102399
105199,102355
105242,102370
105318,102456
105396,102440
105400,102453
105316,102390
105353,102449
105471,102487
105512,102484
105518,102484
105425,102447
105475,102498
105561,102512
105551,102544
105554,102524
105502,102498
105502,102548
105632,102553
105630,102574
105592,102550
105573,102517
105563,102528
105690,102552
105721,102582
105689,102582
105619,102508
105680,102604
105807,102657
105789,102648
105803,102588
105742,102588
105822,102621
105924,102676
105944,102729
105888,102660
105849,102668
105858,102652
105987,102722
105938,102697
105942,102680
105812,102642
105893,102646
105957,102687
105962,102689
105948,102674
105813,102634
105829,102658
105971,102707
105915,102704
105904,102649
105782,102575
105862,102678
105893,102668
105908,102660
105831,102619
105729,102606
105822,102647
105911,102647
105895,102636
105844,102667
105778,102589
105823,102644
105923,102682
105927,102647
105871,102663
105790,102617
105877,102652
105947,102690
105937,102666
105937,102665
105862,102610
105910,102681
106020,102735
105993,102681
105964,102683
105912,102644
105981,102697
106056,102750
106046,102713
106041,102721
106004,102666
106079,102750
106198,102790
106122,102739
106156,102752
106054,102724
106213,102799
106270,102802
106251,102818
106198,102788
106166,102764
106250,102810
106385,102867
106343,102864
106352,102826
106303,102803
106386,102873
106436,102854
106398,102873
106422,102878
106317,102824
106487,102882
106554,102921
106524,102923
106499,102925
106376,102843
106505,102907
106535,102965
106547,102947
106546,102923
106437,102901
106566,102934
106585,102968
106581,102949
106556,102946
106487,102886
106621,102954
106620,102977
106641,102953
106608,102969
106518,102879
106653,103005
106674,102985
106662,102975
106641,102977
106592,102962
106678,102986
106689,103056
106643,102980
106665,102966
106611,102921
106700,103022
106739,103017
106665,103008
106663,102951
106626,102930
106712,102988
106720,103016
106729,103020
106645,103002
106613,102936
106727,103024
106770,102989
106740,103010
106697,102978
106637,102993
106729,103029
106810,103041
106743,103023
106671,103000
106690,102982
106791,103077
106836,103024
106816,103053
106752,103044
106694,102978
106818,103029
106839,103093
106816,103040
106786,102999
106775,103033
106874,103056
106853,103077
106868,103049
106826,103068
106774,103003
106915,103102
106881,103093
106865,103074
106874,103043
106819,103066
106897,103074
106991,103119
106932,103129
106904,103048
106905,103095
106982,103135
107027,103126
106976,103124
106924,103052
106936,103047
107016,103146
107076,103159
107018,103175
106972,103050
106966,103091
107060,103180
107105,103170
107054,103129
106965,103120
107005,103096
107116,103186
107127,103173
107052,103139
107007,103133
106931,103115
107023,103092
106890,103084
106731,102988
106514,102845
106343,102794
106252,102762
106109,102658
105878,102609
105642,102509
105514,102415
105537,102434
105408,102341
105306,102297
105135,102245
105096,102211
105094,102186
105020,102207
104920,102127
104812,102105
104740,102060
104822,102117
104762,102052
104662,102049
104614,102006
104594,102016
104637,102030
104638,101987
104605,102012
104530,101937
104493,102002
104584,101986
104620,102023
104570,102001
104528,101926
104554,102006
104609,102000
104665,102032
104618,102048
104606,101959
104643,102048
104725,102070
104708,102056
104686,102058
104627,102036
104673,102065
104812,102112
104782,102086
104803,102086
104684,102055
104733,102059
104853,102140
104872,102127
104809,102110
104725,102104
104789,102087
104858,102138
104881,102134
104814,102113
104783,102081
104804,102150
104897,102119
104905,102118
104866,102120
104751,102085
104826,102127
104913,102186
104941,102156
104933,102163
104839,102114
104915,102140
104998,102219
104955,102150
104971,102133
104889,102123
104931,102180
105009,102201
105000,102168
104998,102204
104902,102097
104954,102165
105010,102213
104988,102129
105007,102195
104887,102067
104983,102176
105026,102205
104999,102154
104969,102158
104916,102120
104956,102203
105073,102208
104984,102162
104999,102174
104871,102109
104996,102162
105009,102207
105004,102151
104964,102180
104872,102064
104974,102157
105027,102184
104977,102147
104989,102167
104896,102117
105006,102173
105066,102181
105041,102182
104967,102140
104924,102128
105058,102169
105069,102204
105078,102186
105079,102200
104989,102123
105142,102232
105180,102223
105158,102214
105090,102203
105034,102197
105193,102265
105227,102254
105216,102245
105170,102255
105136,102227
105224,102251
105337,102293
105296,102293
105303,102265
105218,102215
105299,102328
105393,102358
105364,102317
105385,102267
105336,102299
105420,102366
105482,102377
105492,102346
105464,102365
105427,102302
105543,102399
105637,102454
105580,102424
105571,102394
105536,102374
105628,102421
105684,102459
105655,102424
105632,102450
105592,102386
105729,102493
105740,102466
105781,102489
105674,102461
105624,102462
105746,102469
105844,102553
105777,102489
105750,102444
105693,102477
105848,102536
105868,102538
105868,102519
105822,102527
105814,102495
105933,102581
105964,102551
105935,102531
105856,102539
105861,102509
105936,102595
106036,102616
105993,102573
105941,102538
105922,102550
106001,102619
106040,102618
106003,102577
105932,102556
105974,102576
106045,102647
106126,102637
106084,102640
106026,102569
106017,102611
106102,102654
106189,102695
106122,102655
106161,102605
106095,102622
106222,102690
106248,102707
106219,102689
106177,102634
106173,102651
106288,102731
106337,102729
106325,102740
106223,102643
106228,102711
106324,102753
106381,102756
106361,102762
106307,102674
106329,102759
106404,102759
106441,102807
106438,102770
106408,102772
106386,102757
106532,102800
106526,102826
106509,102814
106442,102759
106438,102790
106579,102828
106600,102878
106560,102839
106532,102790
106529,102843
106614,102899
106673,102852
106687,102881
106607,102850
106647,102905
106750,102928
106784,102937
106722,102922
106717,102854
106713,102934
106830,102946
106886,102979
106830,102962
106826,102905
106848,102993
106954,103004
106989,103012
107000,103024
106939,103001
106979,103004
107088,103094
107101,103023
107063,103070
107025,103045
107094,103068
107154,103117
107176,103109
107080,103086
106954,102978
106883,102942
106818,102946
106607,102820
106438,102715
106139,102613
106013,102560
105905,102495
105708,102398
105513,102319
105329,102251
105243,102213
105274,102200
105147,102173
105086,102100
104890,102054
104918,102027
104895,102079
104860,102025
104753,101966
104646,101919
104682,101944
104697,101961
104618,101926
104605,101895
104497,101865
104540,101902
104617,101938
104596,101897
104547,101885
104503,101844
104552,101908
104621,101933
104569,101909
104592,101933
104556,101878
104632,101923
104676,101972
104673,101936
104710,101948
104639,101906
104703,101979
104790,102023
104781,102015
104793,102019
104727,101974
104806,102031
104890,102072
104873,102021
104838,102028
104807,102014
104905,102052
104988,102083
104905,102065
104883,102031
104829,102032
104929,102077
104979,102074
104971,102068
104924,102094
104840,101993
104957,102083
104964,102117
104967,102113
104959,102093
104914,102051
105007,102127
105056,102135
105051,102124
105036,102126
104948,102094
105092,102153
105155,102185
105098,102108
105117,102143
104962,102094
105092,102123
105157,102197
105131,102130
105117,102134
105022,102127
105106,102163
105162,102178
105117,102143
105079,102133
104974,102084
105110,102146
105161,102187
105091,102131
105088,102111
104986,102040
105134,102132
105100,102158
105027,102136
105029,102099
104989,102060
105061,102108
105089,102136
105040,102116
105016,102081
104961,102093
105080,102114
105156,102131
105084,102116
105081,102091
105023,102075
105128,102159
105178,102150
105154,102130
105110,102134
105081,102111
105179,102198
105218,102146
105203,102172
105140,102135
105126,102117
105218,102195
105250,102195
105219,102193
105197,102165
105162,102145
105298,102212
105343,102256
105270,102207
105293,102203
105221,102197
105362,102239
105366,102257
105379,102224
105359,102254
105328,102212
105482,102299
105531,102331
105443,102317
105441,102243
105449,102313
105540,102344
105601,102362
105603,102344
105564,102338
105514,102312
105637,102370
105686,102419
105680,102366
105623,102357
105585,102354
105756,102418
105760,102484
105725,102389
105686,102390
105705,102427
105818,102460
105830,102434
105836,102466
105723,102429
105741,102407
105898,102474
105880,102496
105829,102448
105813,102442
105794,102441
105949,102520
105905,102503
105911,102473
105839,102487
105816,102441
105942,102513
105992,102537
105936,102512
105862,102453
105904,102489
105940,102555
106018,102527
105964,102500
105946,102506
105946,102493
106066,102591
106081,102582
106031,102551
105992,102504
106036,102539
106151,102617
106188,102623
106131,102620
106097,102532
106151,102598
106213,102651
106232,102639
106207,102608
106157,102578
106175,102589
106298,102683
106298,102632
106243,102645
106196,102596
106261,102638
106332,102708
106346,102655
106335,102639
106271,102619
106278,102647
106433,102705
106387,102731
106355,102700
106319,102637
106356,102685
106502,102706
106453,102751
106465,102707
106420,102693
106454,102721
106572,102776
106550,102760
106553,102794
106438,102698
106549,102759
106621,102805
106601,102790
106565,102800
106525,102732
106626,102795
106716,102860
106663,102819
106667,102813
106612,102776
106634,102806
106778,102838
106711,102803
106726,102828
106650,102753
106776,102836
106794,102909
106747,102803
106765,102827
106687,102795
106765,102908
106830,102887
106847,102896
106790,102883
106789,102818
106861,102886
106944,102933
106893,102926
106902,102904
106831,102841
106941,102907
107027,102979
106993,102936
106984,102954
106898,102868
107026,102993
107067,102978
107069,102988
107057,102937
106931,102945
107008,102905
107055,102968
106903,102872
106775,102815
106508,102706
106416,102679
106260,102558
106084,102491
105826,102380
105544,102247
105496,102225
105441,102191
105258,102108
105155,102057
104969,101977
105013,102006
104937,101985
104878,101921
104743,101890
104667,101848
104693,101845
104683,101866
104583,101783
104555,101760
104423,101753
104507,101757
104535,101780
104456,101752
104437,101753
104313,101659
104451,101745
104472,101786
104448,101775
104435,101752
104397,101686
104513,101810
104521,101827
104549,101794
104479,101798
104473,101757
104593,101825
104642,101853
104656,101843
104620,101870
104600,101812
104705,101861
104764,101923
104740,101906
104710,101857
104689,101882
104792,101937
104879,101962
104796,101906
104827,101918
104741,101933
104881,101972
104927,101973
104889,101986
104848,101944
104815,101903
104899,102004
104952,101979
104883,101975
104895,101945
104832,101952
104965,102011
105023,102040
104946,101987
104959,101986
104909,101960
105058,102062
105093,102095
105105,102051
105050,102044
105043,102027
105137,102092
105124,102130
105120,102060
105112,102034
105057,102072
105144,102087
105160,102123
105145,102075
105081,102058
105076,102021
105170,102108
105169,102087
105133,102036
105068,102014
105013,102013
105105,102069
105136,102091
105132,102052
105022,102021
105025,102033
105120,102046
105165,102089
105084,102046
105038,102033
105028,102003
105131,102086
105124,102064
105130,102042
105043,102022
105035,101979
105173,102074
105145,102117
105135,102039
105063,102043
105086,102027
105192,102111
105191,102109
105175,102055
105109,102043
105164,102069
105227,102077
105280,102093
105214,102128
105198,102050
105215,102132
105308,102133
105361,102173
105329,102172
105301,102128
105348,102124
105465,102223
105435,102200
105467,102220
105387,102178
105422,102181
105556,102224
105562,102284
105551,102234
105525,102225
105571,102234
105667,102316
105656,102319
105693,102276
105597,102250
105695,102309
105762,102351
105776,102314
105787,102320
105681,102319
105752,102313
105863,102410
105856,102377
105815,102356
105800,102319
105817,102386
105941,102396
105930,102426
105930,102425
105863,102373
105928,102408
106062,102453
106002,102457
106010,102440
105924,102410
106007,102447
106126,102476
106094,102482
106135,102471
106021,102443
106086,102494
106154,102519
106234,102513
106196,102513
106154,102503
106178,102517
106241,102567
106283,102507
106226,102514
106185,102509
106275,102539
106356,102609
106310,102536
106315,102563
106282,102507
106325,102580
106394,102626
106382,102576
106372,102590
106335,102537
106426,102618
106504,102658
106441,102617
106446,102628
106392,102609
106497,102652
106547,102672
106550,102669
106555,102655
106481,102629
106584,102686
106634,102727
106635,102697
106616,102684
106547,102674
106659,102756
106717,102753
106724,102744
106690,102732
106598,102673
106697,102770
106759,102787
106764,102760
106765,102740
106648,102740
106729,102750
106852,102772
106799,102748
106764,102754
106724,102754
106817,102801
106885,102818
106860,102800
106831,102779
106764,102788
106899,102794
106926,102850
106913,102854
106877,102817
106795,102776
106905,102858
106961,102862
106934,102844
106950,102810
106913,102843
107003,102872
107052,102890
107048,102888
106992,102901
106964,102839
107051,102923
107152,102906
107096,102919
107106,102891
107016,102903
107150,102960
107201,102968
107175,102951
107125,102932
107108,102923
107211,102953
107288,102971
107180,102974
107159,102968
107033,102880
107093,102912
107048,102888
106869,102743
106649,102666
106392,102561
106276,102546
106115,102423
105945,102355
105692,102227
105514,102128
105459,102125
105401,102140
105244,101996
105139,101990
104996,101926
105055,101968
105037,101953
104892,101892
104835,101846
104748,101836
104838,101842
104765,101857
104746,101828
104620,101773
104602,101728
104680,101777
104684,101808
104641,101776
104590,101744
104517,101727
104650,101804
104703,101794
104637,101761
104634,101749
104623,101747
104698,101790
104770,101858
104717,101803
104692,101782
104683,101850
104794,101872
104886,101913
104891,101876
104834,101823
104862,101897
104971,101919
104995,101939
105017,101950
104947,101905
104975,101953
105090,101982
105128,102010
105083,102009
105029,101978
105064,101999
105147,102047
105176,102028
105135,102019
105098,101998
105068,102009
105215,102070
105220,102066
105249,102057
105135,102032
105180,102043
105308,102089
105323,102105
105359,102103
105271,102061
105320,102128
105417,102155
105472,102161
105400,102119
105362,102137
105327,102084
105475,102192
105454,102134
105409,102135
105309,102062
105364,102120
105400,102152
105394,102118
105372,102114
105293,102057
105274,102053
105375,102124
105346,102130
105319,102042
105236,102027
105229,102061
105327,102103
105304,102082
105277,102044
105199,102021
105204,102033
105275,102085
105325,102053
105228,102051
105168,101992
105221,102061
105310,102088
105255,102050
105260,102049
105156,102058
105222,102014
105314,102096
105331,102088
105249,102070
105229,102043
105220,102055
105359,102109
105330,102079
105347,102084
105240,102059
105335,102087
105425,102151
105394,102085
105422,102136
105334,102102
105361,102120
105504,102189
105524,102151
105482,102201
105394,102098
105512,102138
105610,102209
105556,102201
105581,102212
105493,102150
105607,102217
105676,102271
105667,102237
105680,102220
105630,102204
105658,102220
105786,102327
105752,102277
105765,102279
105726,102211
105769,102313
105856,102319
105856,102323
105827,102311
105807,102281
105880,102363
105955,102356
105982,102347
105901,102360
105842,102313
105945,102387
106094,102392
106005,102410
105981,102361
105928,102356
106018,102422
106077,102449
106039,102411
106047,102392
106009,102376
106105,102417
106184,102457
106151,102438
106140,102440
106006,102429
106176,102460
106225,102484
106182,102450
106199,102457
106103,102383
106203,102514
106234,102503
106249,102493
106220,102488
106163,102451
106274,102488
106295,102562
106273,102469
106286,102501
106186,102453
106344,102518
106340,102579
106317,102498
106318,102524
106227,102467
106362,102555
106373,102571
106344,102561
106338,102486
106331,102507
106393,102538
106445,102590
106420,102566
106376,102534
106332,102488
106395,102610
106481,102565
106440,102547
106386,102564
106293,102500
106481,102613
106467,102598
106472,102601
106439,102603
106381,102554
106499,102623
106537,102598
106527,102623
106486,102572
106434,102577
106570,102629
106633,102680
106548,102621
106601,102629
106516,102642
106664,102714
106665,102704
106653,102675
106648,102662
106601,102656
106755,102697
106762,102710
106716,102718
106692,102691
106690,102664
106791,102754
106843,102778
106805,102727
106815,102715
106744,102740
106859,102756
106889,102797
106853,102748
106784,102694
106668,102682
106695,102636
106544,102613
106321,102471
106139,102366
105931,102295
105829,102255
105695,102203
105496,102097
105250,102025
105144,101907
105117,101941
105061,101905
104924,101874
104782,101746
104766,101741
104761,101796
104739,101764
104638,101704
104495,101634
104447,101619
104472,101656
104487,101632
104414,101616
104328,101562
104238,101524
104348,101615
104353,101599
104348,101579
104252,101534
104253,101537
104373,101574
104359,101609
104369,101582
104303,101571
104309,101538
104389,101643
104461,101630
104425,101601
104391,101611
104367,101635
104517,101702
104526,101671
104536,101669
104483,101669
104490,101633
104607,101737
104638,101736
104593,101723
104541,101668
104601,101711
104674,101764
104688,101754
104663,101743
104603,101705
104660,101766
104736,101771
104719,101781
104742,101776
104636,101706
104657,101764
104759,101787
104794,101826
104740,101747
104652,101754
104717,101756
104800,101831
104856,101822
104820,101807
104751,101803
104826,101814
104895,101844
104882,101868
104864,101874
104779,101787
104879,101889
104921,101890
104934,101832
104883,101834
104818,101819
104844,101858
104901,101900
104937,101843
104863,101840
104771,101809
104870,101832
104902,101860
104877,101830
104870,101828
104793,101777
104817,101807
104910,101830
104862,101855
104832,101766
104748,101767
104825,101813
104855,101838
104876,101785
104790,101826
104757,101713
104810,101768
104857,101844
104880,101795
104823,101835
104734,101734
104841,101808
104885,101842
104889,101829
104838,101814
104785,101750
104886,101854
104935,101878
104937,101842
104873,101799
104832,101775
104914,101858
104983,101877
104989,101869
104956,101881
104872,101828
104990,101879
105083,101910
105066,101894
105064,101894
104977,101882
105105,101923
105151,101972
105155,101970
105141,101943
105033,101908
105160,101985
105224,101997
105220,101978
105193,101966
105126,101930
105244,102012
105337,102046
105282,102008
105279,102014
105258,101983
105354,102040
105410,102062
105407,102072
105408,102036
105315,102027
105407,102072
105521,102122
105462,102107
105498,102091
105419,102050
105505,102116
105580,102134
105538,102137
105518,102074
105448,102077
105572,102120
105599,102152
105605,102147
105572,102106
105506,102063
105613,102147
105669,102199
105653,102190
105622,102112
105571,102097
105620,102159
105736,102196
105675,102172
105628,102186
105585,102107
105736,102246
105758,102200
105675,102176
105715,102150
105618,102170
105718,102181
105785,102214
105721,102214
105712,102177
105667,102213
105787,102214
105806,102238
105784,102232
105761,102188
105715,102191
105822,102253
105831,102273
105823,102206
105782,102229
105783,102224
105874,102273
105904,102307
105841,102252
105847,102261
105809,102249
105908,102274
105937,102316
105940,102262
105868,102251
105862,102257
105980,102294
105997,102331
105955,102322
105938,102267
105900,102290
105987,102358
106019,102346
105975,102321
105944,102276
105942,102288
106025,102386
106039,102336
106050,102326
105940,102293
105951,102295
106075,102325
106045,102378
106022,102306
105970,102301
105933,102292
106063,102381
106054,102347
106093,102353
105989,102333
105989,102301
106156,102381
106118,102368
106133,102361
106070,102354
106065,102353
106245,102419
106212,102415
106221,102393
106139,102353
106172,102364
106295,102436
106313,102468
106262,102432
106188,102376
106158,102360
106161,102392
106052,102306
105904,102249
105645,102115
105487,102063
105409,101998
105248,101923
105036,101875
104868,101715
104793,101714
104732,101707
104682,101667
104542,101603
104407,101482
104331,101532
104317,101470
104266,101453
104134,101399
104050,101354
103999,101379
104022,101350
103965,101349
103829,101280
103750,101246
103771,101241
103849,101277
103791,101277
103724,101212
103649,101162
103643,101209
103747,101257
103681,101206
103702,101206
103606,101185
103661,101243
103739,101258
103733,101216
103688,101252
103626,101177
103721,101256
103839,101311
103801,101292
103799,101277
103673,101262
103788,101257
103876,101337
103823,101290
103886,101319
103811,101263
103859,101332
103947,101383
103901,101313
103918,101297
103838,101282
103888,101330
104005,101381
103920,101363
103919,101337
103827,101268
103897,101313
103930,101368
103931,101295
103912,101368
103838,101280
103929,101338
103997,101356
103940,101332
103982,101372
103909,101306
103984,101364
104085,101414
104052,101368
104043,101356
103979,101360
104036,101365
104093,101451
104070,101409
104093,101384
103993,101353
104081,101393
104186,101460
104080,101421
104105,101401
103980,101320
104102,101426
104150,101386
104114,101407
104058,101377
104004,101325
104049,101409
104142,101380
104073,101379
104079,101397
103982,101312
104100,101404
104096,101400
104085,101369
104064,101406
103952,101312
104083,101412
104143,101377
104106,101408
104092,101366
103993,101365
104080,101365
104117,101433
104138,101387
104097,101346
104062,101381
104107,101408
104193,101444
104117,101421
104139,101376
104087,101360
104149,101475
104225,101455
104222,101447
104177,101388
104113,101396
104256,101482
104287,101513
104316,101474
104222,101485
104187,101452
104317,101495
104351,101506
104341,101502
104324,101447
104295,101489
104409,101557
104451,101514
104406,101555
104423,101544
104339,101524
104474,101570
104554,101617
104497,101574
104491,101581
104417,101574
104551,101583
104600,101648
104577,101593
104527,101612
104492,101570
104644,101652
104642,101637
104668,101626
104583,101645
104553,101617
104693,101676
104717,101684
104724,101666
104651,101681
104628,101658
104770,101726
104767,101714
104746,101681
104702,101685
104699,101665
104812,101727
104804,101737
104805,101718
104769,101662
104735,101710
104810,101718
104843,101773
104840,101720
104789,101706
104793,101688
104869,101780
104917,101737
104882,101748
104818,101689
104856,101726
104943,101785
104957,101819
104904,101769
104866,101735
104886,101757
104976,101825
104981,101806
104970,101770
104903,101781
104920,101758
105022,101824
105073,101850
104988,101826
104994,101803
104974,101818
105060,101875
105101,101888
105037,101828
104999,101816
105021,101844
105070,101851
105156,101846
105097,101876
105017,101782
105056,101827
105124,101902
105124,101878
105106,101844
105067,101878
105082,101840
105211,101898
105189,101923
105167,101869
105105,101818
105140,101883
105245,101959
105218,101937
105234,101901
105187,101865
105177,101910
105288,101936
105312,101954
105291,101919
105193,101878
105248,101952
105333,101967
105309,101964
105295,101954
105268,101899
105310,101961
105388,101990
105362,101973
105383,101999
105286,101910
105346,101937
105418,102012
105469,101975
105419,102013
105375,101976
105418,101997
105556,102054
105532,102053
105534,102009
105479,101997
105515,102045
105613,102064
105654,102069
105589,102098
105546,102020
105573,102092
105726,102116
105639,102102
105623,102058
105449,102013
105426,101985
105388,101944
105225,101857
104977,101756
104789,101645
104712,101669
104635,101578
104492,101506
104384,101457
104180,101372
104076,101340
104108,101357
103949,101253
103849,101214
103710,101145
103670,101175
103710,101175
103556,101105
103518,101052
103340,101008
103383,101004
103398,101052
103285,100993
103278,100922
103132,100897
103162,100957
103244,100919
103170,100895
103103,100926
103016,100814
103123,100903
103171,100951
103117,100889
103106,100875
103055,100838
103143,100931
103210,100921
103217,100936
103160,100936
103118,100876
103182,100969
103282,100989
103241,100963
103238,100968
103150,100913
103293,101010
103326,101050
103272,100981
103259,100988
103191,100956
103313,101014
103343,101019
103316,101001
103322,101041
103246,100937
103311,101012
103345,101040
103335,101026
103307,100988
103238,100986
103350,101027
103374,101053
103334,101000
103340,100995
103276,100984
103352,101035
103431,101102
103377,101042
103393,101032
103314,101014
103440,101069
103482,101102
103448,101062
103443,101042
103384,101030
103463,101080
103489,101086
103467,101085
103406,101046
103360,101002
103447,101059
103492,101067
103468,101090
103391,101031
103337,101025
103443,101062
103511,101111
103403,101059
103417,101036
103369,101003
103418,101074
103459,101056
103430,101011
103359,101016
103321,100999
103435,101062
103447,101092
103437,101041
103346,101045
103293,101002
103428,101042
103465,101105
103432,101041
103371,101033
103335,101042
103436,101076
103472,101084
103446,101045
103387,101060
103355,101050
103487,101099
103511,101134
103475,101085
103489,101086
103438,101042
103491,101107
103561,101145
103518,101128
103537,101084
103511,101110
103599,101139
103640,101160
103621,101150
103551,101095
103552,101124
103688,101176
103740,101204
103687,101212
103640,101136
103653,101142
103736,101231
103771,101220
103767,101240
103729,101177
103727,101213
103805,101267
103891,101289
103842,101287
103749,101225
103785,101233
103947,101303
103963,101346
103906,101295
103908,101300
103910,101304
103968,101331
104042,101382
104019,101377
103975,101282
103991,101345
104110,101373
104171,101426
104081,101385
104073,101360
104099,101390
104138,101453
104191,101429
104194,101419
104114,101405
104119,101404
104242,101473
104220,101459
104210,101452
104212,101429
104198,101446
104306,101479
104306,101498
104250,101454
104205,101427
104251,101457
104307,101503
104358,101526
104300,101485
104270,101421
104308,101482
104353,101559
104372,101508
104340,101501
104302,101492
104298,101511
104402,101520
104379,101548
104383,101544
104324,101467
104371,101541
104411,101539
104459,101547
104432,101579
104376,101489
104432,101547
104490,101562
104526,101588
104455,101578
104402,101515
104464,101602
104512,101609
104542,101575
104564,101612
104459,101551
104528,101625
104614,101638
104610,101630
104556,101659
104512,101557
104591,101623
104649,101670
104624,101659
104586,101660
104546,101602
104594,101677
104686,101714
104656,101631
104589,101629
104583,101643
104624,101657
104743,101731
104684,101657
104714,101670
104623,101605
104673,101699
104763,101742
104742,101684
104722,101686
104696,101676
104754,101706
104852,101741
104831,101775
104769,101720
104734,101677
104840,101751
104949,101778
104910,101778
104851,101758
104824,101723
104916,101780
105029,101841
105001,101791
104970,101831
104870,101717
104988,101819
104987,101791
104858,101733
104736,101693
104507,101578
104502,101554
104374,101522
104234,101443
104124,101357
103844,101239
103871,101214
103811,101244
103658,101130
103557,101063
103348,101031
103394,101021
103329,101032
103237,100933
103104,100948
102933,100844
102994,100865
102996,100851
102885,100788
102831,100792
102715,100672
102775,100759
102783,100764
102714,100737
102674,100659
102554,100661
102657,100708
102710,100753
102637,100698
102644,100715
102558,100637
102681,100753
102692,100745
102686,100722
102658,100735
102584,100659
102746,100757
102760,100810
102763,100769
102739,100783
102694,100716
102809,100824
102841,100812
102843,100810
102777,100807
102779,100781
102881,100853
102923,100842
102922,100854
102828,100844
102804,100812
102910,100837
102955,100886
102903,100875
102870,100797
102832,100835
102918,100868
102994,100921
102956,100873
102914,100830
102865,100864
102972,100876
103024,100936
102974,100895
102986,100900
102954,100846
103075,100951
103079,100966
103059,100940
103028,100911
103042,100927
103077,100933
103129,100989
103074,100922
103068,100941
103044,100894
103140,100970
103135,100987
103061,100957
103063,100873
103001,100916
103119,100937
103116,101003
103061,100954
103057,100899
103014,100921
103058,100922
103149,100971
103076,100944
103007,100919
102978,100862
103067,100932
103103,100942
103066,100909
102949,100909
102970,100854
103092,100954
103078,100925
103032,100926
102964,100875
102973,100909
103087,100949
103081,100940
103104,100937
102999,100934
103015,100926
103146,100972
103150,100969
103125,100952
103097,100966
103121,100964
103198,101007
103230,101024
103223,100987
103155,101023
103172,100965
103272,101074
103361,101083
103296,101056
103235,100992
103315,101074
103355,101147
103408,101130
103369,101118
103342,101044
103361,101085
103460,101156
103476,101128
103481,101147
103419,101111
103409,101112
103578,101184
103545,101240
103539,101153
103523,101141
103545,101191
103644,101230
103669,101249
103666,101277
103568,101170
103636,101243
103743,101277
103765,101245
103775,101290
103656,101226
103736,101283
103831,101319
103803,101349
103824,101308
103710,101249
103799,101314
103879,101368
103859,101351
103857,101317
103779,101277
103848,101360
103905,101382
103963,101378
103885,101357
103797,101312
103902,101390
103938,101381
103970,101382
103906,101381
103838,101314
103913,101379
103985,101419
103962,101375
103938,101377
103848,101358
103976,101417
104008,101449
104027,101383
104000,101431
103916,101318
103993,101429
104075,101449
104020,101398
104035,101438
103916,101386
104050,101448
104045,101483
104046,101459
104041,101448
104007,101376
104060,101469
104113,101497
104116,101446
104066,101458
104009,101409
104104,101464
104157,101540
104185,101481
104145,101513
104063,101436
104160,101507
104258,101529
104203,101533
104153,101498
104110,101481
104237,101542
104267,101542
104262,101532
104200,101531
104165,101505
104239,101547
104317,101606
104299,101562
104247,101549
104157,101525
104281,101547
104363,101603
104298,101577
104323,101581
104256,101527
104359,101618
104398,101615
104403,101604
104383,101606
104309,101562
104409,101647
104491,101647
104426,101652
104413,101586
104370,101600
104366,101620
104385,101597
104213,101522
104087,101482
103947,101313
103922,101315
103826,101334
103662,101206
103504,101134
103352,101096
103316,101089
103247,101058
103118,100988
103022,100899
102848,100831
102868,100864
102847,100871
102722,100787
102612,100711
102494,100674
102542,100699
102516,100688
102427,100648
102340,100608
102223,100575
102318,100620
102331,100614
102246,100572
102188,100538
102085,100507
102209,100587
102254,100565
102165,100550
102122,100525
102058,100502
102177,100565
102209,100580
102154,100558
102120,100553
102084,100519
102224,100600
102247,100590
102174,100568
102199,100566
102138,100578
102235,100601
102302,100652
102274,100618
102194,100583
102213,100609
102298,100629
102307,100642
102302,100648
102234,100625
102242,100592
102306,100643
102352,100648
102336,100629
102255,100611
102245,100586
102333,100664
102347,100688
102328,100630
102333,100651
102291,100586
102381,100662
102432,100689
102368,100678
102306,100594
102320,100694
102410,100710
102464,100711
102461,100693
102353,100676
102395,100670
102460,100740
102524,100745
102435,100755
102381,100697
102413,100652
102488,100745
102518,100708
102432,100707
102400,100660
102353,100697
102489,100709
102481,100774
102420,100710
102377,100681
102367,100676
102477,100704
102464,100735
102420,100719
102394,100682
102349,100656
102463,100721
102431,100749
102397,100700
102371,100692
102354,100653
102416,100757
102439,100743
102426,100701
102382,100650
102336,100731
102436,100711
102475,100747
102412,100708
102372,100680
102390,100683
102545,100784
102485,100773
102480,100734
102456,100712
102441,100763
102570,100831
102566,100768
102535,100821
102458,100715
102535,100791
102608,100836
102643,100852
102603,100822
102535,100767
102595,100830
102670,100851
102708,100873
102697,100870
102620,100818
102680,100867
102784,100915
102777,100887
102760,100897
102694,100856
102778,100908
102856,100953
102854,100946
102859,100949
102785,100909
102876,100968
102956,100992
102934,100999
102957,100998
102868,100971
102961,100999
103064,101053
103056,101000
103035,101058
102953,100984
103010,101068
103117,101071
103122,101090
103086,101057
103048,101022
103110,101082
103198,101142
103170,101072
103192,101082
103086,101086
103172,101083
103269,101149
103212,101129
103232,101136
103171,101083
103234,101141
103354,101144
103287,101184
103294,101161
103262,101118
103319,101202
103388,101184
103364,101232
103381,101198
103308,101170
103366,101199
103457,101265
103477,101230
103404,101223
103359,101180
103479,101255
103528,101302
103514,101234
103479,101260
103391,101215
103520,101264
103615,101350
103535,101255
103540,101281
103462,101257
103536,101295
103650,101332
103556,101280
103583,101299
103476,101300
103578,101288
103709,101368
103636,101341
103630,101329
103535,101260
103700,101348
103741,101374
103726,101375
103689,101356
103619,101317
103715,101381
103784,101364
103719,101388
103747,101368
103693,101321
103802,101414
103806,101398
103816,101432
103766,101373
103746,101367
103824,101418
103930,101489
103890,101419
103855,101423
103781,101367
103922,101462
103964,101504
103937,101429
103927,101449
103897,101428
103974,101506
104061,101503
103972,101507
103983,101479
103906,101483
104056,101532
104154,101556
104070,101554
104039,101526
104023,101482
104176,101558
104210,101623
104156,101566
104184,101592
104107,101566
104237,101621
104287,101620
104227,101638
104177,101550
104139,101571
104172,101563
104181,101558
104013,101464
103846,101352
103656,101319
103668,101286
103549,101275
103409,101173
103215,101075
103074,100999
103070,101005
102995,100980
102870,100898
102694,100825
102601,100787
102613,100785
102556,100811
102467,100680
102289,100647
102220,100601
102251,100669
102241,100616
102164,100608
102024,100516
102009,100522
102042,100571
102073,100572
101974,100539
101884,100441
101920,100518
101995,100548
102015,100546
101929,100495
101924,100487
101867,100503
101962,100527
102003,100523
101946,100531
101898,100498
101907,100479
102035,100550
102029,100587
102013,100569
101963,100538
101962,100526
102097,100580
102089,100627
102055,100551
102015,100561
102011,100532
102095,100583
102158,100642
102094,100568
102077,100552
102043,100566
102151,100623
102128,100629
102133,100635
102060,100607
102084,100566
102160,100625
102164,100669
102121,100610
102033,100551
102091,100623
102137,100644
102200,100652
102194,100673
102137,100598
102152,100602
102284,100707
102243,100682
102262,100661
102191,100622
102217,100683
102272,100723
102326,100686
102250,100695
102175,100615
102281,100697
102318,100704
102329,100741
102284,100678
102187,100663
102250,100717
102348,100694
102328,100743
102294,100680
102225,100655
102242,100663
102364,100736
102301,100726
102274,100709
102219,100672
102262,100682
102346,100713
102314,100727
102299,100717
102238,100659
102282,100729
102305,100718
102368,100720
102320,100692
102224,100683
102332,100735
102342,100749
102386,100752
102397,100726
102306,100723
102365,100728
102475,100792
102435,100822
102420,100771
102419,100732
102486,100802
102567,100848
102561,100842
102550,100837
102489,100757
102589,100866
102640,100859
102667,100861
102614,100866
102589,100794
102645,100913
102743,100919
102715,100894
102722,100917
102662,100891
102721,100902
102877,100973
102799,100950
102819,100959
102735,100914
102874,100989
102941,101023
102873,101001
102928,101004
102835,100955
102971,101057
103038,101055
102985,101074
102983,101032
102966,101024
103074,101087
103132,101111
103109,101102
103114,101119
103030,101039
103168,101168
103198,101143
103224,101139
103179,101139
103164,101116
103239,101165
103329,101187
103294,101188
103290,101169
103206,101142
103354,101193
103383,101257
103353,101193
103387,101198
103269,101173
103409,101215
103446,101289
103392,101224
103421,101218
103335,101194
103455,101250
103461,101312
103466,101221
103437,101265
103375,101187
103468,101295
103561,101307
103528,101280
103461,101260
103425,101197
103522,101314
103590,101330
103565,101311
103489,101270
103466,101247
103605,101308
103687,101381
103651,101357
103597,101305
103555,101260
103693,101367
103712,101437
103702,101364
103682,101341
103640,101333
103770,101424
103772,101426
103773,101417
103725,101382
103710,101376
103828,101446
103834,101432
103832,101466
103782,101406
103769,101424
103870,101426
103914,101521
103904,101485
103843,101415
103816,101478
103960,101493
103981,101506
103999,101518
103930,101498
103942,101489
104009,101539
104065,101573
104027,101532
104002,101508
103980,101513
104132,101585
104150,101612
104109,101571
104046,101536
104074,101534
104164,101604
104216,101620
104182,101601
104110,101557
104114,101575
104246,101653
104301,101658
104242,101628
104203,101597
104165,101604
104335,101665
104301,101683
104317,101654
104274,101667
104271,101646
104374,101693
104434,101730
104410,101696
104355,101680
104361,101690
104486,101720
104511,101760
104482,101773
104420,101703
104415,101743
104522,101722
104516,101748
104381,101691
104211,101574
104138,101520
104075,101542
103901,101412
103756,101370
103589,101246
103432,101199
103423,101213
103266,101108
103151,101082
102964,100949
102887,100933
102857,100950
102817,100864
102635,100871
102535,100748
102466,100732
102490,100771
102396,100723
102349,100680
102217,100610
102186,100602
102250,100616
102171,100636
102128,100597
102035,100530
102075,100572
102108,100624
102095,100556
102055,100563
101990,100515
101986,100563
102107,100603
102062,100610
102081,100561
101967,100541
102038,100594
102124,100599
102158,100620
102107,100593
102057,100576
102110,100624
102221,100635
102183,100648
102196,100651
102088,100594
102169,100620
102271,100681
102215,100695
102233,100655
102129,100622
102218,100668
102280,100676
102280,100681
102225,100651
102170,100641
102256,100679
102278,100690
102282,100682
102238,100697
102181,100652
102245,100677
102332,100709
102307,100703
102309,100696
102256,100643
102332,100733
102403,100773
102390,100744
102395,100727
102342,100671
102417,100725
102460,100792
102434,100789
102463,100775
102357,100718
102435,100754
102494,100804
102456,100772
102435,100793
102368,100732
102423,100782
102497,100806
102434,100773
102441,100761
102356,100716
102449,100746
102472,100787
102447,100777
102406,100736
102351,100711
102437,100762
102501,100811
102440,100760
102398,100750
102327,100716
102401,100751
102492,100799
102457,100774
102411,100760
102354,100727
102466,100781
102537,100785
102476,100780
102485,100783
102403,100749
102512,100805
102584,100835
102519,100801
102550,100824
102501,100791
102580,100851
102625,100885
102612,100861
102643,100853
102599,100824
102679,100894
102736,100926
102710,100885
102705,100866
102669,100876
102784,100957
102860,100977
102817,100959
102813,100949
102733,100890
102865,100988
102933,100997
102913,101002
102897,100983
102826,100955
102977,101013
103013,101034
102993,101037
102961,101008
102921,101008
103049,101069
103116,101105
103064,101083
103045,101032
103006,101042
103151,101091
103167,101130
103158,101113
103113,101094
103078,101084
103199,101142
103281,101156
103241,101149
103221,101128
103176,101122
103282,101180
103354,101232
103312,101179
103269,101156
103248,101162
103363,101208
103403,101224
103361,101216
103335,101220
103287,101186
103430,101217
103441,101265
103424,101250
103405,101214
103362,101201
103472,101259
103490,101288
103449,101271
103434,101214
103396,101214
103499,101276
103509,101313
103485,101270
103480,101242
103462,101286
103556,101292
103564,101318
103548,101288
103498,101273
103499,101284
103615,101343
103629,101344
103590,101324
103539,101288
103551,101313
103663,101346
103682,101383
103645,101344
103573,101311
103602,101335
103693,101380
103747,101391
103689,101360
103631,101370
103684,101356
103743,101420
103779,101421
103746,101392
103701,101368
103718,101402
103842,101445
103820,101449
103804,101401
103752,101422
103794,101415
103858,101447
103876,101464
103865,101445
103803,101407
103816,101460
103953,101511
103956,101511
103925,101508
103893,101453
103913,101495
104013,101529
104021,101557
104008,101534
103944,101489
104001,101519
104060,101577
104105,101583
104063,101570
104035,101542
104074,101553
104178,101610
104158,101595
104143,101604
104065,101523
104067,101555
104117,101583
103986,101528
103854,101439
103672,101318
103567,101307
103538,101278
103436,101206
103238,101124
103072,101033
103027,101022
102962,101007
102882,100958
102735,100878
102567,100780
102597,100826
102554,100786
102451,100755
102324,100716
102232,100644
102212,100651
102241,100660
102122,100614
102064,100571
101938,100506
102003,100549
102015,100573
101977,100509
101943,100531
101803,100471
101916,100490
101941,100560
101903,100507
101866,100474
101803,100461
101825,100499
101926,100506
101921,100544
101899,100505
101811,100448
101858,100518
101957,100516
101935,100552
101902,100472
101875,100457
101962,100514
101998,100606
101950,100530
101990,100580
101893,100484
101989,100570
102033,100607
102001,100574
101970,100563
101899,100530
101983,100560
102077,100644
102015,100564
102004,100609
101901,100502
102073,100615
102093,100609
102035,100623
102019,100566
101953,100546
102015,100602
102089,100617
102099,100624
102104,100622
101990,100601
102108,100612
102190,100659
102121,100646
102123,100605
102057,100583
102155,100654
102230,100684
102147,100685
102132,100625
102074,100616
102167,100655
102212,100674
102166,100654
102142,100667
102053,100580
102172,100675
102193,100656
102171,100651
102143,100621
102084,100608
102166,100647
102200,100711
102150,100635
102086,100638
102074,100591
102133,100645
102174,100639
102146,100656
102115,100611
102053,100606
102131,100643
102221,100654
102128,100660
102115,100663
102102,100625
102178,100639
102224,100690
102169,100696
102194,100653
102163,100660
102279,100679
102319,100752
102271,100719
102289,100694
102233,100709
102330,100726
102417,100770
102378,100775
102313,100716
102312,100702
102390,100803
102443,100792
102420,100810
102420,100759
102354,100773
102513,100841
102541,100859
102544,100849
102493,100806
102516,100794
102561,100889
102613,100908
102641,100869
102584,100903
102547,100854
102720,100948
102757,100958
102723,100953
102665,100920
102650,100883
102832,100993
102816,100999
102826,100984
102748,100954
102797,100936
102889,101050
102934,101042
102902,101049
102882,100984
102856,101007
102985,101106
103011,101090
102994,101089
102943,101021
102982,101032
103030,101139
103099,101129
103085,101094
103013,101089
103016,101057
103124,101169
103158,101166
103138,101116
103065,101125
103116,101132
103186,101138
103215,101195
103177,101159
103160,101115
103143,101173
103249,101196
103262,101185
103269,101178
103187,101180
103216,101165
103275,101208
103343,101226
103329,101212
103245,101208
103239,101140
103392,101274
103383,101245
103343,101217
103297,101225
103294,101224
103427,101276
103423,101279
103367,101268
103354,101208
103352,101267
103501,101314
103500,101302
103479,101293
103389,101271
103442,101250
103515,101339
103543,101326
103495,101335
103465,101279
103478,101318
103580,101361
103589,101353
103548,101327
103529,101307
103539,101351
103684,101367
103661,101361
103633,101357
103616,101325
103592,101371
103718,101401
103693,101391
103681,101389
103595,101333
103705,101405
103772,101395
103771,101458
103734,101437
103691,101371
103748,101414
103824,101485
103817,101464
103813,101478
103757,101400
103792,101477
103917,101512
103870,101470
103875,101491
103795,101448
103882,101484
103972,101543
103936,101523
103915,101525
103855,101436
103991,101557
104018,101531
104032,101548
104025,101541
103937,101517
104028,101517
104079,101617
104078,101589
104080,101558
104018,101531
104072,101548
104174,101626
104167,101585
104110,101555
104021,101517
104058,101565
104086,101567
103958,101496
103824,101444
103584,101305
103590,101281
103480,101266
103337,101176
103190,101103
102970,100998
102897,100974
102883,100966
102711,100884
102614,100802
102456,100717
102435,100776
102453,100737
102316,100674
102174,100604
102062,100555
102047,100603
102060,100564
101940,100545
101865,100487
101750,100406
101840,100475
101850,100476
101756,100463
101728,100420
101637,100375
101702,100394
101685,100449
101690,100426
101625,100378
101563,100346
101652,100432
101712,100436
101669,100409
101631,100373
101597,100371
101677,100441
101711,100481
101721,100445
101715,100401
101663,100396
101723,100430
101820,100513
101734,100437
101756,100455
101663,100431
101823,100471
101839,100495
101824,100502
101759,100454
101735,100444
101825,100454
101820,100518
101821,100488
101793,100450
101735,100457
101835,100450
101830,100510
101845,100502
101757,100471
101729,100448
101868,100535
101929,100496
101840,100516
101800,100485
101815,100440
101913,100544
101977,100548
101913,100550
101887,100514
101854,100511
101925,100546
102017,100600
101944,100551
101923,100567
101879,100504
102012,100619
102046,100585
101984,100576
101953,100546
101884,100558
101985,100554
102000,100568
101951,100554
101944,100534
101886,100524
102001,100562
102013,100579
101948,100561
101900,100533
101893,100502
101972,100560
101994,100593
101934,100540
101888,100503
101856,100505
101981,100562
101976,100600
101997,100571
101910,100528
101890,100514
101963,100565
102063,100614
101981,100589
101957,100541
101987,100550
102025,100609
102103,100650
102095,100624
102029,100563
102080,100625
102113,100624
102160,100668
102166,100673
102138,100607
102121,100652
102271,100695
102305,100713
102229,100743
102233,100647
102225,100692
102390,100770
102367,100785
102349,100727
102298,100717
102328,100737
102456,100797
102506,100830
102442,100803
102440,100786
102411,100822
102547,100835
102596,100861
102523,100860
102491,100790
102567,100842
102620,100902
102644,100892
102669,100878
102638,100898
102615,100885
102737,100944
102731,100957
102733,100914
102681,100904
102723,100908
102810,100948
102832,100972
102829,100986
102750,100925
102821,100999
102872,100975
102927,100996
102867,101006
102805,100950
102856,100957
102891,101041
102938,101035
102922,101050
102868,100948
102919,101014
102976,101066
103003,101064
102988,101027
102894,101018
102932,101020
103056,101100
103063,101092
103028,101046
102972,101026
102984,101090
103099,101114
103095,101112
103035,101082
103008,101043
103059,101081
103169,101146
103110,101158
103095,101076
103018,101078
103110,101114
103204,101185
103169,101144
103170,101119
103109,101089
103180,101160
103252,101187
103217,101183
103248,101136
103141,101122
103243,101185
103332,101179
103299,101188
103273,101217
103219,101169
103311,101199
103362,101261
103370,101238
103374,101225
103309,101202
103364,101227
103457,101288
103439,101279
103404,101231
103400,101218
103432,101276
103512,101366
103466,101281
103523,101293
103457,101203
103471,101328
103575,101319
103585,101313
103525,101355
103467,101288
103570,101319
103658,101406
103612,101321
103615,101380
103541,101306
103622,101356
103743,101409
103682,101387
103681,101392
103631,101346
103721,101440
103797,101403
103754,101419
103770,101411
103675,101416
103787,101419
103899,101503
103840,101476
103852,101448
103808,101436
103881,101509
103982,101507
103883,101475
103874,101464
103790,101415
103839,101464
103851,101410
103670,101364
103524,101279
103353,101160
103310,101190
103223,101168
103050,101028
102934,100963
102717,100893
102747,100894
102645,100852
102493,100781
102385,100692
102252,100641
102249,100714
102254,100663
102115,100615
102047,100549
101916,100506
101905,100515
101933,100540
101819,100456
101768,100423
101663,100377
101722,100444
101742,100400
101684,100403
101626,100368
101544,100366
101671,100412
101680,100392
101598,100374
101583,100370
101504,100353
101643,100413
101665,100453
101609,100405
101621,100364
101572,100382
101680,100435
101770,100455
101690,100405
101668,100382
101674,100418
101735,100482
101820,100504
101747,100478
101739,100425
101734,100450
101780,100508
101839,100503
101785,100463
101747,100475
101715,100469
101842,100499
101857,100465
101814,100488
101781,100484
101741,100461
101808,100505
101878,100551
101837,100496
101805,100490
101755,100503
101878,100519
101876,100556
101865,100518
101835,100491
101831,100513
101921,100518
101936,100586
101925,100531
101885,100482
101857,100532
101931,100532
101947,100578
101918,100543
101896,100500
101854,100532
101919,100519
101936,100562
101904,100535
101835,100502
101789,100488
101929,100563
101938,100521
101873,100519
101800,100493
101783,100475
101923,100583
101901,100534
101817,100498
101801,100467
101754,100505
101836,100506
101889,100543
101802,100490
101747,100485
101734,100436
101856,100541
101856,100506
101809,100491
101755,100491
101741,100457
101877,100553
101904,100517
101835,100526
101783,100476
101832,100513
101930,100537
101909,100555
101890,100535
101842,100494
101855,100506
101977,100587
101982,100562
101936,100563
101923,100562
101944,100552
102026,100590
102050,100617
102054,100580
101990,100519
102057,100629
102129,100652
102167,100671
102094,100653
102100,100594
102113,100666
102216,100664
102221,100703
102183,100658
102147,100662
102230,100675
102266,100754
102275,100738
102308,100741
102222,100670
102288,100699
102356,100821
102402,100777
102395,100755
102299,100740
102353,100786
102504,100849
102487,100826
102440,100817
102387,100791
102473,100812
102552,100821
102542,100835
102515,100858
102488,100804
102505,100882
102610,100895
102600,100873
102544,100866
102525,100853
102567,100865
102649,100932
102631,100875
102617,100917
102575,100839
102642,100892
102671,100930
102695,100899
102638,100922
102612,100873
102647,100920
102749,100966
102740,100941
102697,100961
102642,100868
102746,100931
102799,100969
102776,100979
102743,100927
102688,100920
102763,100954
102836,101001
102841,100995
102793,100972
102723,100921
102816,100980
102929,101009
102864,101034
102844,101007
102815,100996
102883,101023
102953,101028
102920,101049
102925,101008
102826,100997
102964,101065
103018,101058
102984,101044
102990,101067
102926,101029
103027,101077
103072,101086
103072,101104
103005,101099
102949,101042
103091,101125
103146,101119
103100,101092
103085,101117
103048,101081
103162,101132
103178,101153
103158,101136
103185,101114
103085,101134
103208,101148
103272,101179
103245,101181
103207,101184
103152,101101
103278,101203
103296,101189
103280,101187
103285,101188
103247,101150
103318,101217
103400,101254
103340,101212
103369,101222
103289,101197
103404,101259
103434,101283
103423,101253
103393,101240
103368,101225
103451,101282
103491,101296
103500,101298
103460,101266
103407,101245
103512,101309
103587,101326
103514,101302
103461,101293
103383,101224
103448,101292
103396,101232
103291,101168
103113,101110
102957,100980
102949,100971
102821,100957
102646,100857
102530,100766
102363,100739
102327,100704
102297,100707
102133,100622
101971,100546
101880,100467
101904,100515
101813,100450
101659,100392
101602,100334
101447,100279
101524,100292
101434,100288
101343,100218
101257,100201
101183,100150
101208,100172
101216,100214
101125,100122
101064,100097
101023,100077
101069,100127
101069,100137
101039,100096
100950,100093
100930,100087
101062,100115
101038,100167
101042,100108
100964,100059
100972,100039
101061,100150
101084,100136
101062,100141
100997,100077
100976,100098
101060,100147
101107,100158
101025,100165
100963,100064
100982,100099
101019,100155
101078,100125
101009,100155
100903,100056
100907,100102
101008,100160
101018,100106
100974,100100
100859,100075
100885,100082
100975,100109
100986,100146
100921,100105
100869,100060
100889,100074
100970,100162
100966,100140
100967,100102
100905,100142
100929,100146
101015,100140
101073,100185
100996,100175
100963,100109
100973,100138
101091,100208
101128,100202
101061,100201
101022,100117
101044,100182
101139,100205
101133,100224
101083,100174
101065,100172
101108,100189
101182,100200
101152,100232
101126,100202
101117,100151
101096,100196
101213,100253
101221,100247
101173,100214
101090,100132
101154,100214
101211,100275
101228,100232
101180,100195
101132,100191
101164,100217
101272,100267
101233,100251
101241,100229
101183,100182
101233,100260
101294,100278
101335,100312
101252,100297
101218,100208
101282,100292
101359,100313
101377,100287
101353,100278
101256,100286
101329,100323
101461,100365
101455,100317
101435,100348
101335,100320
101434,100357
101531,100403
101531,100370
101541,100403
101445,100352
101560,100401
101638,100443
101650,100443
101660,100457
101549,100365
101663,100483
101734,100521
101743,100485
101756,100479
101683,100430
101782,100494
101811,100553
101841,100519
101818,100509
101789,100472
101857,100561
101973,100583
101931,100598
101889,100571
101936,100535
101951,100605
102044,100663
101987,100608
102018,100584
101939,100572
102066,100627
102144,100700
102072,100666
102098,100611
101999,100646
102100,100640
102211,100731
102153,100707
102140,100642
102105,100672
102198,100719
102258,100758
102227,100709
102211,100725
102166,100683
102288,100740
102351,100769
102281,100760
102338,100739
102206,100732
102366,100796
102440,100786
102435,100803
102368,100835
102353,100744
102408,100817
102524,100888
102456,100859
102471,100809
102378,100808
102484,100837
102581,100886
102550,100863
102509,100889
102500,100817
102576,100889
102628,100923
102598,100891
102583,100875
102538,100847
102646,100916
102611,100934
102653,100914
102658,100927
102585,100839
102709,100960
102752,100990
102712,100936
102711,100929
102650,100866
102770,100969
102847,101020
102777,100984
102766,100934
102720,100967
102839,101019
102877,101048
102835,101036
102841,100984
102804,101004
102939,101025
102953,101080
102918,101058
102927,101061
102882,101036
102996,101101
103036,101054
103024,101106
102959,101053
102966,101088
103053,101120
103098,101140
103057,101097
103018,101098
102997,101052
103134,101158
103128,101182
103093,101116
103096,101123
103051,101105
103140,101160
103195,101153
103171,101157
103118,101148
103134,101144
103269,101235
103250,101228
103246,101165
103199,101177
103219,101142
103335,101249
103335,101244
103325,101216
103296,101230
103261,101197
103384,101234
103431,101324
103427,101260
103357,101233
103330,101250
103402,101246
103423,101286
103301,101224
103214,101116
103083,101082
103065,101065
103005,101006
102798,100954
102559,100826
102474,100798
102454,100771
102346,100731
102215,100659
102030,100535
101897,100540
101947,100544
101866,100488
101706,100432
101592,100353
101481,100323
101525,100318
101476,100310
101376,100266
101225,100224
101142,100173
101256,100196
101183,100203
101099,100129
101008,100119
101017,100129
101041,100117
101086,100155
101001,100110
100937,100088
100974,100110
101043,100137
101038,100102
101033,100101
100934,100093
101003,100117
101059,100175
101082,100129
101029,100161
101024,100125
101032,100113
101116,100203
101083,100175
101114,100172
101015,100120
101091,100163
101140,100225
101150,100207
101111,100197
101023,100113
101094,100180
101134,100228
101142,100160
101107,100192
101016,100145
101053,100169
101128,100190
101093,100194
101075,100141
100989,100106
101051,100150
101122,100220
101157,100178
101041,100187
101003,100160
101050,100192
101186,100238
101159,100273
101124,100205
101107,100221
101139,100196
101204,100249
101236,100249
101211,100240
101078,100236
101195,100243
101289,100305
101263,100282
101236,100236
101180,100205
101260,100296
101307,100283
101323,100298
101270,100268
101208,100231
101264,100296
101323,100322
101350,100316
101299,100292
101283,100291
101360,100291
101394,100345
101407,100366
101354,100307
101308,100283
101412,100318
101435,100377
101443,100358
101417,100360
101406,100284
101454,100390
101508,100438
101510,100367
101518,100401
101434,100329
101545,100429
101605,100424
101610,100419
101592,100436
101536,100362
101600,100442
101679,100514
101677,100465
101689,100468
101579,100413
101691,100486
101835,100551
101792,100480
101791,100510
101697,100471
101823,100538
101901,100565
101911,100567
101873,100597
101812,100503
101934,100581
102001,100655
101996,100601
101996,100652
101914,100560
102064,100665
102156,100684
102073,100684
102113,100655
102014,100648
102136,100692
102232,100746
102224,100725
102229,100713
102162,100690
102283,100759
102350,100830
102329,100779
102311,100770
102284,100738
102399,100788
102459,100841
102426,100831
102434,100814
102382,100776
102487,100876
102553,100912
102515,100885
102521,100856
102432,100810
102574,100923
102634,100913
102615,100945
102600,100889
102571,100883
102649,100952
102755,100982
102727,100976
102682,100912
102637,100934
102754,101002
102807,101003
102809,100985
102744,100990
102706,100921
102847,101008
102903,101017
102865,101040
102845,100983
102789,101028
102894,101060
102980,101062
102917,101091
102880,101043
102906,101044
102978,101077
103031,101091
103033,101112
