11111,11111
0,0
79385,79712
95099,96379
95092,96374
95087,96340
95042,96346
95148,96366
95169,96402
95165,96422
95142,96374
95117,96401
95198,96364
95259,96417
95199,96412
95207,96377
95155,96396
95247,96392
95289,96424
95229,96385
95275,96378
95256,96402
95280,96421
95353,96432
95290,96444
95283,96412
95280,96413
95354,96440
95344,96441
95332,96417
95334,96452
95295,96401
95366,96449
95407,96458
95339,96414
95345,96425
95271,96401
95379,96456
95384,96459
95321,96411
95316,96388
95261,96442
95376,96438
95360,96473
95343,96428
95349,96428
95327,96372
95408,96457
95360,96474
95410,96438
95381,96466
95342,96433
95434,96514
95440,96491
95460,96478
95433,96482
95414,96474
95482,96508
95489,96490
95511,96518
95460,96487
95515,96495
95581,96531
95562,96546
95567,96522
95543,96519
95558,96496
95651,96585
95608,96568
95650,96539
95575,96536
95627,96549
95655,96609
95664,96546
95682,96597
95628,96533
95609,96557
95722,96602
95720,96608
95725,96580
95735,96584
95704,96606
95762,96606
95845,96633
95792,96634
95777,96594
95846,96626
95876,96655
95875,96666
95858,96614
95885,96640
95843,96642
95919,96657
95961,96719
95954,96672
95907,96670
95956,96674
96001,96720
96002,96679
96004,96732
95985,96670
96025,96712
96011,96681
96079,96731
96057,96726
95982,96668
96057,96728
96121,96722
96123,96759
96089,96710
96052,96679
96121,96741
96150,96762
96169,96773
96130,96736
96106,96696
96179,96751
96209,96770
96212,96794
96188,96748
96195,96742
96201,96778
96283,96804
96256,96820
96301,96802
96216,96761
96559,96911
95011,96190
94920,96145
95173,96270
95193,96281
95144,96240
95360,96328
95349,96346
95328,96317
95261,96290
95293,96315
95349,96311
95355,96319
95351,96300
95314,96317
95274,96305
95356,96352
95377,96333
95358,96303
95370,96312
95274,96315
95379,96337
95375,96353
95395,96348
95373,96341
95351,96302
95382,96345
95423,96334
95395,96369
95387,96332
95394,96308
95452,96401
95455,96362
95480,96379
95415,96357
95426,96363
95466,96369
95575,96401
95482,96367
95488,96366
95509,96383
95599,96400
95590,96436
95575,96401
95561,96424
95548,96414
95641,96418
95653,96474
95624,96430
95647,96437
95651,96458
95688,96465
95726,96462
95737,96480
95734,96471
95703,96487
95789,96505
95762,96524
95768,96464
95739,96468
95761,96465
95826,96557
95797,96522
95822,96523
95736,96508
95775,96509
95840,96521
95883,96579
95865,96500
95852,96498
95837,96531
95887,96547
95895,96559
95880,96544
95868,96512
95909,96526
95949,96592
95944,96571
95923,96577
95898,96535
95952,96549
95969,96612
95974,96563
95987,96592
95927,96557
95968,96558
96018,96613
95976,96590
96005,96597
95948,96566
96003,96572
96025,96616
96041,96574
96002,96617
95978,96552
96025,96596
96067,96602
96098,96603
96049,96606
96005,96582
96054,96579
96092,96627
96069,96600
96091,96634
96061,96607
96070,96615
96142,96630
96146,96643
96113,96672
96091,96623
96170,96602
96214,96695
96159,96634
96209,96675
96166,96653
96210,96685
96282,96667
96327,96722
96305,96685
96270,96674
96357,96729
96399,96759
96442,96731
96395,96745
96394,96716
96435,96737
96517,96788
96451,96793
96509,96790
96445,96749
96492,96756
96499,96793
96525,96774
96440,96732
96330,96682
96319,96697
96253,96708
96176,96579
96048,96562
95925,96489
95810,96505
95782,96420
95721,96408
95571,96346
95415,96288
95351,96300
95323,96231
95229,96228
95126,96139
94993,96091
94956,96104
94913,96081
94845,96063
94730,96011
94653,95950
94676,96009
94619,95980
94619,95934
94537,95965
94444,95882
94533,95949
94501,95948
94457,95905
94454,95872
94400,95879
94408,95884
94494,95921
94454,95902
94436,95904
94393,95877
94481,95904
94482,95966
94495,95902
94464,95901
94463,95889
94504,95947
94532,96010
94538,95913
94555,95973
94510,95938
94542,95960
94578,96007
94590,95938
94570,95988
94527,95928
94579,95983
94661,95992
94646,96011
94608,95961
94592,95949
94640,96009
94721,95995
94674,96016
94669,96021
94632,95988
94753,96043
94757,96067
94737,96056
94737,96047
94733,96023
94797,96056
94853,96084
94802,96089
94807,96049
94747,96035
94847,96112
94827,96071
94835,96073
94793,96043
94785,96051
94835,96064
94832,96063
94861,96067
94795,96035
94785,96015
94807,96051
94859,96075
94840,96108
94781,96040
94778,96009
94799,96085
94831,96090
94799,96062
94812,96049
94772,96067
94844,96041
94854,96101
94828,96035
94773,96011
94776,96038
94833,96067
94811,96068
94818,96050
94796,96036
94753,96031
94835,96092
94827,96072
94849,96083
94769,96039
94810,96057
94855,96077
94871,96070
94835,96101
94817,96054
94846,96084
94892,96115
94915,96110
94887,96107
94869,96070
94891,96097
94951,96123
94990,96107
94977,96160
94961,96122
94976,96119
95069,96169
95079,96182
95050,96168
95041,96161
95080,96162
95129,96167
95202,96232
95158,96227
95141,96166
95141,96192
95218,96238
95241,96268
95228,96212
95183,96232
95218,96224
95254,96277
95265,96262
95298,96279
95234,96248
95248,96247
95293,96299
95297,96289
95296,96279
95253,96253
95288,96247
95295,96313
95331,96278
95321,96292
95328,96262
95286,96302
95377,96300
95397,96323
95336,96276
95306,96247
95374,96273
95389,96330
95381,96311
95398,96298
95337,96278
95354,96287
95412,96343
95354,96288
95393,96330
95335,96272
95339,96264
95355,96339
95361,96284
95321,96320
95300,96231
95314,96291
95336,96292
95367,96297
95308,96260
95263,96264
95257,96269
95360,96300
95325,96288
95312,96285
95240,96269
95251,96235
95312,96295
95274,96241
95307,96241
95243,96248
95229,96274
95315,96290
95257,96294
95255,96246
95172,96229
95239,96251
95269,96276
95262,96278
95228,96213
95220,96208
95237,96239
95310,96229
95312,96305
95256,96210
95277,96238
95267,96265
95338,96275
95291,96259
95258,96262
95210,96187
95267,96229
95230,96221
95180,96214
95092,96151
94989,96074
94938,96112
94899,96056
94810,96026
94674,95962
94506,95892
94432,95861
94420,95853
94267,95815
94138,95733
93990,95662
93963,95669
93885,95628
93806,95571
93669,95547
93579,95462
93545,95472
93455,95455
93414,95394
93288,95387
93202,95307
93211,95339
93197,95339
93098,95306
93102,95294
92972,95281
93013,95232
93035,95291
93013,95274
92992,95253
92902,95210
92999,95264
92997,95292
92972,95251
93003,95282
92942,95222
92973,95262
93050,95291
93023,95307
93015,95266
92967,95246
93035,95243
93063,95315
92999,95282
93041,95278
92953,95269
93037,95293
93032,95296
92988,95274
92971,95265
92913,95224
92971,95263
92991,95282
92948,95283
92932,95248
92885,95223
92956,95248
93020,95278
92984,95268
92956,95269
92954,95239
93024,95315
93069,95312
93047,95317
93048,95304
92999,95267
93090,95336
93126,95338
93083,95319
93065,95328
93038,95275
93072,95331
93125,95358
93070,95321
93079,95331
93017,95273
93060,95279
93119,95345
93035,95325
93027,95303
92960,95285
93050,95313
93059,95323
93000,95333
92997,95279
92948,95275
93016,95301
92990,95310
93010,95267
92934,95271
92949,95265
93017,95318
92978,95309
92979,95276
92989,95286
92966,95273
93017,95275
93061,95338
93015,95326
92977,95290
93013,95293
93057,95312
93097,95323
93072,95351
93090,95314
93063,95322
93147,95344
93170,95378
93162,95327
93127,95366
93153,95327
93216,95394
93236,95389
93216,95390
93172,95345
93198,95394
93284,95432
93297,95441
93303,95391
93250,95417
93274,95411
93372,95465
93391,95488
93357,95444
93359,95470
93391,95440
93439,95488
93500,95491
93482,95520
93454,95483
93516,95497
93543,95517
93569,95537
93569,95549
93560,95487
93548,95522
93663,95568
93655,95609
93617,95534
93603,95559
93642,95562
93683,95576
93669,95610
93677,95548
93605,95568
93640,95542
93683,95579
93659,95604
93661,95557
93611,95511
93599,95565
93675,95550
93666,95570
93619,95586
93591,95516
93555,95525
93632,95564
93609,95563
93587,95495
93502,95497
93544,95526
93554,95500
93561,95512
93541,95518
93495,95447
93488,95468
93549,95534
93555,95494
93529,95525
93478,95443
93554,95494
93539,95492
93587,95521
93570,95532
93477,95472
93552,95491
93540,95521
93555,95516
93576,95494
93494,95457
93525,95502
93542,95506
93553,95505
93537,95500
93486,95487
93495,95482
93546,95500
93529,95503
93511,95492
93467,95460
93484,95484
93551,95495
93517,95483
93506,95494
93466,95454
93507,95477
93554,95529
93549,95509
93515,95479
93508,95436
93535,95491
93609,95511
93590,95504
93604,95491
93580,95494
93603,95542
93658,95524
93654,95500
93635,95571
93589,95520
93676,95537
93761,95575
93749,95579
93714,95525
93677,95524
93732,95588
93802,95589
93781,95614
93794,95575
93737,95545
93805,95584
93889,95625
93834,95621
93824,95575
93755,95569
93850,95612
93781,95591
93763,95537
93651,95542
93514,95432
93540,95444
93439,95406
93338,95367
93209,95312
93064,95230
93004,95193
92934,95198
92793,95091
92630,95046
92535,94998
92424,95013
92391,94942
92258,94896
92147,94849
91989,94793
91946,94735
91851,94764
91784,94704
91695,94646
91541,94587
91490,94544
91409,94577
91308,94510
91201,94458
91083,94414
91085,94421
90994,94385
90896,94341
90849,94335
90696,94272
90740,94305
90757,94300
90672,94265
90666,94268
90622,94236
90697,94325
90757,94301
90707,94317
90702,94311
90727,94277
90804,94358
90848,94339
90874,94362
90907,94385
90893,94358
90957,94384
91028,94427
90982,94423
91020,94407
90974,94380
91106,94463
91100,94463
91127,94432
91136,94481
91131,94447
91208,94541
91265,94537
91279,94528
91266,94535
91316,94513
91394,94595
91445,94625
91450,94613
91457,94648
91462,94624
91594,94659
91591,94686
91620,94673
91601,94691
91576,94642
91677,94700
91648,94701
91668,94699
91641,94711
91600,94672
91677,94706
91692,94719
91646,94661
91652,94681
91634,94678
91617,94708
91655,94688
91633,94682
91565,94618
91606,94645
91616,94684
91627,94675
91619,94697
91559,94600
91582,94650
91629,94699
91658,94684
91592,94654
91610,94654
91533,94678
91624,94646
91626,94718
91553,94688
91551,94687
91563,94644
91609,94689
91607,94668
91595,94698
91586,94649
91556,94644
91578,94664
91614,94675
91562,94698
91530,94656
91560,94658
91599,94670
91648,94700
91568,94690
91572,94662
91613,94689
91638,94720
91694,94769
91646,94688
91667,94706
91655,94731
91719,94746
91773,94774
91717,94741
91734,94739
91738,94738
91766,94777
91806,94809
91813,94781
91794,94734
91829,94794
91835,94772
91901,94806
91881,94784
91851,94807
91887,94810
91926,94827
91993,94833
91952,94883
91896,94842
91937,94823
92028,94859
92026,94923
91989,94849
91987,94863
91996,94862
92049,94883
92065,94876
92010,94895
92014,94837
92013,94896
92026,94896
92042,94899
92062,94906
91977,94847
92025,94886
92087,94874
92088,94882
92096,94905
92054,94855
92116,94907
92125,94944
92098,94899
92138,94922
92063,94911
92139,94911
92203,94953
92159,94965
92154,94907
92108,94933
92186,94933
92208,94943
92221,94959
92150,94974
92134,94897
92192,94922
92179,94969
92174,94946
92159,94929
92118,94856
92151,94940
92199,94928
92168,94921
92124,94928
92099,94884
92136,94944
92150,94929
92110,94926
92132,94922
92034,94855
92108,94882
92094,94942
92128,94885
92075,94916
92054,94896
92073,94912
92143,94926
92144,94911
92133,94956
92079,94895
92163,94954
92195,94948
92191,94957
92214,94978
92133,94920
92264,94969
92301,95028
92273,94985
92334,94998
92236,95009
92319,94978
92416,95015
92401,95046
92377,95045
92346,95012
92447,95069
92471,95061
92480,95075
92466,95075
92442,95072
92524,95071
92589,95141
92543,95123
92551,95145
92537,95110
92604,95129
92632,95168
92612,95123
92633,95145
92531,95122
92580,95113
92569,95135
92446,95030
92410,95014
92263,94961
92228,94966
92223,94934
92054,94850
91935,94840
91793,94713
91779,94756
91668,94672
91536,94636
91391,94580
91228,94473
91173,94500
91051,94392
90907,94351
90695,94290
90568,94226
90488,94187
90353,94167
90231,94095
90061,94020
89922,93930
89887,93955
89865,93965
89765,93912
89672,93820
89582,93829
89642,93851
89594,93856
89571,93786
89586,93832
89536,93778
89606,93812
89658,93821
89648,93858
89613,93822
89647,93835
89675,93885
89744,93928
89702,93877
89753,93858
89748,93907
89818,93914
89821,93958
89846,93911
89861,93938
89855,93900
89938,93983
89926,93943
89966,93977
89940,93971
89937,93942
89991,93980
90045,94027
90032,94037
90033,93994
90040,94031
90152,94027
90159,94101
90170,94051
90198,94088
90177,94062
90310,94153
90339,94152
90357,94184
90309,94110
90345,94175
90395,94153
90401,94192
90400,94170
90379,94162
90361,94168
90393,94192
90404,94177
90362,94172
90360,94142
90344,94125
90340,94170
90342,94146
90299,94151
90222,94135
90211,94099
90238,94085
90244,94149
90216,94106
90130,94057
90149,94087
90172,94071
90152,94079
90133,94053
90045,94021
90091,94037
90119,94056
90103,94053
90058,94033
90034,93996
90057,94029
90091,94051
90096,94055
90067,94049
90020,93996
90034,94019
90097,94054
90120,94054
90090,94051
90072,94018
90048,94050
90078,94069
90118,94047
90123,94059
90041,94039
90063,94048
90140,94099
90132,94076
90109,94051
90063,94044
90093,94042
90091,94082
90136,94086
90090,94064
90075,94023
90086,94044
90138,94048
90143,94118
90157,94076
90141,94089
90175,94102
90239,94140
90276,94088
90258,94131
90248,94133
90288,94161
90360,94169
90384,94190
90358,94174
90358,94163
90439,94216
90537,94282
90560,94249
90536,94271
90575,94272
90605,94326
90667,94295
90677,94310
90695,94317
90631,94283
90728,94320
90750,94335
90757,94343
90782,94346
90771,94323
90789,94371
90813,94364
90806,94370
90869,94379
90791,94348
90864,94361
90934,94436
90935,94440
90920,94398
90871,94391
90950,94429
90995,94461
90993,94444
90994,94427
90891,94370
91012,94431
91003,94458
91005,94469
91020,94453
90952,94410
91026,94502
91066,94448
91056,94471
91076,94462
91018,94436
91131,94509
91147,94523
91159,94543
91178,94542
91125,94505
91220,94562
91322,94596
91337,94598
91294,94610
91311,94529
91400,94632
91421,94650
91403,94658
91448,94624
91410,94656
91450,94658
91531,94708
91530,94667
91509,94693
91427,94659
91548,94679
91565,94751
91529,94681
91573,94681
91507,94679
91608,94730
91605,94768
91632,94717
91677,94733
91638,94731
91714,94755
91755,94795
91746,94770
91768,94802
91709,94730
91826,94816
91865,94831
91823,94829
91789,94770
91771,94798
91725,94793
91745,94769
91679,94701
91537,94692
91436,94607
91414,94597
91296,94581
91169,94485
90983,94417
90877,94393
90784,94334
90645,94276
90505,94199
90318,94117
90115,94032
90027,94005
89861,93979
89670,93854
89550,93791
89348,93745
89308,93701
89198,93648
89059,93614
88955,93517
88854,93529
88842,93487
88837,93502
88769,93465
88749,93441
88674,93402
88790,93445
88740,93494
88726,93476
88727,93435
88733,93441
88776,93496
88823,93487
88861,93497
88821,93481
88847,93537
88923,93535
89016,93590
88983,93582
89000,93599
89045,93576
89080,93629
89149,93668
89166,93607
89189,93666
89186,93628
89274,93687
89304,93720
89271,93682
89264,93669
89298,93697
89382,93729
89386,93740
89442,93733
89385,93743
89467,93758
89574,93818
89605,93823
89639,93858
89600,93850
89674,93837
89783,93927
89787,93919
89841,93917
89809,93922
89877,93940
89992,94021
89986,93986
90016,94020
89971,93995
90009,94018
90068,94028
90074,94046
90098,94039
90045,94034
90046,94025
90076,94025
90053,94033
90053,94018
90015,94036
89988,93985
90058,94011
90054,94060
89997,93997
89976,93999
89945,93981
90008,94026
89964,93985
89954,93978
89907,93935
89946,93981
89925,93985
89971,94001
89942,93988
89876,93943
89903,94001
89946,93954
90005,94051
89972,94013
89945,93968
90030,94025
90054,94029
90128,94085
90102,94054
90125,94042
90186,94084
90228,94141
90298,94134
90331,94145
90300,94149
90373,94163
90475,94234
90463,94206
90542,94251
90516,94240
90573,94274
90695,94286
90719,94333
90687,94330
90725,94304
90796,94354
90838,94386
90906,94408
90883,94415
90911,94408
90937,94442
91048,94453
91037,94510
91046,94479
91036,94462
91134,94511
91217,94531
91238,94573
91230,94549
91264,94546
91316,94583
91372,94644
91428,94636
91469,94662
91428,94595
91500,94676
91516,94707
91588,94681
91614,94730
91582,94660
91673,94742
91681,94766
91715,94776
91739,94778
91717,94754
91781,94774
91785,94812
91854,94825
91832,94793
91792,94792
91832,94832
91922,94849
91880,94846
91890,94840
91890,94841
91922,94858
91951,94862
91973,94851
91944,94892
91869,94820
91930,94875
91951,94870
91920,94879
91877,94825
91870,94849
91884,94837
91932,94873
91905,94849
91884,94848
91856,94851
91905,94860
91970,94888
91945,94872
91934,94873
91906,94869
91964,94849
92059,94922
92004,94881
92024,94918
92001,94891
92052,94936
92111,94918
92078,94952
92100,94900
92086,94944
92135,94944
92199,94995
92153,94965
92194,94943
92158,94954
92260,95012
92259,95026
92276,95039
92317,95011
92229,94979
92330,95014
92382,95055
92339,95044
92262,95034
92214,94944
92246,94982
92166,94958
92062,94903
92016,94874
91883,94794
91814,94808
91799,94758
91626,94707
91515,94650
91395,94593
91300,94568
91249,94503
91081,94471
90951,94374
90807,94346
90743,94307
90651,94247
90497,94172
90303,94114
90198,94068
90138,94057
90019,94013
89929,93959
89816,93928
89711,93837
89722,93895
89703,93846
89596,93818
89599,93797
89522,93791
89601,93804
89601,93876
89599,93820
89614,93803
89600,93787
89701,93854
89723,93914
89757,93870
89759,93866
89788,93854
89887,93923
89877,93961
89869,93948
89897,93923
89899,93944
89969,93982
90036,94040
89991,93971
90034,93978
90026,94000
90087,94043
90098,94087
90073,94031
90090,93987
90080,94054
90170,94062
90216,94078
90220,94048
90231,94089
90241,94053
90334,94144
90386,94128
90415,94162
90393,94147
90443,94184
90501,94215
90583,94228
90551,94243
90562,94237
90562,94237
90658,94270
90620,94259
90650,94265
90590,94271
90592,94229
90595,94246
90600,94237
90586,94245
90491,94207
90512,94233
90551,94218
90507,94213
90535,94184
90476,94192
90471,94135
90531,94214
90546,94223
90483,94200
90478,94150
90454,94215
90508,94183
90504,94226
90482,94177
90470,94165
90436,94182
90465,94223
90505,94184
90459,94176
90425,94159
90436,94139
90471,94186
90481,94201
90472,94194
90426,94162
90468,94162
90516,94211
90523,94232
90485,94201
90458,94167
90526,94192
90584,94228
90583,94212
90593,94242
90516,94228
90624,94249
90661,94270
90701,94300
90692,94274
90634,94256
90709,94303
90791,94322
90783,94344
90797,94325
90796,94334
90863,94352
90911,94380
90956,94411
90973,94389
90935,94391
91025,94430
91117,94469
91111,94458
91123,94485
91105,94456
91172,94477
91245,94522
91271,94538
91261,94534
91271,94525
91306,94532
91374,94584
91355,94596
91418,94579
91360,94555
91407,94574
91436,94610
91490,94646
91437,94648
91412,94542
91444,94615
91531,94658
91486,94659
91488,94617
91472,94630
91505,94629
91530,94654
91492,94649
91516,94640
91499,94600
91568,94640
91599,94679
91595,94683
91567,94655
91558,94621
91610,94696
91687,94721
91659,94730
91675,94712
91628,94652
91704,94730
91743,94694
91716,94757
91699,94730
91700,94695
91750,94772
91757,94787
91765,94735
91744,94752
91688,94738
91772,94740
91833,94797
91800,94774
91764,94774
91697,94723
91790,94732
91799,94805
91758,94725
91753,94750
91700,94732
91779,94748
91842,94834
91793,94747
91796,94792
91739,94743
91863,94797
91860,94824
91899,94791
91873,94807
91858,94754
91919,94792
91939,94861
91944,94806
91924,94820
91848,94754
91944,94810
91905,94796
91877,94795
91764,94738
91724,94698
91683,94721
91659,94657
91537,94612
91396,94558
91271,94527
91214,94455
91139,94456
90968,94339
90867,94319
90664,94220
90600,94198
90474,94132
90312,94114
90132,93999
90000,93922
89886,93897
89753,93833
89645,93781
89485,93761
89372,93650
89362,93649
89260,93648
89205,93634
89107,93580
89112,93541
89105,93573
89126,93577
89072,93570
89077,93520
89028,93557
89111,93551
89174,93610
89129,93604
89178,93565
89138,93585
89257,93632
89328,93675
89267,93628
89279,93676
89325,93630
89402,93682
89392,93728
89435,93696
89447,93715
89486,93739
89524,93739
89549,93783
89484,93749
89496,93704
89488,93756
89547,93774
89628,93809
89558,93774
89559,93722
89556,93796
89653,93783
89661,93815
89675,93823
89656,93812
89648,93837
89742,93859
89789,93901
89809,93890
89778,93844
89769,93872
89871,93880
89900,93937
89863,93894
89875,93898
89876,93865
89960,93944
89938,93954
89950,93934
89903,93912
89921,93917
89968,93949
89991,93948
89926,93962
89917,93885
89966,93940
89997,93961
90057,93953
90009,93980
89995,93938
89978,93965
90049,93965
90073,93992
90017,93987
89991,93915
90005,93984
90015,93969
90064,93986
90036,93979
89972,93954
89978,93975
90005,93975
90062,93977
90029,93960
90007,93965
89991,93960
90078,93969
90075,94038
90084,93966
90092,93975
90107,94031
90170,94036
90239,94048
90212,94084
90203,94044
90242,94070
90330,94117
90346,94156
90347,94093
90360,94109
90399,94155
90487,94185
90500,94189
90520,94200
90461,94170
90556,94211
90601,94249
90606,94224
90624,94228
90587,94219
90674,94277
90673,94277
90747,94284
90740,94264
90718,94273
90782,94322
90836,94319
90864,94373
90917,94353
90854,94331
90939,94417
90993,94412
91019,94421
91018,94411
91055,94374
91084,94427
91121,94465
91120,94441
91158,94458
91131,94471
91161,94442
91241,94521
91234,94497
91192,94504
91226,94462
91231,94543
91299,94517
91321,94526
91313,94540
91260,94513
91350,94530
91389,94613
91375,94547
91378,94588
91354,94549
91398,94573
91467,94616
91436,94583
91492,94605
91419,94557
91454,94636
91524,94663
91529,94627
91518,94665
91461,94571
91589,94661
91576,94679
91583,94697
91582,94643
91569,94693
91641,94645
91671,94710
91731,94705
91703,94704
91694,94731
91783,94715
91809,94783
91788,94747
91793,94754
91783,94731
91877,94787
91908,94781
91899,94842
91899,94775
91896,94800
91964,94804
91971,94855
91972,94869
91952,94833
91963,94793
91964,94841
92014,94856
91917,94801
91915,94764
91817,94764
91821,94736
91746,94745
91673,94694
91521,94632
91444,94540
91375,94565
91301,94508
91156,94459
91067,94399
90868,94321
90797,94320
90741,94277
90582,94211
90402,94135
90253,94043
90217,94011
90087,94017
89918,93894
89827,93825
89682,93804
89606,93787
89526,93772
89489,93725
89376,93712
89299,93632
89324,93679
89329,93698
89293,93706
89270,93652
89267,93636
89307,93674
89294,93664
89352,93679
89336,93702
89345,93673
89414,93704
89412,93742
89447,93746
89446,93728
89507,93757
89490,93752
89571,93768
89563,93815
89571,93781
89623,93802
89696,93875
89705,93828
89760,93877
89736,93843
89727,93854
89785,93883
89878,93930
89844,93887
89847,93902
89842,93896
89905,93952
89975,93996
89989,93954
89950,93984
89981,93943
90063,94024
90079,94005
90113,94012
90119,94019
90081,94053
90185,94065
90260,94047
90197,94083
90234,94048
90228,94081
90306,94084
90335,94146
90322,94106
90254,94076
90262,94111
90313,94099
90384,94157
90297,94123
90277,94086
90313,94104
90339,94102
90349,94146
90307,94097
90298,94103
90288,94076
90298,94120
90331,94157
90291,94099
90282,94091
90254,94067
90313,94098
90304,94165
90304,94076
90259,94065
90260,94104
90310,94088
90339,94144
90304,94083
90321,94091
90292,94118
90350,94153
90390,94134
90411,94140
90393,94119
90390,94171
90459,94159
90487,94219
90479,94176
90465,94167
90542,94219
90590,94252
90603,94295
90675,94264
90622,94271
90692,94250
90765,94319
90775,94314
90833,94338
90759,94353
90849,94338
90872,94376
90920,94394
90935,94383
90928,94378
90951,94395
91058,94455
91047,94474
91023,94431
91040,94427
91066,94433
91171,94474
91149,94507
91147,94496
91133,94454
91218,94510
91250,94525
91233,94522
91296,94537
91208,94542
91310,94535
91330,94579
91294,94583
91337,94541
91318,94536
91324,94547
91365,94574
91360,94575
91387,94563
91354,94569
91402,94566
91402,94597
91454,94631
91424,94627
91383,94534
91475,94647
91502,94621
91526,94629
91506,94647
91503,94619
91542,94671
91587,94695
91591,94694
91587,94672
91531,94626
91601,94688
91640,94720
91628,94699
91628,94689
91563,94655
91651,94705
91688,94723
91651,94717
91640,94706
91628,94678
91680,94722
91731,94746
91731,94750
91737,94758
91686,94713
91772,94759
91823,94781
91812,94775
91831,94756
91778,94758
91847,94801
91851,94798
91857,94786
91828,94751
91778,94743
91757,94732
91760,94734
91685,94710
91572,94636
91474,94565
91413,94579
91344,94552
91243,94499
91104,94407
90995,94387
90919,94300
90830,94311
90681,94280
90540,94149
90412,94104
90353,94083
90230,94056
90062,93959
89976,93919
89740,93863
89693,93820
89570,93780
89480,93727
89318,93631
89164,93591
89189,93624
89093,93590
89010,93562
88875,93488
88846,93447
88860,93478
88906,93470
88832,93446
88824,93464
88795,93394
88831,93494
88868,93490
88894,93477
88832,93467
88837,93488
88940,93502
88938,93515
88972,93511
88959,93502
88934,93499
88987,93505
89022,93532
89004,93524
88977,93506
89009,93536
89044,93555
89069,93558
89060,93524
89066,93545
89030,93535
89099,93590
89119,93608
89123,93552
89102,93567
89071,93579
89170,93588
89157,93603
89130,93591
89120,93564
89121,93593
89192,93601
89164,93587
89104,93597
89088,93569
89090,93543
89077,93565
89082,93591
89016,93540
88998,93505
88974,93483
89021,93582
89073,93559
89025,93545
89004,93536
88921,93528
88944,93507
88915,93522
88838,93476
88760,93402
88709,93434
88655,93389
88580,93400
88495,93331
88428,93308
88349,93237
88364,93283
88296,93288
88220,93215
88154,93164
88084,93163
88090,93187
88095,93149
88106,93182
88054,93121
88033,93138
88110,93178
88107,93153
88104,93152
88081,93162
88097,93180
88175,93163
88173,93189
88167,93159
88124,93172
88136,93165
88202,93207
88249,93213
88205,93199
88192,93201
88246,93197
88286,93271
88315,93256
88343,93262
88373,93268
88385,93297
88448,93327
88526,93354
88573,93366
88556,93356
88613,93371
88649,93412
88772,93430
88736,93475
88749,93414
88811,93477
88884,93524
88846,93517
88897,93500
88881,93506
88919,93529
88997,93567
88981,93567
88992,93593
88965,93526
89071,93606
89116,93655
89123,93622
89149,93648
89082,93615
89167,93621
89218,93640
89257,93704
89228,93661
89243,93648
89251,93649
89317,93713
89291,93727
89275,93673
89271,93670
89268,93718
89296,93703
89334,93698
89252,93727
89264,93677
89253,93684
89326,93734
89253,93678
89293,93725
89226,93663
89301,93718
89351,93734
89360,93710
89385,93743
89315,93717
89398,93747
89432,93803
89476,93790
89476,93787
89467,93736
89556,93836
89570,93815
89598,93820
89610,93872
89553,93807
89669,93869
89707,93891
89673,93882
89623,93878
89600,93828
89615,93831
89633,93814
89525,93823
89463,93739
89312,93696
89276,93664
89191,93662
89032,93534
88938,93518
88702,93393
88602,93353
88499,93300
88285,93246
88124,93131
87893,93029
87769,92977
87638,92946
87469,92850
87304,92792
87093,92655
87092,92647
86980,92637
86869,92571
86772,92526
86743,92465
86705,92487
86721,92475
86691,92485
86659,92440
86659,92445
86712,92461
86772,92529
86736,92472
86763,92501
86743,92477
86816,92530
86870,92572
86901,92521
86969,92588
86885,92564
87010,92615
87048,92642
87023,92638
87052,92610
87087,92630
87100,92645
87149,92664
87164,92691
87168,92658
87204,92696
87241,92693
87323,92755
87288,92755
87321,92766
87302,92750
87415,92786
87431,92827
87492,92835
87496,92848
87510,92819
87588,92899
87680,92932
87691,92925
87702,92926
87745,92924
87831,93000
87934,93040
87908,93074
87953,93028
87958,93085
88017,93109
88065,93097
88075,93139
88091,93083
88069,93118
88149,93126
88131,93156
88156,93110
88160,93123
88136,93144
88240,93143
88229,93190
88229,93191
88250,93167
88201,93177
88340,93220
88324,93221
88360,93219
88334,93226
88393,93212
88423,93261
88461,93246
88415,93273
88410,93242
88375,93294
88450,93290
88462,93296
88431,93264
88411,93253
88375,93253
88484,93311
88458,93308
88475,93269
88455,93313
88433,93262
88539,93328
88548,93337
88583,93341
88563,93332
88605,93331
88723,93421
88763,93409
88791,93436
88816,93441
88862,93462
88956,93518
89002,93515
89029,93566
89052,93565
89135,93581
89179,93612
89252,93627
89286,93677
89269,93634
89326,93673
89390,93732
89408,93733
89462,93714
89440,93754
89506,93712
89554,93764
89619,93810
89637,93834
89619,93814
89726,93815
89778,93908
89822,93913
89882,93921
89858,93887
89927,93908
90034,94004
90040,93986
90078,94025
90084,94006
90121,94031
90220,94072
90262,94118
90248,94089
90237,94080
90341,94132
90394,94146
90420,94156
90431,94192
90453,94140
90500,94186
90502,94218
90547,94196
90579,94256
90544,94174
90605,94239
90651,94220
90669,94259
90702,94249
90631,94253
90725,94243
90729,94297
90777,94301
90736,94330
90716,94261
90828,94325
90821,94370
90847,94325
90840,94324
90800,94305
90879,94345
90879,94320
90917,94356
90872,94367
90804,94331
90870,94336
90841,94376
90782,94293
90761,94291
90637,94198
90598,94186
90518,94155
90398,94127
90320,94058
90138,93952
90085,93958
89997,93917
89812,93855
89704,93787
89506,93661
89418,93673
89306,93608
89138,93551
89012,93459
88800,93405
88667,93331
88603,93326
88445,93255
88244,93194
88100,93105
88005,93103
87981,93041
87907,93047
87825,92993
87724,92942
87763,92944
87743,92943
87778,92937
87790,92985
87764,92918
87889,92981
87929,93033
87929,93034
87997,93021
87949,93067
88040,93068
88118,93141
88145,93081
88169,93130
88154,93093
88263,93148
88313,93187
88297,93173
88298,93199
88297,93134
88403,93249
88406,93221
88440,93254
88459,93245
88421,93224
88537,93254
88526,93335
88562,93267
88583,93291
88595,93282
88677,93364
88717,93374
88717,93387
88777,93407
88788,93390
88914,93462
88937,93498
88972,93488
89004,93488
89011,93486
89079,93529
89186,93589
89178,93586
89221,93593
89219,93595
89288,93632
89356,93644
89329,93631
89329,93647
89331,93624
89436,93688
89482,93694
89444,93703
89460,93701
89459,93670
89511,93727
89537,93715
89535,93735
89529,93745
89546,93713
89615,93781
89638,93775
89618,93755
89629,93774
89593,93725
89656,93797
89676,93788
89641,93793
89644,93748
89604,93751
89684,93774
89685,93803
89642,93783
89617,93807
89608,93742
89706,93801
89715,93817
89688,93789
89681,93796
89634,93781
89773,93834
89731,93844
89740,93830
89769,93837
89773,93837
89833,93874
89887,93877
89913,93911
89880,93865
89936,93885
89992,93960
90021,93940
90085,93955
90045,93957
90081,93976
90150,94032
90221,94019
90237,94046
90201,93998
90253,94036
90299,94081
90341,94085
90372,94084
90339,94087
90388,94093
90462,94119
90501,94149
90478,94177
90485,94125
90499,94150
90568,94202
90600,94201
90637,94228
90592,94177
90665,94224
90725,94282
90751,94266
90763,94273
90745,94231
90804,94261
90851,94295
90921,94330
90888,94367
90894,94301
90909,94336
90989,94365
91006,94385
91015,94361
90983,94370
91048,94379
91094,94422
91117,94440
91147,94444
91104,94370
91166,94405
91192,94471
91218,94502
91252,94480
91205,94470
91234,94461
91297,94537
91291,94489
91317,94504
91293,94497
91343,94483
91374,94579
91376,94529
91420,94563
91361,94515
91418,94523
91452,94616
91469,94575
91513,94590
91455,94529
91506,94584
91538,94615
91570,94646
91596,94610
91505,94602
91567,94608
91620,94668
91619,94647
91625,94665
91572,94596
91659,94639
91680,94663
91702,94675
91726,94656
91640,94667
91658,94628
91753,94700
91694,94662
91680,94655
91633,94611
91576,94616
91596,94599
91501,94567
91461,94541
91347,94444
91286,94453
91252,94418
91151,94381
90997,94322
90913,94229
90868,94266
90733,94176
90661,94177
90511,94125
90396,94005
90373,94018
90272,93980
90150,93970
90073,93884
89858,93805
89876,93773
89780,93791
89674,93724
89596,93717
89461,93587
89474,93647
89391,93595
89322,93582
89287,93569
89191,93515
89226,93554
89229,93558
89244,93574
89233,93560
89155,93505
89269,93608
89271,93563
89317,93600
89293,93600
89301,93590
89367,93627
89368,93649
89411,93623
89381,93659
89375,93575
89476,93666
89521,93717
89476,93662
89501,93635
89469,93670
89498,93652
89564,93709
89572,93697
89560,93712
89570,93699
89661,93720
89669,93769
89687,93762
89724,93725
89727,93750
89810,93806
89850,93828
89896,93812
89903,93830
89907,93838
89960,93875
90007,93912
90016,93875
90049,93925
90001,93895
90085,93924
90155,93936
90112,93980
90112,93904
90103,93941
90196,93956
90229,93944
90215,93970
90210,93952
90136,93929
90248,93985
90263,93995
90247,93989
90231,93943
90221,93973
90275,94004
90320,93992
90266,93976
90274,93965
90240,93940
90302,94024
90343,93994
90300,94006
90285,93984
90270,93971
90299,94001
90381,94006
90339,94050
90355,93985
90339,94008
90413,94066
90409,94053
90418,94053
90450,94085
90449,94074
90551,94106
90568,94143
90568,94104
90621,94141
90582,94116
90701,94158
90726,94204
90694,94190
90766,94191
90745,94199
90843,94210
90843,94268
90871,94254
90832,94213
90881,94252
90923,94273
91008,94315
90973,94333
90995,94281
91009,94299
91109,94360
91120,94404
91097,94327
91109,94367
91145,94380
91223,94387
91271,94435
91273,94423
91241,94413
91323,94409
91377,94468
91400,94497
91426,94483
91369,94455
91448,94475
91456,94570
91485,94545
91510,94536
91498,94513
91523,94542
91542,94543
91609,94599
91561,94571
91567,94538
91615,94598
91636,94585
91668,94625
91647,94588
91670,94567
91694,94606
91708,94609
91755,94660
91762,94616
91708,94630
91735,94618
91819,94680
91831,94655
91790,94648
91799,94654
91788,94645
91851,94697
91866,94687
91901,94698
91853,94632
91927,94710
91925,94710
91951,94722
91995,94740
91928,94673
91994,94715
92013,94779
92066,94771
92056,94756
91992,94750
92056,94746
92112,94819
92071,94805
92090,94766
92076,94762
92097,94790
92124,94847
92152,94790
92178,94832
92081,94775
92164,94802
92214,94837
92193,94807
92227,94828
92153,94788
92223,94839
92271,94844
92281,94864
92291,94849
92239,94864
92303,94840
92387,94931
92366,94895
92319,94872
92289,94852
92366,94916
92348,94870
92306,94872
92228,94816
92163,94789
92118,94744
92096,94725
92021,94728
91883,94632
91794,94587
91721,94602
91651,94544
91583,94494
91503,94472
91359,94356
91335,94380
91281,94377
91227,94320
91089,94295
91013,94190
91005,94244
90950,94226
90871,94172
90837,94183
90740,94119
90777,94126
90738,94139
90668,94116
90661,94068
90585,94068
90565,94060
90642,94073
90543,94077
90503,94040
90452,93997
90509,94023
90492,94071
90492,94002
90479,94029
90422,94016
90459,94027
90516,94057
90445,94068
90487,94007
90419,94014
90491,94037
90569,94061
90564,94086
90539,94051
90531,94051
90609,94077
90655,94148
90606,94097
90654,94128
90600,94062
90713,94131
90706,94132
90736,94150
90688,94156
90701,94106
90800,94201
90826,94155
90823,94198
90854,94199
90804,94182
90944,94225
90977,94269
90984,94241
90994,94263
90999,94232
91045,94278
91116,94313
91091,94291
91103,94261
91083,94308
91150,94321
91188,94339
91165,94334
91142,94296
91136,94321
91204,94321
91199,94321
91184,94332
91177,94309
91113,94271
91207,94321
91206,94322
91193,94314
91162,94306
91133,94301
91187,94313
91219,94377
91201,94323
91164,94320
91182,94312
91251,94337
91260,94359
91231,94357
91206,94325
91212,94331
91271,94361
91306,94402
91327,94375
91292,94342
91284,94375
91332,94403
91378,94420
91351,94374
91340,94382
91357,94382
91396,94425
91445,94452
91423,94430
91426,94407
91411,94419
91508,94469
91542,94468
91545,94476
91544,94484
91526,94493
91674,94508
91651,94524
91664,94532
91672,94517
91676,94517
91749,94576
91757,94584
91730,94617
91740,94543
91748,94566
91820,94619
91885,94606
91874,94619
91810,94569
91870,94608
91948,94625
91949,94686
91916,94648
91958,94643
91984,94651
92041,94693
92061,94711
92049,94704
92055,94659
92091,94709
92134,94730
92185,94755
92156,94747
92184,94731
92197,94731
92233,94773
92283,94779
92243,94772
92268,94780
92295,94755
92350,94854
92358,94813
92363,94845
92336,94802
92373,94836
92389,94870
92439,94878
92408,94860
92388,94835
92442,94856
92453,94890
92475,94895
92448,94883
92462,94896
92483,94870
92562,94902
92531,94924
92550,94895
92525,94886
92531,94903
92651,94954
92638,94979
92603,94934
92563,94890
92631,94932
92700,94999
92706,94954
92673,94956
92692,94952
92691,94944
92774,95000
92737,95008
92750,94984
92716,94978
92771,95003
92814,95046
92839,94996
92834,95042
92775,94964
92860,95052
92870,95054
92894,95057
92891,95044
92841,95029
92943,95080
92945,95085
92949,95102
92949,95095
92921,95081
92983,95101
93029,95098
93008,95128
93023,95079
92994,95124
93012,95141
93102,95176
93085,95123
93110,95155
93075,95118
93160,95172
93160,95195
93184,95161
93210,95176
93166,95162
93215,95183
93235,95225
93204,95173
93193,95167
93100,95110
93122,95119
93120,95136
93014,95080
92984,95053
92833,94973
92847,94967
92784,94955
92699,94941
92621,94885
92494,94804
92486,94828
92386,94795
92349,94761
92248,94696
92126,94648
92119,94640
92106,94665
92002,94585
91922,94565
91884,94530
91876,94583
91869,94513
91813,94547
91738,94483
91672,94473
91744,94502
91768,94498
91737,94498
91722,94460
91640,94445
91764,94483
91730,94535
91725,94489
91748,94461
91676,94465
91757,94479
91813,94547
91790,94504
91762,94523
91753,94470
91803,94564
91811,94514
91799,94508
91804,94518
91792,94491
91827,94563
91844,94528
91835,94561
91794,94511
91794,94482
91832,94540
91850,94519
91816,94536
91814,94490
91789,94476
91875,94536
91933,94575
91879,94577
91885,94515
91868,94553
91962,94580
91938,94605
91966,94594
91910,94589
91948,94569
91988,94602
92004,94612
91982,94613
91969,94605
91956,94553
92001,94634
92038,94592
91986,94587
91962,94596
91936,94543
91981,94599
92014,94599
91963,94600
91965,94552
91888,94567
91919,94518
91956,94590
91879,94518
91848,94507
91800,94500
91855,94501
91783,94498
91756,94496
91723,94410
91686,94454
91708,94444
91740,94437
91687,94444
91636,94366
91619,94412
91654,94410
91673,94425
91653,94404
91621,94375
91616,94408
91678,94425
91671,94421
91684,94447
91605,94404
91654,94377
91672,94426
91672,94403
91679,94432
91619,94416
91621,94420
91669,94388
91711,94465
91669,94418
91681,94426
91694,94406
91749,94461
91778,94454
91792,94463
91725,94489
91803,94470
91849,94497
91879,94518
91896,94504
91853,94506
91887,94490
91962,94541
91967,94583
91993,94571
92015,94538
91993,94565
92067,94631
92099,94602
92113,94609
92091,94611
92083,94597
92187,94618
92149,94669
92181,94636
92196,94632
92190,94684
92250,94627
92307,94717
92281,94688
92280,94683
92305,94693
92392,94751
92433,94739
92405,94744
92347,94676
92428,94742
92494,94772
92464,94790
92478,94793
92465,94705
92489,94796
92521,94785
92572,94780
92546,94810
92480,94799
92539,94765
92634,94834
92591,94807
92589,94821
92527,94804
92611,94801
92639,94854
92645,94857
92638,94832
92602,94806
92656,94843
92696,94853
92689,94859
92661,94840
92673,94847
92693,94853
92731,94887
92739,94875
92734,94893
92726,94876
92723,94888
92809,94909
92816,94927
92838,94914
92760,94874
92816,94909
92859,94935
92910,94934
92864,94944
92861,94911
92948,94959
92933,94994
92984,94967
92956,94985
92930,94936
93007,94982
93081,95039
93057,94992
93082,95009
93042,95007
93086,95069
93158,95067
93130,95054
93153,95077
93092,95071
93155,95040
93246,95120
93213,95061
93206,95094
93136,95050
93252,95103
93267,95108
93267,95141
93286,95110
93248,95123
93343,95116
93395,95192
93438,95194
93404,95183
93378,95122
93480,95226
93466,95196
93481,95215
93512,95238
93502,95223
93526,95256
93613,95269
93566,95250
93588,95254
93536,95242
93637,95261
93673,95327
93671,95272
93638,95294
93558,95223
93605,95250
93615,95290
93547,95230
93516,95164
93400,95179
93407,95158
93401,95134
93299,95114
93233,95026
93121,95020
93096,95011
93071,94976
92965,94956
92836,94885
92813,94877
92792,94869
92786,94823
92679,94802
92582,94769
92521,94723
92505,94734
92503,94685
92404,94688
92378,94695
92292,94617
92337,94652
92318,94676
92301,94648
92237,94601
92231,94599
92219,94642
92294,94623
92263,94605
92230,94620
92209,94615
92293,94670
92314,94655
92304,94648
92297,94662
92277,94682
92335,94668
92383,94690
92338,94670
92371,94687
92331,94652
92450,94716
92424,94732
92446,94730
92413,94713
92392,94704
92480,94727
92516,94774
92477,94746
92514,94732
92489,94731
92554,94799
92546,94765
92596,94781
92545,94798
92542,94797
92618,94789
92670,94834
92631,94859
92608,94768
92666,94833
92702,94844
92756,94858
92722,94866
92683,94821
92747,94825
92811,94910
92830,94872
92794,94882
92794,94863
92778,94854
92853,94930
92868,94937
92863,94903
92823,94873
92857,94883
92902,94927
92918,94939
92905,94927
92857,94910
92855,94914
92898,94905
92934,94953
92892,94933
92886,94933
92868,94892
92927,94909
92940,94968
92906,94938
92907,94938
92897,94920
92962,94939
92976,94971
92950,94961
92923,94939
92952,94922
93022,94978
93002,94996
93008,94990
93011,94974
93003,94952
93113,95019
93081,95038
93069,95012
93066,94989
93131,95028
93143,95067
93180,95035
93170,95051
93147,94999
93170,95076
93203,95088
93282,95117
93243,95096
93216,95075
93243,95064
93330,95103
93336,95155
93318,95139
93325,95093
93342,95121
93443,95160
93437,95214
93409,95172
93454,95184
93463,95187
93524,95194
93543,95255
93542,95231
93569,95238
93579,95229
93663,95274
93645,95294
93695,95275
93669,95269
93698,95288
93754,95290
93752,95362
93741,95355
93731,95342
93806,95352
93829,95383
93854,95391
93865,95391
93824,95329
93893,95345
93941,95433
93929,95424
93927,95378
93901,95413
93956,95396
93985,95464
93985,95488
93985,95422
94014,95429
94020,95442
94057,95516
94088,95450
94077,95480
94025,95425
94095,95493
94149,95509
94155,95490
94130,95477
94111,95468
94165,95542
94221,95532
94214,95555
94196,95527
94156,95525
94234,95500
94297,95573
94264,95516
94291,95560
94228,95559
94312,95566
94365,95619
94349,95564
94342,95596
94292,95585
94352,95611
94409,95639
94361,95617
94364,95631
94355,95590
94384,95633
94425,95651
94440,95647
94425,95635
94415,95641
94462,95634
94494,95659
94502,95667
94494,95652
94461,95667
94530,95669
94598,95709
94533,95720
94554,95679
94536,95679
94627,95740
94618,95741
94680,95738
94608,95729
94597,95705
94684,95760
94694,95747
94677,95769
94698,95718
94684,95752
94732,95760
94743,95781
94734,95768
94680,95740
94651,95744
94703,95715
94702,95761
94610,95738
94551,95685
94467,95606
94508,95672
94420,95615
94374,95570
94304,95540
94191,95504
94200,95488
94164,95493
94057,95435
93991,95382
93865,95346
93873,95346
93845,95333
93741,95258
93751,95255
93595,95216
93600,95224
93612,95244
93550,95192
93502,95156
93378,95154
93432,95162
93431,95145
93417,95142
93343,95149
93328,95048
93356,95142
93351,95129
93329,95121
93286,95074
93302,95055
93361,95130
93346,95152
93368,95117
93306,95098
93293,95090
93356,95107
93400,95182
93381,95123
93369,95135
93359,95132
93416,95115
93459,95194
93437,95154
93414,95144
93439,95147
93479,95192
93500,95194
93478,95152
93476,95171
93438,95131
93543,95222
93533,95231
93520,95185
93511,95191
93487,95156
93574,95220
93579,95226
93588,95231
93546,95195
93551,95243
93589,95227
93691,95278
93627,95243
93636,95225
93626,95221
93718,95292
93689,95264
93667,95285
93665,95278
93662,95254
93709,95276
93740,95266
93709,95293
93681,95242
93672,95246
93754,95291
93713,95326
93658,95255
93691,95234
93647,95271
93677,95277
93681,95288
93666,95299
93605,95206
93661,95263
93632,95251
93661,95257
93642,95231
93586,95199
93568,95201
93651,95239
93659,95265
93638,95253
93603,95196
93620,95231
93685,95275
93650,95221
93696,95260
93621,95238
93688,95243
93725,95267
93734,95279
93706,95291
93687,95222
93731,95281
93737,95293
93784,95282
93752,95315
93676,95243
93764,95322
93789,95321
93778,95297
93781,95283
93728,95265
93746,95276
93827,95302
93792,95300
93811,95336
93763,95279
93820,95329
93826,95351
93867,95353
93824,95320
93816,95306
93900,95330
93899,95365
93883,95326
93913,95362
93866,95341
93915,95373
93901,95378
93960,95381
93917,95385
93881,95309
93967,95353
94001,95412
93984,95417
93950,95386
93954,95325
93971,95397
94012,95401
94035,95435
94021,95404
93989,95368
94035,95381
94135,95463
94073,95400
94067,95449
94033,95407
94078,95409
94152,95453
94099,95474
94110,95409
94055,95424
94120,95433
94162,95474
94105,95421
94148,95457
94067,95430
94139,95442
94114,95471
94161,95462
94123,95474
94077,95405
94132,95435
94178,95493
94145,95478
94179,95481
94097,95451
94176,95444
94205,95482
94192,95483
94224,95484
94145,95467
94221,95487
94238,95521
94206,95521
94207,95501
94201,95436
94260,95513
94251,95514
94245,95493
94240,95494
94190,95452
94286,95533
94262,95501
94292,95531
94245,95487
94246,95464
94275,95494
94288,95537
94308,95536
94264,95507
94283,95486
94340,95529
94356,95536
94336,95546
94311,95518
94264,95481
94362,95547
94389,95536
94382,95566
94337,95533
94328,95497
94419,95579
94405,95573
94368,95558
94385,95531
94372,95542
94420,95560
94480,95581
94424,95594
94417,95564
94390,95540
94503,95572
94494,95642
94493,95567
94446,95598
94388,95543
94466,95580
94446,95570
94362,95527
94324,95493
94271,95502
94267,95477
94224,95476
94107,95391
94058,95355
93918,95337
93937,95303
93868,95293
93774,95244
93671,95177
93599,95107
93553,95185
93492,95088
93359,95099
93285,94998
93247,94970
93183,94980
93157,94930
93086,94957
93012,94886
92939,94841
92967,94861
92965,94862
92839,94813
92844,94811
92779,94753
92837,94820
92861,94830
92780,94796
92788,94785
92719,94806
92794,94834
92804,94860
92818,94805
92765,94814
92737,94772
92838,94839
92837,94847
92783,94845
92746,94787
92789,94821
92825,94813
92825,94842
92806,94862
92773,94828
92782,94834
92865,94849
92824,94857
92873,94848
92819,94833
92792,94850
92883,94870
92918,94903
92860,94829
92820,94849
92871,94843
92910,94891
92885,94914
92903,94868
92869,94879
92899,94882
92938,94910
92983,94929
92948,94896
92961,94915
92942,94895
93008,94941
93007,94940
92999,94949
92993,94918
92971,94939
93035,94928
93062,94973
93020,94916
92960,94915
92996,94900
93019,94950
92993,94933
93008,94933
92911,94895
92935,94883
92973,94937
92978,94917
92933,94899
92886,94877
92909,94878
92962,94905
92941,94908
92929,94890
92882,94867
92910,94899
92977,94923
92970,94912
92965,94908
92926,94896
92958,94907
93005,94935
92995,94933
92995,94932
92946,94900
93039,94915
93047,94948
93037,94941
93045,94948
92965,94901
93054,94919
93088,95001
93064,94954
93119,94979
93046,94952
93093,94979
93172,95001
93215,95049
93218,95008
93192,95006
93255,95016
93300,95089
93291,95028
93281,95108
93269,95036
93336,95093
93405,95133
93372,95144
93410,95116
93396,95094
93441,95151
93515,95190
93519,95178
93500,95177
93489,95149
93526,95186
93590,95219
93591,95236
93604,95207
93536,95172
93626,95217
93661,95243
93668,95246
93659,95247
93632,95231
93722,95273
93770,95288
93751,95301
93755,95289
93745,95276
93811,95303
93865,95347
93852,95311
93884,95350
93816,95293
93880,95332
93953,95378
93922,95367
93910,95363
93891,95339
93975,95364
94006,95406
93982,95403
94010,95394
93968,95368
94035,95398
94074,95431
94042,95428
94086,95424
94051,95426
94121,95459
94159,95471
94129,95453
94151,95430
94108,95425
94180,95477
94225,95495
94235,95520
94233,95502
94153,95444
94244,95508
94283,95556
94287,95530
94256,95502
94218,95496
94302,95530
94323,95589
94315,95528
94265,95516
94295,95522
94357,95548
94370,95583
94403,95589
94346,95551
94340,95546
94424,95620
94416,95609
94438,95611
94433,95591
94410,95592
94512,95625
94563,95667
94511,95648
94503,95647
94522,95619
94549,95713
94623,95709
94640,95681
94598,95692
94586,95679
94681,95710
94672,95737
94628,95725
94639,95681
94589,95699
94622,95687
94622,95724
94539,95680
94472,95579
94415,95580
94391,95561
94354,95583
94231,95522
94148,95436
94071,95395
94048,95414
93975,95390
93887,95345
93800,95275
93715,95284
93709,95245
93659,95247
93564,95195
93477,95146
93432,95140
93419,95128
93414,95133
93337,95105
93252,95065
93246,95028
93209,95089
93239,95069
93197,95041
93125,95043
93090,94975
93121,95001
93128,95031
93096,95048
93067,94981
93065,94987
93154,95035
93139,95045
93143,95021
93116,95022
93083,95021
93212,95095
93201,95083
93196,95092
93119,95061
93215,95035
93236,95111
93290,95112
93273,95114
93259,95056
93249,95129
93326,95135
93326,95135
93323,95135
93303,95106
93308,95124
93357,95149
93380,95181
93364,95143
93330,95124
93352,95136
93406,95185
93405,95195
93402,95185
93397,95128
93407,95184
93489,95206
93454,95228
93473,95212
93415,95180
93487,95201
93509,95225
93517,95232
93493,95220
93456,95175
93508,95227
93519,95244
93520,95246
93469,95213
93438,95183
93484,95188
93484,95206
93517,95209
93471,95202
93428,95151
93450,95168
93492,95207
93511,95227
93476,95191
93428,95168
93452,95196
93496,95213
93461,95201
93455,95204
93406,95145
93476,95203
93493,95221
93468,95216
93451,95190
93399,95182
93458,95176
93503,95233
93469,95216
93476,95199
93406,95169
93475,95222
93500,95215
93514,95249
93504,95229
93446,95179
93515,95227
93533,95257
93550,95251
93533,95236
93496,95218
93543,95257
93578,95274
93618,95286
93617,95285
93545,95236
93639,95314
93696,95329
93672,95318
93685,95312
93653,95285
93734,95350
93793,95385
93728,95360
93770,95340
93739,95319
93804,95358
93857,95380
93829,95379
93819,95406
93792,95364
93858,95379
93923,95411
93887,95402
93870,95403
93850,95375
93921,95408
93955,95435
93954,95405
93960,95436
93912,95415
93987,95447
93995,95478
94003,95459
94018,95458
94007,95450
94066,95479
94071,95501
94076,95477
94088,95465
94047,95462
94092,95508
94164,95535
94121,95511
94144,95514
94089,95468
94161,95528
94169,95543
94168,95540
94160,95531
94126,95511
94198,95527
94216,95555
94201,95532
94174,95521
94176,95526
94223,95546
94245,95569
94240,95560
94215,95528
94205,95525
94256,95549
94300,95586
94235,95555
94250,95595
94233,95542
94278,95608
94311,95606
94305,95587
94272,95593
94211,95562
94319,95598
94317,95605
94326,95612
94284,95585
94281,95540
94317,95633
94337,95622
94349,95623
94323,95585
94330,95600
94378,95632
94404,95644
94404,95602
94413,95642
94377,95607
94474,95655
94471,95680
94467,95635
94415,95662
94442,95643
94477,95619
94482,95677
94447,95660
94446,95627
94363,95641
94361,95596
94364,95630
94252,95559
94197,95531
94123,95464
94088,95507
94040,95462
93894,95400
93819,95330
93741,95345
93718,95268
93651,95293
93526,95226
93422,95188
93327,95100
93362,95168
93241,95126
93198,95058
93065,95024
93001,94997
93020,95000
92957,94985
92868,94941
92815,94915
92779,94892
92752,94874
92795,94910
92712,94877
92701,94870
92710,94851
92708,94890
92702,94895
92702,94877
92668,94843
92702,94847
92701,94908
92750,94884
92695,94906
92678,94855
92729,94906
92740,94894
92765,94947
92757,94893
92689,94890
92713,94856
92740,94950
92739,94899
92773,94888
92692,94873
92738,94898
92730,94870
92769,94892
92729,94890
92704,94872
92719,94917
92748,94923
92756,94898
92760,94920
92722,94892
92736,94902
92815,94950
92782,94947
92781,94920
92745,94905
92784,94925
92841,94946
92821,94970
92801,94948
92716,94905
92769,94948
92800,94947
92807,94957
92767,94915
92699,94907
92721,94893
92779,94942
92764,94914
92706,94887
92677,94873
92685,94899
92723,94918
92708,94908
92703,94904
92646,94858
92686,94876
92703,94901
92697,94894
92667,94890
92643,94863
92645,94858
92677,94888
92647,94888
92638,94871
92578,94831
92645,94859
92667,94883
92659,94882
92628,94877
92567,94827
92642,94878
92656,94893
92625,94862
92641,94885
92619,94847
92629,94875
92670,94913
92665,94878
92671,94886
92614,94855
92648,94885
92721,94923
92716,94896
92735,94925
92680,94875
92724,94913
92771,94927
92783,94931
92778,94949
92744,94918
92786,94945
92829,94997
92848,94953
92860,94971
92796,94964
92894,94991
92946,95011
92908,95000
92932,95016
92899,94975
92951,95024
93002,95042
92944,95037
92965,95038
92971,94988
92994,95060
93053,95067
93029,95075
92986,95044
92950,95023
93061,95075
93070,95087
93097,95096
93075,95058
93042,95060
93101,95096
93147,95125
93139,95090
93138,95109
93093,95075
93160,95111
93209,95144
93187,95131
93193,95113
93117,95081
93212,95155
93210,95178
93208,95141
93230,95140
93185,95117
93253,95177
93252,95193
93236,95131
93253,95175
93194,95144
93263,95154
93350,95207
93284,95149
93276,95191
93240,95124
93362,95197
93345,95220
93332,95181
93295,95199
93299,95168
93389,95202
93417,95207
93344,95223
93348,95211
93318,95140
93406,95232
93442,95246
93389,95226
93377,95221
93378,95187
93430,95217
93462,95264
93441,95259
93416,95231
93437,95225
93481,95246
93502,95233
93465,95293
93455,95216
93480,95253
93513,95291
93540,95320
93538,95278
93507,95295
93520,95236
93592,95328
93602,95315
93597,95316
93572,95307
93607,95306
93654,95325
93677,95344
93679,95346
93652,95315
93664,95364
93723,95346
93756,95393
93729,95383
93697,95345
93743,95359
93798,95426
93816,95443
93808,95400
93741,95389
93741,95365
93793,95412
93799,95412
93770,95407
93671,95356
93685,95337
93661,95356
93648,95338
93565,95289
93430,95219
93409,95203
93348,95211
93255,95169
93184,95120
93025,95079
92954,94989
92967,95022
92864,94965
92773,94911
92616,94857
92578,94788
92527,94843
92464,94782
92397,94718
92309,94734
92231,94647
92218,94711
92133,94659
92105,94647
92005,94552
91990,94565
91975,94590
91944,94574
91894,94545
91793,94510
91786,94496
91811,94509
91801,94509
91717,94506
91640,94427
91640,94463
91642,94462
91654,94459
91564,94473
91523,94409
91518,94406
91597,94480
91505,94443
91547,94405
91433,94383
91503,94422
91529,94443
91541,94424
91528,94463
91484,94393
91527,94418
91527,94417
91548,94446
91501,94425
91463,94410
91528,94416
91562,94471
91552,94458
91548,94410
91445,94415
91499,94412
91569,94488
91563,94436
91513,94439
91541,94429
91565,94463
91636,94460
91622,94487
91639,94452
91572,94472
91607,94494
91671,94501
91674,94503
91655,94478
91628,94486
91644,94454
91694,94545
91649,94507
91699,94544
91647,94474
91652,94509
91711,94509
91711,94527
91642,94520
91595,94478
91692,94501
91700,94547
91643,94489
91694,94520
91598,94437
91670,94514
91725,94534
91709,94493
91669,94547
91620,94489
91697,94498
91726,94524
91746,94521
91726,94535
91687,94480
91729,94510
91771,94568
91765,94544
91757,94530
91717,94525
91769,94562
91827,94551
91804,94575
91760,94536
91745,94523
91850,94560
91806,94592
91837,94545
91831,94606
91818,94559
91880,94583
91903,94626
91881,94592
91935,94653
91913,94595
91957,94647
91984,94688
91958,94654
91995,94661
91960,94597
92032,94664
92013,94655
92007,94682
92019,94658
91986,94633
92062,94679
92075,94733
92072,94685
92057,94673
92064,94663
92086,94708
92164,94763
92148,94722
92151,94707
92130,94698
92222,94725
92207,94777
92240,94763
92234,94762
92188,94769
92262,94755
92347,94825
92275,94794
92315,94794
92256,94753
92392,94812
92373,94829
92355,94836
92373,94813
92332,94810
92428,94845
92429,94837
92437,94855
92394,94847
92404,94818
92451,94887
92481,94844
92458,94860
92413,94838
92430,94816
92490,94905
92502,94870
92543,94910
92493,94844
92479,94839
92567,94908
92543,94902
92568,94891
92531,94892
92546,94883
92624,94924
92612,94948
92572,94923
92585,94930
92574,94895
92672,94944
92655,94958
92674,94969
92640,94918
92641,94929
92729,94978
92699,95005
92703,94954
92718,94984
92713,94998
92800,95021
92778,94999
92816,95011
92749,95014
92761,95007
92862,95053
92820,95042
92818,95011
92807,95033
92815,95043
92872,95043
92902,95069
92884,95064
92852,95028
92886,95046
92912,95069
92939,95084
92910,95071
92905,95061
92944,95072
92994,95108
93023,95126
93005,95131
92988,95104
93005,95124
93066,95154
93121,95170
93090,95160
93054,95101
93089,95143
93119,95164
93169,95209
93149,95181
93121,95156
93131,95184
93155,95190
93208,95186
93180,95216
93148,95184
93197,95169
93194,95228
93261,95215
93234,95241
93232,95179
93233,95235
93316,95270
93286,95248
93358,95235
93266,95243
93328,95263
93420,95312
93403,95277
93375,95261
93369,95292
93409,95279
93483,95310
93456,95345
93450,95295
93351,95304
93408,95284
93442,95271
93347,95293
93313,95239
93161,95168
93158,95154
93086,95147
93016,95087
92919,95072
92762,94941
92722,94941
92672,94945
92573,94914
92428,94819
92346,94802
92285,94763
92216,94706
92150,94715
91991,94634
91890,94592
91831,94559
91810,94549
91694,94485
91595,94479
91506,94381
91467,94375
91396,94370
91309,94328
91239,94288
91101,94232
91097,94237
91027,94252
90933,94185
90933,94162
90815,94114
90856,94159
90803,94160
90768,94095
90798,94115
90700,94071
90779,94127
90814,94136
90845,94151
90813,94163
90804,94128
90885,94193
90929,94226
90907,94199
90952,94197
90903,94173
91016,94219
91008,94269
91011,94233
91009,94259
91000,94244
91090,94276
91153,94279
91140,94299
91118,94262
91099,94272
91157,94292
91180,94332
91176,94281
91201,94338
91155,94264
91251,94324
91251,94387
91244,94321
91282,94349
91226,94312
91311,94384
91390,94420
91315,94403
91345,94349
91299,94372
91386,94402
91400,94400
91404,94397
91397,94392
91407,94418
91445,94419
91481,94437
91427,94412
91440,94449
91430,94403
91471,94455
91514,94457
91484,94439
91470,94463
91448,94413
91498,94458
91518,94490
91493,94421
91490,94449
91461,94434
91500,94442
91532,94460
91531,94444
91483,94488
91503,94424
91574,94456
91570,94468
91588,94478
91546,94513
91549,94474
91620,94507
91671,94535
91660,94496
91669,94556
91670,94510
91728,94566
91741,94591
91753,94553
91789,94559
91733,94537
91813,94599
91844,94618
91826,94588
91842,94635
91830,94586
91869,94639
91956,94656
91943,94681
91912,94641
91920,94657
92023,94691
92086,94697
92092,94750
92071,94685
92098,94735
92160,94759
92249,94795
92234,94810
92201,94753
92215,94771
92326,94825
92350,94844
92330,94867
92314,94794
92314,94806
92416,94860
92384,94869
92417,94875
92374,94832
92384,94874
92462,94894
92493,94895
92501,94902
92466,94905
92497,94911
92533,94933
92571,94938
92566,94911
92546,94945
92563,94930
92656,94977
92620,94983
92624,94958
92629,94986
92668,94974
92689,95002
92730,95025
92688,95002
92715,94993
92727,95004
92757,95030
92804,95030
92718,95023
92728,94993
92756,94991
92776,95066
92797,95041
92779,95021
92806,95026
92800,95037
92855,95073
92897,95080
92840,95073
92815,95051
92836,95062
92922,95082
92934,95106
92922,95076
92906,95087
92921,95086
93018,95099
92997,95150
92976,95112
92972,95119
93012,95100
93034,95150
93066,95158
93011,95161
93028,95096
93080,95159
93081,95184
93103,95185
93076,95163
93048,95176
93100,95157
93133,95172
93167,95195
93157,95194
93119,95148
93181,95190
93207,95237
93246,95242
93227,95239
93203,95222
93236,95239
93294,95274
93257,95269
93287,95232
93238,95250
93329,95258
93351,95304
93346,95284
93376,95266
93285,95298
93362,95287
93399,95316
93458,95323
93420,95356
93429,95270
93478,95337
93484,95368
93500,95354
93508,95348
93454,95319
93530,95346
93566,95404
93549,95393
93538,95416
93524,95324
93544,95377
93534,95352
93511,95366
93412,95327
93359,95243
93350,95268
93285,95267
93173,95185
93117,95141
92946,95064
92962,95084
92880,95074
92758,94999
92719,94982
92531,94855
92524,94895
92475,94849
92402,94855
92248,94788
92176,94728
92155,94723
92116,94740
92031,94668
91947,94610
91865,94607
91851,94601
91796,94577
91775,94545
91669,94496
91571,94512
91593,94482
91594,94493
91486,94467
91470,94421
91375,94380
91414,94422
91417,94449
91362,94432
91326,94362
91273,94368
91334,94415
91328,94413
91326,94375
91342,94421
91303,94331
91387,94415
91371,94427
91397,94445
91384,94408
91312,94388
91431,94419
91474,94452
91428,94431
91455,94455
91385,94374
91475,94456
91492,94488
91505,94450
91465,94449
91461,94436
91556,94513
91574,94482
91566,94490
91582,94496
91583,94513
91625,94536
91700,94564
91691,94508
91695,94539
91682,94536
91750,94574
91802,94601
91757,94567
91807,94596
91751,94550
91849,94635
91831,94637
91858,94597
91846,94621
91799,94564
91837,94622
91861,94656
91821,94624
91825,94555
91778,94620
91875,94634
91903,94616
91854,94642
91812,94602
91809,94620
91831,94613
91900,94610
91868,94625
91809,94619
91856,94614
91857,94624
91859,94627
91857,94630
91804,94569
91819,94574
91861,94602
91875,94655
91839,94626
91832,94561
91805,94611
91860,94628
91900,94642
91867,94652
91876,94598
91837,94639
91908,94643
91942,94650
91978,94645
91914,94675
91946,94638
91991,94663
92052,94738
92018,94695
