11111,11111
0,0
82160,82181
107702,114041
107664,114010
107590,113940
107593,114004
107663,113976
107607,113960
107519,113928
107369,113836
107367,113869
107386,113808
107327,113789
107174,113749
107047,113661
106964,113616
107013,113641
106880,113636
106778,113546
106607,113491
106569,113464
106590,113509
106513,113444
106471,113435
106276,113336
106310,113367
106357,113395
106285,113376
106257,113319
106192,113315
106165,113313
106256,113349
106249,113357
106216,113282
106200,113273
106237,113327
106367,113391
106319,113382
106343,113318
106313,113331
106405,113367
106451,113460
106437,113391
106509,113431
106400,113386
106517,113476
106583,113482
106632,113485
106549,113442
106548,113409
106618,113512
106696,113545
106680,113481
106685,113495
106617,113464
106661,113511
106765,113574
106764,113557
106744,113471
106722,113511
106767,113525
106820,113575
106885,113573
106839,113552
106817,113517
106860,113513
106998,113587
106973,113613
106911,113574
106873,113533
106898,113554
107020,113612
106973,113621
106931,113549
106871,113533
106950,113596
106985,113578
106951,113608
106865,113536
106827,113505
106906,113534
106937,113598
106865,113510
106845,113504
106745,113515
106823,113523
106860,113524
106796,113472
106762,113490
106707,113429
106775,113518
106819,113523
106745,113469
106748,113481
106628,113463
106736,113477
106779,113530
106736,113456
106733,113471
106648,113431
106769,113534
106795,113490
106851,113510
106786,113506
106742,113449
106874,113510
106871,113565
106858,113500
106864,113511
106832,113506
106945,113536
106988,113560
106958,113529
106920,113556
106882,113506
107019,113562
107081,113591
107075,113596
107006,113586
106981,113544
107087,113638
107134,113629
107140,113605
107058,113623
107073,113594
107284,113692
107298,113692
107318,113706
107545,113776
107465,113743
107521,113779
106549,113314
106491,113283
106309,113181
106282,113208
105994,113102
106109,113144
106169,113166
106092,113169
106048,113131
106183,113120
106203,113191
106290,113196
106270,113204
106206,113153
106319,113204
106362,113257
106433,113252
106382,113259
106324,113209
106442,113279
106477,113272
106496,113278
106460,113300
106444,113267
106496,113323
106567,113309
106590,113316
106542,113299
106497,113295
106614,113331
106643,113385
106627,113355
106664,113386
106614,113294
106650,113354
106746,113422
106730,113386
106674,113375
106586,113320
106699,113352
106760,113442
106757,113359
106702,113331
106605,113303
106682,113329
106697,113375
106700,113343
106633,113316
106540,113258
106614,113326
106656,113321
106604,113309
106554,113314
106449,113233
106545,113249
106577,113305
106541,113284
106516,113235
106415,113220
106494,113278
106593,113292
106515,113296
106521,113273
106384,113218
106514,113265
106551,113299
106523,113225
106510,113256
106457,113221
106547,113287
106592,113313
106596,113267
106567,113255
106568,113248
106596,113318
106676,113310
106703,113330
106671,113327
106592,113276
106757,113349
106756,113395
106745,113331
106762,113377
106690,113343
106800,113380
106891,113396
106850,113410
106823,113343
106825,113363
106881,113433
106966,113433
106943,113436
106926,113432
106865,113389
106984,113439
107037,113505
107050,113470
106965,113427
106981,113413
107088,113484
107115,113535
107106,113476
107064,113419
107077,113481
107136,113523
107194,113510
107188,113519
107127,113500
107121,113490
107231,113547
107278,113576
107217,113536
107242,113512
107166,113528
107260,113555
107339,113574
107273,113553
107240,113528
107224,113507
107314,113580
107368,113602
107390,113572
107297,113571
107233,113531
107409,113573
107441,113623
107389,113585
107359,113530
107358,113534
107414,113609
107521,113609
107473,113594
107444,113545
107432,113563
107447,113639
107538,113609
107551,113623
107492,113582
107488,113619
107557,113631
107633,113657
107633,113637
107553,113649
107555,113615
107671,113647
107685,113706
107665,113638
107617,113657
107608,113630
107725,113706
107784,113735
107707,113702
107630,113655
107655,113655
107758,113756
107801,113711
107781,113712
107694,113694
107689,113678
107830,113759
107826,113749
107800,113737
107761,113713
107757,113710
107851,113743
107916,113776
107846,113749
107799,113753
107792,113754
107930,113792
107958,113797
107904,113824
107852,113725
107846,113757
107951,113790
107923,113814
107846,113737
107780,113717
107695,113679
107733,113685
107739,113673
107650,113625
107465,113548
107505,113537
107456,113596
107455,113566
107389,113517
107247,113462
107193,113448
107281,113494
107241,113480
107151,113446
107085,113352
107041,113387
107110,113449
107102,113388
107024,113388
106945,113318
106931,113362
106998,113410
106964,113345
106949,113323
106823,113286
106885,113314
106908,113348
106893,113345
106869,113281
106789,113285
106827,113270
106876,113317
106929,113342
106807,113304
106773,113247
106843,113305
106915,113290
106907,113352
106823,113299
106792,113256
106832,113278
106902,113338
106848,113311
106882,113298
106778,113229
106860,113284
106926,113332
106917,113312
106879,113273
106783,113285
106882,113322
106941,113377
106951,113314
106946,113328
106870,113303
106949,113350
106989,113364
107033,113328
107003,113382
106952,113294
107029,113374
107093,113407
107084,113376
107015,113373
106953,113324
107015,113358
107051,113375
107082,113380
106996,113338
106957,113309
106984,113363
107007,113355
107026,113326
106966,113307
106898,113262
106910,113313
106952,113381
106912,113294
106896,113264
106781,113214
106841,113288
106858,113265
106870,113284
106775,113276
106717,113201
106752,113232
106839,113311
106790,113281
106699,113229
106626,113223
106701,113248
106748,113305
106704,113251
106699,113228
106606,113225
106662,113256
106773,113256
106693,113229
106705,113244
106605,113194
106709,113252
106803,113276
106779,113265
106706,113245
106663,113243
106752,113277
106815,113287
106800,113290
106775,113259
106746,113259
106800,113284
106849,113295
106857,113294
106795,113284
106739,113282
106832,113304
106863,113348
106881,113328
106850,113287
106801,113276
106888,113310
106923,113362
106888,113342
106939,113306
106837,113318
106921,113317
107031,113405
106965,113360
106970,113325
106927,113309
107025,113396
107091,113381
107064,113369
107030,113322
107039,113352
107055,113412
107176,113420
107113,113410
107075,113369
107042,113350
107153,113417
107219,113461
107157,113397
107153,113389
107117,113338
107173,113423
107261,113456
107225,113452
107193,113368
107159,113391
107237,113437
107285,113471
107264,113417
107217,113438
107215,113399
107293,113423
107369,113479
107288,113466
107279,113445
107244,113406
107311,113444
107386,113496
107337,113469
107321,113435
107282,113433
107344,113475
107422,113478
107340,113465
107338,113454
107264,113470
107369,113482
107397,113509
107375,113478
107307,113473
107295,113453
107333,113521
107412,113516
107377,113522
107281,113435
107255,113464
107395,113534
107390,113531
107380,113504
107292,113481
107310,113484
107352,113533
107431,113544
107362,113490
107286,113453
107287,113442
107316,113477
107314,113475
107246,113423
107099,113358
107061,113342
107105,113378
107066,113333
106936,113297
106794,113212
106753,113193
106758,113204
106706,113207
106611,113142
106502,113067
106403,113082
106436,113079
106418,113078
106274,113031
106209,112972
106150,112954
106167,112994
106165,112957
106100,112932
105961,112878
105978,112887
106037,112918
106006,112915
105982,112901
105905,112828
105853,112854
105983,112886
106009,112920
105947,112882
105889,112840
105896,112848
106010,112897
106028,112933
105989,112864
105968,112868
105935,112877
106069,112912
106091,112968
106036,112874
106037,112906
106057,112907
106105,112984
106130,112914
106148,112951
106065,112900
106080,112938
106219,112987
106221,112967
106218,112974
106159,112934
106196,112971
106306,113048
106313,113008
106280,112973
106257,113003
106300,113025
106391,113061
106418,113090
106386,113029
106348,112985
106376,113050
106472,113111
106452,113059
106410,113027
106338,112992
106332,113030
106454,113043
106449,113040
106332,113023
106315,112994
106314,112989
106403,113036
106369,112990
106322,113019
106189,112919
106240,112971
106304,112997
106238,112953
106249,112943
106097,112921
106152,112935
106243,112960
106210,112962
106151,112959
106073,112857
106143,112899
106209,112957
106170,112943
106172,112903
106071,112855
106147,112925
106167,112935
106259,112952
106182,112956
106121,112900
106186,112942
106273,113023
106258,112942
106254,112955
106183,112910
106269,112987
106332,113039
106341,113007
106310,112990
106284,112945
106354,112995
106430,113045
106405,113054
106394,113020
106336,113019
106382,112999
106530,113107
106519,113054
106449,113027
106415,113023
106499,113076
106609,113093
106582,113104
106555,113096
106473,113055
106554,113090
106683,113131
106639,113157
106586,113106
106554,113073
106661,113112
106726,113190
106692,113146
106690,113103
106622,113120
106721,113166
106788,113164
106752,113146
106756,113144
106664,113144
106788,113165
106854,113214
106821,113208
106857,113147
106728,113155
106849,113172
106903,113249
106883,113201
106844,113194
106799,113167
106900,113219
106913,113231
106947,113208
106885,113210
106846,113157
106952,113212
107013,113247
106945,113246
106922,113192
106887,113216
106954,113244
107002,113318
106954,113236
106988,113213
106884,113214
106967,113263
107038,113298
106998,113246
106975,113251
106900,113202
107037,113266
107035,113294
107030,113247
106980,113266
106912,113242
107044,113283
107072,113304
107025,113260
107016,113250
106998,113236
107075,113300
107118,113285
107094,113292
107031,113247
107020,113245
107095,113268
107150,113283
107099,113201
106983,113199
106886,113144
106929,113167
106916,113183
106783,113085
106664,113002
106495,112990
106515,112961
106493,112931
106329,112862
106220,112835
106053,112762
106025,112781
106017,112775
105860,112701
105728,112620
105626,112593
105629,112627
105582,112567
105513,112550
105431,112512
105334,112465
105389,112524
105394,112530
105360,112487
105316,112445
105250,112447
105333,112505
105372,112536
105342,112496
105331,112479
105319,112494
105372,112538
105439,112589
105418,112538
105430,112514
105415,112518
105524,112596
105558,112606
105593,112603
105526,112578
105541,112581
105655,112652
105719,112651
105696,112653
105583,112605
105652,112602
105754,112693
105789,112670
105778,112691
105708,112666
105722,112644
105818,112732
105889,112724
105852,112727
105797,112655
105784,112688
105896,112727
105981,112778
105893,112749
105875,112696
105846,112712
106000,112778
106027,112802
106006,112756
105871,112710
105954,112735
105984,112785
106036,112760
105977,112791
105904,112714
105894,112746
105932,112769
105948,112797
105892,112721
105814,112675
105805,112723
105830,112684
105883,112732
105819,112689
105729,112630
105689,112640
105777,112674
105753,112654
105731,112620
105657,112576
105652,112610
105679,112646
105720,112635
105659,112629
105595,112544
105587,112575
105703,112669
105674,112593
105659,112577
105627,112600
105631,112584
105738,112664
105736,112663
105749,112644
105631,112619
105719,112628
105820,112703
105822,112731
105784,112662
105751,112639
105824,112672
105874,112736
105961,112738
105901,112681
105860,112654
105893,112737
105988,112758
106042,112788
106005,112761
105939,112708
106016,112761
106131,112770
106154,112824
106082,112796
106039,112756
106102,112784
106224,112851
106259,112838
106218,112860
106098,112774
106222,112848
106274,112838
106311,112875
106267,112829
106220,112856
106250,112862
106365,112915
106369,112892
106347,112883
106311,112853
106348,112903
106451,112951
106447,112920
106397,112920
106358,112898
106442,112928
106507,112985
106483,112939
106508,112932
106415,112908
106493,112970
106561,112977
106564,112995
106506,112990
106451,112899
106530,112958
106614,112982
106581,112994
106540,112969
106519,112946
106550,112976
106636,113026
106611,112981
106611,112978
106508,112970
106625,112984
106655,113034
106663,113034
106609,112988
106587,112955
106645,113009
106746,113056
106697,113017
106659,112986
106635,112961
106713,113025
106781,113021
106776,113040
106741,113024
106653,112956
106784,113017
106853,113074
106814,113010
106824,113014
106717,112985
106840,113045
106936,113070
106902,113074
106867,113005
106846,113069
106916,113060
106977,113095
107021,113090
106961,113078
106913,113057
106985,113128
107034,113116
106995,113069
106916,113025
106801,112971
106804,112961
106787,113008
106676,112893
106571,112847
106366,112762
106368,112750
106305,112774
106207,112659
106044,112617
105863,112568
105863,112548
105845,112527
105721,112487
105588,112450
105505,112369
105496,112391
105491,112400
105371,112329
105325,112292
105259,112285
105290,112314
105328,112333
105292,112299
105234,112267
105220,112241
105300,112301
105374,112371
105343,112332
105318,112311
105328,112300
105415,112359
105480,112388
105513,112391
105454,112376
105437,112364
105571,112427
105653,112451
105615,112463
105608,112474
105630,112473
105716,112487
105828,112507
105760,112524
105736,112488
105751,112508
105870,112527
105925,112589
105894,112530
105863,112544
105835,112508
105967,112590
105971,112631
105981,112615
105952,112585
105915,112571
106070,112617
106083,112652
106060,112625
106075,112582
106024,112627
106102,112639
106197,112704
106133,112638
106119,112631
106103,112602
106135,112668
106185,112694
106132,112649
106077,112606
106063,112622
106081,112661
106088,112657
106049,112573
106029,112577
105968,112576
106021,112596
106026,112597
106006,112573
105884,112542
105892,112509
105919,112551
105951,112569
105852,112543
105808,112460
105783,112485
105858,112528
105904,112534
105843,112536
105768,112446
105810,112490
105855,112533
105913,112528
105846,112523
105809,112513
105813,112500
105942,112528
105952,112608
105916,112532
105898,112508
105875,112505
106006,112583
106038,112609
105994,112563
105980,112553
105994,112574
106110,112638
106136,112648
106128,112627
106084,112624
106110,112588
106213,112692
106294,112697
106235,112686
106226,112653
106231,112708
106346,112690
106413,112767
106370,112730
106327,112681
106399,112743
106428,112813
106518,112774
106481,112751
106467,112793
106495,112748
106573,112850
106589,112858
106602,112794
106527,112804
106598,112833
106652,112874
106729,112851
106680,112854
106606,112807
106694,112857
106738,112915
106779,112921
106743,112861
106719,112812
106712,112889
106823,112937
106832,112928
106831,112903
106765,112852
106845,112906
106897,112981
106886,112936
106875,112909
106823,112882
106838,112934
106941,112916
106945,112996
106896,112932
106878,112893
106926,112943
107010,112981
107000,112921
107001,112958
106906,112944
106996,112966
107039,112998
107035,112982
107040,112950
106948,112954
106994,112955
107077,112993
107121,112983
107058,112993
107017,112989
107055,112969
107127,113041
107192,112978
107164,113013
107041,112962
107153,112994
107223,113084
107172,113045
107171,113017
107164,113001
107228,113066
107258,113084
107306,113076
107280,113052
107256,113031
107298,113053
107389,113163
107368,113073
107382,113107
107317,113065
107368,113087
107413,113150
107404,113126
107357,113072
107213,113059
107254,113028
107213,113048
107108,112938
106964,112848
106794,112773
106781,112783
106751,112800
106688,112720
106557,112695
106381,112571
106400,112644
106373,112657
106295,112554
106195,112536
106046,112448
106120,112470
106098,112521
106025,112439
105946,112428
105808,112386
105867,112414
105937,112445
105851,112393
105841,112394
105733,112363
105792,112399
105875,112430
105848,112375
105834,112363
105727,112388
105834,112412
105932,112440
105903,112410
105904,112413
105846,112428
105976,112439
106019,112472
106052,112488
106041,112441
105977,112474
106088,112481
106190,112581
106153,112542
106120,112533
106107,112510
106185,112537
106257,112598
106251,112569
106253,112555
106215,112561
106269,112580
106385,112655
106316,112589
106347,112579
106306,112609
106397,112657
106519,112708
106477,112661
106483,112640
106443,112661
106563,112734
106633,112730
106587,112749
106542,112672
106558,112704
106586,112730
106656,112759
106596,112713
106559,112698
106455,112641
106568,112695
106557,112687
106543,112682
106425,112615
106400,112603
106475,112633
106467,112658
106444,112585
106376,112583
106270,112518
106359,112572
106426,112611
106319,112572
106265,112512
106202,112531
106274,112574
106349,112564
106285,112578
106210,112512
106201,112536
106292,112535
106344,112583
106283,112539
106271,112530
106195,112532
106331,112574
106394,112609
106325,112585
106311,112552
106284,112557
106342,112583
106445,112621
106409,112594
106370,112564
106355,112617
106445,112612
106550,112682
106481,112663
106458,112627
106520,112621
106558,112686
106664,112670
106623,112708
106619,112651
106639,112690
106727,112742
106806,112728
106784,112768
106703,112693
106755,112744
106892,112815
106894,112818
106904,112779
106838,112736
106906,112816
106962,112809
107027,112865
106989,112875
106975,112808
106996,112843
107107,112918
107154,112919
107107,112880
107082,112891
107067,112907
107187,112890
107267,112976
107219,112920
107112,112904
107198,112909
107293,112999
107304,112955
107309,113002
107199,112922
107273,112954
107314,112970
107364,112996
107299,112954
107268,112929
107250,112981
107371,112969
107367,113028
107339,112993
107281,112930
107289,112990
107346,112974
107432,113024
107358,112950
107313,112953
107364,112983
107358,113029
107436,113015
107401,112991
107364,112961
107357,112999
107407,113049
107471,112986
107421,113010
107375,112964
107424,113016
107453,113039
107528,113031
107476,113045
107430,112990
107438,113028
107510,113070
107615,113073
107530,113064
107491,112994
107555,113059
107659,113118
107631,113092
107607,113119
107541,113016
107568,113122
107647,113083
107638,113119
107583,113055
107399,112984
107396,112978
107351,112946
107278,112875
107125,112819
106941,112710
106907,112696
106893,112710
106838,112642
106691,112617
106556,112542
106517,112566
106562,112548
106488,112546
106362,112489
106289,112441
106276,112478
106321,112503
106239,112463
106209,112409
106117,112388
106120,112399
106208,112442
106139,112388
106104,112397
105998,112339
106083,112400
106110,112403
106112,112412
106097,112351
105999,112343
106090,112399
106183,112439
106161,112439
106171,112405
106095,112392
106163,112434
106226,112464
106253,112467
106252,112457
106140,112414
106247,112475
106340,112501
106363,112510
106312,112485
106261,112456
106336,112524
106411,112555
106402,112547
106410,112509
106369,112524
106455,112556
106531,112580
106543,112580
106534,112608
106460,112530
106624,112619
106681,112646
106655,112641
106671,112631
106603,112612
106699,112647
106750,112700
106722,112653
106711,112652
106624,112612
106711,112642
106710,112640
106740,112636
106676,112618
106515,112573
106616,112602
106664,112632
106621,112571
106536,112549
106469,112529
106491,112571
106544,112533
106546,112576
106463,112535
106396,112478
106476,112533
106466,112558
106473,112530
106425,112510
106328,112470
106426,112502
106421,112558
106415,112504
106412,112475
106312,112453
106429,112536
106440,112545
106456,112530
106423,112500
106357,112463
106460,112492
106566,112585
106531,112529
106525,112549
106454,112553
106592,112584
106660,112631
106652,112586
106619,112587
106577,112588
106701,112597
106789,112702
106753,112661
106689,112625
106730,112641
106818,112699
106895,112768
106840,112694
106841,112681
106803,112652
106938,112762
106990,112809
106939,112793
106905,112779
106920,112724
107001,112810
107074,112816
107029,112823
106973,112797
107005,112770
107099,112862
107159,112847
107178,112855
107086,112817
107089,112827
107178,112867
107253,112853
107206,112889
107176,112832
107145,112862
107237,112888
107359,112901
107253,112926
107239,112849
107256,112910
107332,112909
107419,112970
107319,112905
107316,112907
107286,112933
107347,112931
107420,112957
107355,112951
107310,112869
107343,112916
107377,112969
107446,112968
107401,112956
107375,112904
107375,112928
107411,112972
107522,112974
107435,112990
107417,112923
107428,112950
107471,112991
107562,113016
107502,112957
107462,112939
107465,112931
107518,113017
107604,113039
107564,112985
107507,112998
107497,112957
107612,113031
107625,113070
107618,113022
107583,113011
107552,112984
107702,113088
107721,113059
107695,113052
107576,112998
107604,113066
107705,113068
107774,113087
107651,113017
107509,112967
107447,112920
107400,112913
107325,112813
107161,112807
106958,112708
106834,112627
106830,112624
106824,112608
106637,112537
106484,112461
106418,112446
106365,112410
106371,112412
106199,112380
106092,112287
105992,112333
106034,112296
106001,112294
105926,112230
105826,112241
105782,112185
105821,112255
105804,112215
105751,112213
105686,112146
105719,112150
105770,112243
105739,112221
105738,112211
105713,112185
105763,112223
105800,112259
105875,112245
105849,112272
105803,112212
105891,112270
105953,112358
105998,112278
106027,112344
105949,112260
106021,112338
106135,112386
106175,112357
106120,112359
106101,112300
106139,112398
106247,112391
106280,112427
106241,112425
106178,112366
106266,112452
106339,112438
106336,112469
106369,112422
106283,112408
106321,112492
106466,112478
106521,112516
106484,112485
106381,112481
106464,112524
106590,112497
106585,112569
106537,112507
106461,112469
106533,112524
106559,112538
106565,112494
106500,112539
106410,112433
106419,112490
106506,112507
106491,112463
106448,112434
106280,112398
106347,112432
106360,112420
106364,112438
106305,112389
106248,112381
106264,112372
106305,112429
106327,112437
106247,112363
106218,112369
106198,112348
106281,112446
106241,112392
106270,112373
106159,112331
106209,112382
106271,112415
106287,112434
106263,112396
106195,112391
106282,112413
106355,112421
106331,112467
106343,112432
106254,112404
106370,112449
106412,112491
106396,112500
106410,112415
106353,112444
106402,112471
106513,112511
106492,112521
106468,112498
106392,112455
106474,112545
106547,112552
106558,112518
106512,112533
106489,112526
106586,112559
106635,112599
106640,112573
106591,112575
106563,112554
106683,112586
106739,112662
106701,112580
106709,112624
106638,112575
106735,112626
106862,112647
106798,112672
106798,112592
106740,112650
106801,112621
106890,112679
106838,112703
106824,112626
106828,112642
106892,112715
106937,112740
106896,112702
106885,112679
106877,112659
106915,112714
106978,112748
106962,112716
107005,112709
106904,112721
107010,112748
107028,112767
107062,112742
106988,112732
106986,112739
107051,112737
107109,112771
107109,112761
107079,112722
107042,112698
107104,112810
107151,112800
107152,112766
107133,112793
107069,112745
107154,112839
107224,112833
107229,112793
107163,112808
107127,112756
107256,112850
107307,112875
107247,112838
107259,112818
107214,112834
107321,112817
107369,112900
107369,112873
107271,112848
107290,112856
107399,112866
107419,112924
107365,112863
107302,112850
107231,112802
107216,112815
107221,112757
107085,112736
106903,112633
106736,112561
106774,112566
106688,112575
106567,112454
106402,112437
106243,112346
106226,112398
106189,112325
106087,112274
105907,112210
105809,112155
105815,112172
105805,112176
105684,112139
105607,112060
105494,112059
105552,112083
105572,112072
105509,112061
105440,112014
105389,112022
105498,112051
105506,112094
105496,112055
105428,112030
105470,112047
105529,112079
105602,112082
105614,112114
105590,112074
105575,112102
105683,112161
105771,112156
105742,112195
105746,112136
105726,112178
105898,112232
105929,112239
105892,112224
105863,112191
105907,112223
105990,112269
106065,112290
106042,112303
105996,112236
105990,112265
106102,112311
106164,112304
106134,112327
106099,112294
106102,112305
106213,112369
106229,112357
106244,112388
106201,112332
106241,112365
106306,112391
106392,112421
106358,112413
106254,112354
106281,112410
106384,112412
106365,112400
106350,112414
106259,112384
106257,112379
106338,112388
106367,112418
106284,112323
106203,112316
106207,112336
106265,112338
106283,112387
106191,112292
106137,112276
106132,112320
106146,112331
106213,112330
106120,112324
106063,112249
106090,112298
106130,112313
106152,112274
106103,112278
106028,112249
106095,112310
106134,112340
106162,112293
106117,112350
106081,112306
106086,112298
106187,112363
106192,112378
106188,112327
106093,112280
106182,112358
106241,112347
106281,112391
106287,112349
106200,112326
106230,112368
106370,112417
106375,112448
106354,112428
106269,112358
106415,112433
106474,112451
106508,112472
106458,112428
106460,112453
106467,112483
106582,112526
106601,112501
106615,112499
106520,112465
106633,112533
106710,112548
106705,112579
106737,112544
106663,112550
106722,112581
106839,112637
106823,112599
106839,112600
106770,112598
106823,112633
106923,112670
106957,112646
106916,112633
106878,112610
106945,112667
107046,112732
107049,112720
107023,112712
106964,112647
107041,112739
107105,112722
107100,112751
107109,112697
107014,112690
107139,112776
107185,112772
107166,112782
107140,112771
107101,112696
107161,112784
107227,112759
107223,112785
107178,112736
107160,112747
107191,112781
107291,112831
107210,112788
107244,112790
107143,112745
107253,112766
107288,112820
107313,112820
107253,112776
107196,112737
107265,112837
107316,112854
107368,112826
107323,112815
107227,112796
107344,112834
107393,112872
107411,112878
107381,112858
107319,112826
107404,112832
107518,112910
107453,112857
107418,112882
107383,112847
107424,112858
107483,112830
107438,112842
107292,112773
107152,112729
107099,112682
107098,112665
106910,112622
106807,112512
106607,112477
106611,112487
106613,112461
106512,112390
106389,112373
106250,112318
106223,112311
106234,112311
106169,112286
106056,112225
105937,112161
105969,112227
106002,112194
105894,112161
105906,112134
105756,112131
105882,112166
105835,112188
105817,112127
105748,112101
105746,112106
105794,112129
105882,112179
105819,112136
105803,112158
105758,112124
105886,112176
105904,112196
105931,112176
105894,112201
105868,112136
105989,112215
106069,112289
106011,112256
105997,112201
105984,112186
106047,112273
106156,112324
106114,112226
106089,112278
106071,112238
106176,112274
106266,112353
106197,112304
106187,112330
106169,112310
106275,112318
106395,112396
106333,112400
106305,112381
106318,112363
106420,112393
106504,112422
106482,112451
106454,112406
106425,112410
106503,112442
106596,112470
106556,112450
106456,112430
106404,112389
106518,112431
106561,112444
106465,112389
106435,112402
106339,112373
106461,112396
106494,112407
106379,112400
106337,112317
106327,112348
106358,112365
106385,112373
106321,112350
106283,112273
106259,112296
106285,112337
106341,112363
106278,112345
106235,112314
106175,112270
106297,112327
106320,112365
106271,112307
106202,112290
106225,112283
106232,112332
106306,112382
106297,112319
106266,112316
106217,112318
106306,112396
106338,112387
106356,112367
106271,112352
106269,112316
106359,112395
106426,112394
106416,112402
106309,112370
106334,112334
106451,112454
106510,112415
106487,112429
106444,112411
106464,112422
106561,112459
106591,112510
106571,112453
106553,112435
106535,112457
106651,112497
106677,112490
106668,112485
106591,112451
106634,112451
106741,112509
106826,112555
106765,112569
106740,112502
106758,112542
106832,112569
106919,112577
106900,112564
106811,112585
106842,112569
106933,112642
107000,112622
107020,112624
106911,112628
106967,112604
107007,112659
107097,112683
107059,112682
107003,112646
107042,112617
107091,112732
107158,112688
107171,112702
107096,112674
107108,112705
107165,112752
107248,112721
107222,112754
107160,112680
107210,112711
107234,112776
107290,112733
107278,112768
107175,112693
107268,112745
107296,112778
107353,112806
107339,112795
107237,112704
107247,112776
107356,112817
107391,112795
107339,112798
107246,112734
107373,112752
107404,112859
107446,112805
107430,112798
107384,112770
107393,112830
107514,112817
107508,112870
107461,112828
107389,112807
107458,112819
107486,112823
107505,112817
107396,112834
107264,112727
107286,112726
107280,112699
107167,112671
107022,112566
106844,112532
106799,112512
106825,112480
106731,112457
106638,112397
106475,112350
106463,112376
106468,112352
106447,112306
106326,112324
106193,112238
106235,112249
106229,112280
106183,112205
106172,112245
106028,112188
106053,112171
106088,112227
106050,112193
106022,112190
105932,112149
105956,112168
106031,112165
106028,112204
105984,112141
105893,112109
105976,112175
106022,112202
106018,112172
105989,112157
105973,112128
105997,112172
106123,112260
106069,112228
106056,112212
106010,112156
106106,112225
106191,112252
106212,112249
106159,112268
106072,112197
106166,112211
106262,112317
106220,112268
106245,112272
106199,112248
106249,112305
106383,112349
106347,112344
106359,112340
106279,112287
106410,112345
106443,112392
106472,112377
106495,112384
106407,112323
106494,112394
106579,112427
106558,112452
106528,112359
106422,112372
106485,112390
106575,112395
106448,112372
106439,112384
106334,112294
106472,112392
106469,112340
106424,112353
106372,112289
106293,112286
106340,112317
106400,112332
106337,112285
106312,112295
106215,112243
106286,112291
106339,112304
106281,112305
106256,112246
106173,112233
106227,112276
106260,112284
106246,112265
106246,112242
106171,112210
106207,112254
106267,112271
106279,112275
106228,112253
106189,112248
106290,112270
106303,112296
106308,112270
106266,112253
106252,112255
106348,112315
106370,112314
106374,112331
106347,112297
106309,112276
106420,112372
106487,112357
106444,112334
106453,112349
106424,112350
106515,112368
106570,112405
106568,112374
106533,112357
106566,112393
106626,112401
106681,112456
106690,112460
106645,112394
106630,112437
106745,112481
106816,112485
106747,112503
106729,112445
106754,112496
106839,112538
106899,112568
106876,112525
106842,112545
106814,112513
106946,112578
107010,112584
107004,112594
106949,112560
106903,112561
107063,112625
107111,112604
107052,112627
107019,112553
107021,112590
107086,112659
107140,112683
107121,112642
107077,112623
107092,112615
107150,112685
107217,112701
107213,112681
107160,112631
107174,112657
107240,112673
107299,112721
107273,112698
107239,112645
107249,112709
107340,112717
107392,112751
107342,112740
107304,112670
107314,112694
107383,112752
107432,112744
107404,112751
107369,112691
107382,112749
107417,112745
107493,112792
107449,112787
107429,112746
107433,112777
107494,112752
107543,112836
107507,112776
107437,112739
107455,112753
107467,112761
107523,112812
107442,112713
107236,112622
107166,112628
107136,112539
107026,112564
106871,112480
106665,112378
106591,112312
106602,112314
106527,112330
106352,112230
106197,112191
106134,112152
106146,112139
106092,112118
105950,112106
105843,112022
105738,112011
105800,112010
105801,112034
105678,112022
105604,111938
105556,111944
105619,111938
105651,111963
105605,111954
105536,111947
105543,111935
105586,111989
105653,111980
105600,111989
105570,111954
105611,111936
105655,112012
105730,112012
105730,111977
105683,112007
105713,112014
105817,112041
105884,112067
105807,112079
105804,112017
105855,112087
105924,112116
105960,112130
105948,112099
105898,112098
105922,112081
106072,112211
106066,112136
106071,112142
105995,112145
106036,112119
106110,112223
106161,112203
106168,112201
106104,112160
106200,112209
106265,112279
106278,112239
106297,112275
106218,112209
106261,112257
106368,112295
106327,112274
106322,112236
106216,112205
106264,112212
106339,112284
106283,112244
106292,112199
106187,112200
106167,112166
106259,112199
106255,112237
106163,112194
106085,112124
106129,112169
106181,112160
106182,112161
106065,112150
106029,112102
106046,112099
106119,112168
106096,112127
106049,112125
105966,112081
106008,112111
106098,112129
106105,112161
106029,112094
105997,112100
106083,112143
106149,112161
106118,112170
106120,112114
106035,112145
106137,112165
106194,112171
106227,112180
106162,112204
106140,112115
106245,112229
106323,112246
106303,112233
106302,112233
106236,112192
106325,112235
106396,112307
106396,112282
106399,112270
106318,112234
106443,112272
106496,112341
106515,112321
106535,112339
106468,112290
106528,112333
106629,112419
106612,112358
106659,112394
106591,112328
106676,112397
106797,112421
106808,112465
106775,112409
106734,112426
106829,112469
106890,112535
106917,112484
106899,112472
106858,112474
106931,112526
107040,112564
107036,112545
107009,112542
106968,112502
107093,112565
107164,112578
107166,112594
107155,112566
107102,112562
107165,112639
107303,112638
107242,112651
107213,112594
107145,112571
107272,112668
107375,112648
107346,112679
107287,112604
107240,112632
107358,112662
107440,112710
107395,112673
107368,112705
107315,112619
107435,112686
107463,112750
107420,112713
107435,112711
107405,112668
107484,112750
107576,112747
107562,112746
107507,112734
107416,112715
107576,112730
107600,112794
107571,112737
107592,112735
107539,112758
107623,112795
107700,112808
107676,112826
107652,112761
107641,112782
107683,112842
107766,112852
107699,112825
107641,112788
107578,112732
107598,112762
107570,112732
107330,112619
107209,112499
106995,112438
106898,112397
106844,112369
106730,112303
106552,112243
106396,112138
106450,112170
106386,112167
106290,112108
106133,112045
106027,112030
106021,111996
106037,112062
105946,112011
105804,111949
105762,111904
105802,111949
105824,111944
105781,111934
105683,111887
105660,111895
105735,111888
105793,111973
105730,111932
105736,111900
105669,111907
105850,111952
105864,111981
105886,111983
105855,111957
105836,111983
105977,112016
106002,112053
106014,112059
106041,112015
105984,112061
106084,112061
106184,112133
106156,112088
106137,112041
106141,112088
106242,112165
106344,112186
106322,112183
106251,112132
106306,112161
106391,112173
106426,112243
106411,112214
106431,112186
106446,112224
106517,112288
106596,112263
106589,112281
106544,112243
106606,112250
106681,112338
106709,112317
106721,112331
106626,112281
106648,112263
106715,112319
106742,112316
106654,112313
106579,112267
106564,112241
106620,112303
106637,112286
106557,112231
106506,112190
106463,112201
106555,112262
106532,112205
106471,112224
106414,112173
106382,112163
106474,112141
106493,112210
106397,112178
106326,112137
106371,112137
106461,112183
106485,112221
106404,112159
106376,112164
106414,112168
106509,112188
106528,112228
106513,112181
106477,112226
106500,112189
106640,112264
106652,112268
106697,112294
106664,112271
106680,112320
106835,112318
106872,112349
106844,112387
106812,112335
106934,112370
107001,112449
107068,112444
107018,112453
107020,112411
107039,112483
107153,112476
107206,112543
107178,112496
107149,112495
107210,112530
107270,112591
107327,112608
107315,112577
107299,112552
107325,112587
107397,112651
107483,112670
107458,112645
107423,112627
107439,112645
107557,112669
107581,112708
107583,112705
107545,112683
107588,112682
107649,112755
107709,112775
107700,112736
107630,112732
107725,112779
107827,112812
107826,112819
107825,112804
107739,112788
107801,112793
107908,112884
107884,112861
107914,112827
107835,112805
107916,112871
107974,112914
108000,112883
107992,112871
107882,112850
107976,112869
108030,112893
108075,112899
108032,112928
107944,112877
108050,112886
108077,112945
108117,112939
108103,112916
108012,112924
108102,112931
108226,113004
108191,112991
108210,112974
108100,112938
108199,112964
108294,113038
108288,113014
108260,112980
108238,112991
108276,113044
108382,113018
108381,113027
108350,113058
108312,113051
108349,113049
108472,113103
108425,113052
108447,113094
108367,113029
108460,113119
108534,113133
108493,113116
108452,113026
108327,113011
108355,113049
108308,113038
108145,112919
108048,112847
107783,112731
107681,112705
107587,112657
107423,112555
107249,112501
107091,112385
107059,112370
107045,112365
106966,112345
106886,112296
106756,112258
106761,112268
106825,112268
106795,112270
106711,112239
106622,112168
106646,112221
106697,112274
106639,112212
106657,112223
106575,112185
106652,112226
106693,112266
106617,112215
106650,112223
106569,112192
106707,112273
106727,112255
106750,112277
106712,112303
106628,112220
106796,112273
106869,112341
106837,112322
106849,112325
106750,112306
106869,112328
107020,112400
106970,112343
106946,112429
106915,112386
107015,112403
107115,112478
107088,112465
107097,112445
107064,112424
107148,112477
107254,112556
107275,112506
107310,112540
107251,112502
107379,112599
107481,112634
107436,112625
107499,112576
107414,112603
107568,112653
107608,112690
107639,112683
107567,112663
107528,112632
107592,112674
107682,112679
107610,112662
107533,112654
107460,112597
107560,112631
107522,112640
107471,112582
107426,112542
107329,112502
107359,112577
107391,112537
107341,112531
107246,112474
107150,112451
107241,112473
107248,112467
107242,112481
107132,112434
107099,112416
107180,112448
107204,112447
107159,112456
107141,112413
107070,112389
107201,112419
107223,112500
107200,112450
107181,112416
107186,112444
107241,112507
107330,112519
107345,112525
107295,112475
107268,112508
107349,112543
107473,112577
107426,112568
107410,112577
107374,112565
107476,112611
107591,112622
107545,112639
107516,112610
107502,112635
107607,112648
107695,112703
107661,112677
107642,112673
107602,112684
107724,112684
107766,112717
107779,112690
107691,112724
107692,112679
107799,112780
107887,112803
107853,112779
107823,112759
107766,112752
107910,112785
107933,112803
107945,112794
107907,112801
107888,112799
107986,112801
108025,112885
108039,112828
107984,112819
108002,112861
108065,112855
108144,112920
108106,112865
108107,112853
108133,112860
108166,112906
108282,112966
108216,112944
108178,112876
108214,112919
108280,112946
108323,113004
108283,112957
108277,112949
108246,112975
108372,112965
108371,113018
108380,112986
108314,112940
108321,112971
108390,113012
108474,113042
108406,113015
108331,112957
108377,112977
108430,113061
108509,113031
108465,113060
108383,113006
108425,113019
108472,113054
108541,113044
108537,113077
108448,113030
108457,113052
108546,113099
108591,113069
108586,113060
108495,113074
108542,113078
108671,113096
108712,113112
108699,113133
108599,113062
108656,113108
108734,113145
108758,113126
108690,113124
108611,113099
108578,113080
108607,113061
108519,113047
108394,112949
108172,112863
108015,112769
107925,112756
107826,112659
107619,112570
107488,112521
107393,112469
107349,112439
107315,112418
107200,112384
107081,112319
107028,112316
107074,112376
107067,112300
107046,112290
106916,112249
106945,112305
106986,112304
107022,112330
106917,112279
106875,112230
106899,112263
106984,112285
106974,112277
106944,112280
106873,112243
106922,112293
107056,112317
107037,112329
107039,112327
106934,112259
107000,112316
107148,112372
107132,112415
107116,112392
107080,112329
107145,112396
107221,112450
107286,112425
107262,112471
107224,112427
107269,112469
107385,112535
107357,112496
107364,112464
107307,112501
107412,112555
107507,112588
107521,112586
107538,112577
107461,112579
107616,112579
107706,112648
107702,112664
107771,112693
107727,112643
107830,112724
107868,112736
107901,112769
107897,112730
107831,112742
107900,112724
107969,112812
107968,112758
107916,112743
107819,112699
107809,112711
107856,112762
107800,112674
107797,112665
107625,112625
107643,112629
107665,112662
107613,112596
107557,112578
107495,112490
107499,112541
107551,112563
107487,112527
107491,112504
107377,112477
107444,112500
107520,112555
107523,112524
107444,112503
107405,112492
107446,112523
107566,112570
107573,112545
107504,112527
107477,112527
107565,112588
107695,112599
107657,112627
107631,112579
107635,112556
107708,112625
107817,112659
107817,112661
107838,112678
107762,112664
107885,112721
108005,112754
107973,112744
107995,112751
107966,112759
108098,112812
108180,112842
108149,112829
108175,112844
108155,112828
108240,112879
108362,112935
108314,112928
108327,112926
108287,112908
108404,112962
108486,112983
108461,112983
108465,112969
108384,112970
108508,113048
108610,113041
108613,113024
108586,113048
108552,113004
108643,113071
108674,113139
108696,113057
108751,113103
108629,113084
108748,113142
108821,113155
108830,113160
108779,113135
108777,113111
108812,113156
108916,113196
108891,113188
108892,113122
108813,113163
108941,113203
108984,113242
108973,113248
108948,113165
108886,113185
109006,113235
109050,113257
109045,113221
109024,113215
109007,113214
109071,113281
109125,113283
109123,113276
109069,113249
109047,113254
109163,113290
109207,113323
109186,113305
109142,113262
109129,113263
109195,113341
109280,113351
109236,113339
109223,113327
109182,113295
109281,113367
109358,113368
109311,113338
109241,113348
109249,113314
109334,113355
109398,113362
109349,113383
109264,113317
109204,113313
109314,113347
109279,113323
109082,113246
108959,113158
108715,113051
108629,113006
108477,112914
108177,112800
107965,112651
107708,112527
107684,112548
107588,112483
107429,112418
107276,112347
107174,112330
107204,112351
107162,112344
107081,112251
107027,112277
106953,112200
106992,112257
107013,112285
106989,112229
106901,112234
106896,112229
106956,112276
106992,112272
106949,112229
106919,112266
106918,112248
107006,112288
107013,112297
107060,112309
106962,112296
106991,112305
107122,112382
107189,112367
107187,112386
107147,112333
107177,112392
107315,112430
107373,112456
107398,112468
107316,112452
107371,112481
107501,112553
107524,112547
107552,112528
107466,112553
107509,112565
107665,112610
107689,112630
107662,112601
107664,112595
107665,112653
107782,112668
107861,112679
107857,112714
107815,112702
107854,112682
107978,112759
108040,112791
108030,112760
107994,112757
108003,112811
108071,112781
108152,112850
108085,112791
107973,112755
107949,112736
107969,112795
108044,112766
107921,112702
107792,112653
107764,112645
107794,112663
107762,112666
107677,112567
107612,112562
107538,112502
107578,112552
107566,112485
107531,112494
107389,112440
107386,112452
107441,112470
107490,112474
107424,112488
107355,112381
107377,112425
107403,112489
107474,112524
107450,112431
107432,112481
107442,112485
107523,112516
107617,112533
107557,112538
107578,112544
107611,112563
107695,112604
107762,112612
107744,112609
107689,112550
107787,112633
107839,112696
107928,112689
107944,112719
107866,112641
107936,112704
108083,112747
108138,112813
108093,112797
108080,112767
108157,112817
108265,112857
108277,112922
108273,112841
108285,112881
108331,112926
108444,112918
108443,112938
108475,112942
108404,112909
108473,112956
108587,113016
108601,113022
108597,113003
108499,112968
108599,113008
108711,113065
108684,113049
108715,113037
108624,113036
108736,113076
108772,113145
108815,113083
108824,113093
108728,113059
108811,113125
108918,113159
108942,113124
108953,113175
108827,113094
108925,113144
108985,113171
108983,113184
108991,113183
108917,113141
108962,113181
109054,113242
109025,113214
109032,113166
108886,113168
108968,113191
109100,113216
109082,113239
109052,113188
109009,113191
109054,113204
109106,113241
109123,113250
109067,113238
109028,113174
109099,113241
109188,113284
109098,113249
109128,113210
109054,113237
109139,113267
109213,113295
109195,113293
109201,113232
109126,113253
109200,113280
109328,113335
109303,113308
109303,113291
109197,113235
109335,113291
109335,113343
109322,113277
109209,113313
109121,113225
109081,113199
108989,113151
108813,113043
108572,112957
108315,112771
108158,112726
108037,112667
107776,112555
107601,112435
107429,112374
107400,112373
107354,112333
107262,112297
107154,112293
107027,112207
107064,112211
107106,112244
106964,112216
106970,112204
106835,112157
106920,112171
106975,112171
106930,112182
106895,112177
106826,112148
106945,112219
106966,112235
106940,112206
106942,112209
106897,112194
107052,112258
107071,112314
107099,112299
107105,112291
107103,112307
107184,112323
107331,112404
107299,112401
107321,112391
107307,112377
107443,112483
107495,112523
107521,112496
107523,112498
107508,112484
107612,112569
107674,112533
107692,112555
107705,112546
107645,112574
107766,112598
107829,112666
107814,112637
107872,112656
107815,112674
107906,112691
108075,112745
108060,112732
107989,112721
108033,112742
108107,112808
108240,112804
108178,112825
108132,112804
108109,112742
108166,112806
108225,112816
108167,112777
108063,112766
107988,112712
108086,112735
108069,112709
108001,112707
107852,112623
107818,112620
107858,112633
107875,112596
107811,112566
107672,112576
107649,112491
107708,112565
107722,112577
107670,112532
107620,112475
107537,112482
107647,112505
107666,112550
107669,112496
107618,112527
107562,112508
107660,112506
107708,112562
107709,112542
107684,112543
107705,112543
107772,112593
107831,112623
107813,112599
107820,112610
107834,112595
107932,112670
108024,112704
107997,112725
108019,112655
108014,112731
108117,112764
108207,112812
108217,112765
108210,112788
108219,112793
108357,112855
108389,112928
108422,112883
108426,112859
108466,112881
108484,112947
108589,112994
108605,112975
108586,112976
108586,112971
108702,112998
108762,113083
108753,113032
108702,113020
108789,113063
108852,113081
108948,113134
108931,113115
108905,113083
108906,113125
109049,113180
109082,113189
109080,113166
109054,113190
109082,113160
109214,113231
109237,113261
109211,113210
109190,113235
109227,113209
109328,113278
109340,113290
109353,113286
109253,113214
109317,113308
109406,113322
109470,113324
109410,113326
109377,113260
109387,113319
109514,113387
109511,113334
109494,113337
109374,113306
109438,113371
109531,113351
109545,113367
109517,113350
109481,113319
109444,113347
109555,113368
109592,113399
109577,113389
109506,113347
109513,113367
109598,113383
109670,113438
109631,113415
109580,113370
109620,113409
109706,113438
109745,113453
109696,113431
109659,113411
109692,113429
109798,113492
109836,113515
109762,113476
109739,113459
109786,113467
109854,113521
109851,113503
109783,113445
109625,113374
109565,113377
109554,113354
109401,113258
109255,113199
108999,113099
108831,113004
108725,112951
108536,112877
108294,112724
108087,112658
107969,112582
107928,112538
107888,112563
107757,112520
107625,112414
107603,112413
107626,112440
107605,112460
107528,112380
107454,112377
107488,112397
107526,112411
107547,112434
107522,112405
107412,112388
107482,112417
107574,112451
107591,112477
107582,112471
107553,112463
107656,112484
107728,112524
107742,112543
107753,112537
107737,112537
107853,112614
107981,112650
108017,112667
108017,112663
107993,112673
108122,112747
108230,112781
108282,112780
108277,112804
108251,112785
108361,112814
108455,112899
108495,112875
108487,112904
108456,112866
108547,112954
108669,112964
108669,112983
108716,112979
108682,112982
108785,113039
108839,113082
108897,113100
108914,113057
108873,113059
108967,113099
109012,113142
109037,113140
108982,113124
108922,113102
108999,113138
109063,113152
108990,113117
108953,113073
108844,113018
108897,113075
108923,113072
108857,113046
108807,113005
108710,112983
108703,112956
108740,112982
108683,112930
108639,112949
108504,112846
108584,112899
108580,112916
108570,112906
108493,112886
108432,112818
108489,112888
108533,112861
108481,112885
108470,112835
108420,112863
108457,112871
108570,112899
108537,112863
108536,112891
108468,112860
108543,112919
108663,112916
108629,112924
108635,112938
108592,112947
108695,112966
108756,112981
108735,112983
108762,113007
108717,112963
108811,113022
108931,113078
108902,113085
108915,113111
108886,113025
109009,113105
109066,113160
109079,113127
109081,113146
109022,113098
109161,113172
109199,113227
109190,113188
109173,113179
109182,113217
109243,113243
109333,113287
109300,113230
109316,113195
109247,113207
109348,113258
109382,113335
109377,113269
109379,113270
109307,113269
109409,113311
109473,113318
109508,113348
109457,113303
109463,113271
109515,113358
109586,113400
109626,113358
109559,113371
109534,113329
109626,113392
109660,113443
109657,113394
109662,113410
109620,113342
109710,113431
109756,113424
109710,113424
109705,113397
109656,113426
109752,113412
109829,113507
109794,113457
109722,113408
109716,113413
109819,113451
109840,113501
109844,113446
109765,113463
109751,113456
109867,113486
109874,113507
109851,113475
109803,113457
109778,113463
109880,113495
109918,113510
109878,113487
109840,113475
109795,113467
109903,113500
109954,113519
109937,113499
109853,113475
109831,113488
109915,113510
109983,113508
109908,113500
109844,113484
109788,113458
109819,113460
109804,113442
109633,113360
109458,113264
109301,113205
109241,113135
109115,113126
108925,113021
108709,112901
108534,112837
108462,112808
108361,112761
108223,112688
108082,112600
108013,112567
108030,112608
108024,112572
107942,112554
107840,112480
107810,112513
107880,112537
107896,112576
107851,112515
107792,112512
107800,112515
107853,112567
107926,112574
107863,112562
107844,112542
107864,112570
107969,112614
108015,112639
108021,112621
107948,112611
108025,112647
108142,112704
108198,112717
108211,112723
108187,112712
108222,112762
108360,112784
108419,112814
108393,112853
108392,112830
108440,112830
108570,112895
108610,112922
108587,112934
108611,112920
108618,112939
108761,113008
108843,112994
108821,113024
108787,113018
108859,113036
108975,113065
109051,113146
109056,113112
109013,113109
109073,113157
109166,113178
109245,113209
109210,113183
109151,113180
109157,113188
109275,113236
109293,113207
109230,113207
109115,113163
109159,113192
109197,113194
109198,113184
109139,113131
109038,113086
108981,113084
109051,113121
109057,113086
108964,113058
108830,112993
108852,113008
108873,113018
108875,113010
108771,112969
108745,112942
108759,112945
108764,112968
108793,112953
108733,112947
108697,112905
108693,112923
108753,112979
108755,112933
108759,112944
108707,112927
108736,112944
108837,112989
108802,112982
108816,112997
108757,112957
108806,112987
108890,113031
108950,113055
108936,113025
108839,112996
108935,113046
109062,113064
109071,113113
109042,113101
109008,113088
109082,113127
109152,113152
109191,113193
109194,113163
109133,113129
109218,113183
109313,113205
109327,113256
109325,113237
109252,113200
109348,113245
109450,113276
109476,113287
109437,113271
109372,113273
109416,113286
109571,113330
109550,113324
109531,113312
109460,113291
109556,113300
109633,113380
109641,113362
109600,113363
109542,113327
109647,113363
109735,113398
109744,113407
109703,113380
109668,113373
109757,113390
109786,113447
109817,113414
109813,113425
109745,113416
109820,113434
109866,113476
109881,113463
109878,113451
109810,113434
109887,113454
109919,113507
109944,113477
109937,113457
109884,113448
109921,113487
109962,113514
109978,113494
109959,113500
109887,113485
109953,113504
110040,113526
110020,113521
110031,113527
109934,113478
110029,113511
110083,113558
110078,113570
110082,113527
109989,113478
110062,113538
110105,113549
110103,113551
110057,113515
109899,113473
109941,113487
109903,113441
109745,113380
109579,113302
109293,113165
109211,113127
109074,113087
108841,112945
108624,112821
108373,112723
108272,112673
108196,112628
108078,112569
107935,112500
107792,112474
107848,112463
107791,112474
107794,112452
107691,112438
107628,112395
107624,112440
107702,112429
107710,112442
107633,112422
107597,112394
107716,112441
107722,112443
107743,112460
107766,112465
107686,112432
107837,112523
107904,112508
107921,112562
107937,112565
107916,112579
108066,112617
108171,112728
108183,112670
108196,112710
108206,112720
108346,112750
108462,112852
108487,112818
108539,112822
108471,112809
108608,112919
108701,112940
108728,112934
108742,112932
108729,112981
108846,112974
108929,113028
108964,113068
108983,113048
108911,113052
109069,113134
109165,113118
109198,113152
109178,113153
109183,113161
109263,113240
109360,113228
109322,113244
109321,113213
109308,113241
109369,113248
109495,113279
109396,113252
109335,113226
109291,113163
109357,113237
109329,113206
109269,113210
109192,113132
109090,113085
109146,113121
109121,113087
109030,113097
108945,113025
108844,112990
108886,113009
108893,113003
108806,112963
108705,112911
108609,112885
108690,112919
108694,112925
108625,112896
108581,112851
108487,112855
108622,112877
108612,112927
108602,112851
108546,112868
108537,112860
108614,112905
108667,112950
108653,112872
108669,112899
108633,112905
108722,112955
108760,112935
108789,112972
108754,112968
108714,112971
108831,112988
108972,113079
108937,113029
108899,113036
108944,113061
109006,113117
109092,113145
109090,113135
109073,113069
109109,113132
109158,113167
109307,113204
109251,113197
109275,113159
109267,113181
109402,113241
109410,113290
109396,113265
109406,113219
109432,113280
109486,113286
109554,113333
109563,113311
109479,113300
109537,113312
109643,113337
109630,113375
109639,113341
109633,113297
109650,113355
109690,113369
109780,113422
109753,113370
109666,113374
109734,113367
109780,113445
109859,113443
109795,113411
109764,113380
109729,113383
109864,113416
109875,113484
109888,113441
109772,113446
109802,113398
109949,113467
109927,113477
109896,113462
109841,113447
109883,113445
109954,113511
110040,113469
109956,113460
109891,113468
109901,113450
109977,113512
110000,113493
109965,113498
109924,113453
109915,113476
110014,113476
110052,113542
110004,113513
109924,113481
109965,113501
110029,113510
110051,113525
109995,113495
109929,113472
109871,113442
109882,113423
109798,113400
109614,113302
109435,113225
109241,113150
109108,113096
108977,112974
108687,112840
108416,112702
108256,112675
108148,112588
108069,112577
107915,112499
107746,112423
107691,112424
107698,112406
107662,112427
107610,112364
107538,112313
107486,112357
107557,112388
107541,112323
107503,112314
107391,112313
107453,112319
107495,112383
107491,112350
107473,112348
107415,112338
107462,112341
107589,112401
107583,112424
107615,112397
107536,112419
107628,112437
107780,112523
107802,112546
107826,112541
107852,112532
107896,112585
108041,112602
108107,112683
108097,112666
108133,112665
108205,112692
108306,112751
108409,112779
108392,112809
108358,112756
108473,112843
108568,112892
108659,112919
108647,112909
108624,112885
108700,112953
108825,113005
108882,113033
108888,113009
108876,112985
108977,113066
109044,113091
109141,113123
109122,113117
109038,113120
109127,113148
109221,113145
109187,113169
109168,113155
109078,113133
109172,113117
109174,113168
109172,113089
109110,113091
108956,113059
108999,113045
109002,113101
108965,113033
108892,112991
108760,112942
108790,112937
108804,112922
108754,112962
108694,112895
108560,112817
108643,112857
108626,112909
108637,112886
108553,112835
108475,112786
108564,112830
108553,112884
108560,112838
108583,112829
108456,112832
108523,112813
108603,112876
108577,112827
108608,112851
108540,112851
108599,112858
108694,112898
108658,112895
108702,112900
108637,112864
108680,112947
108790,113004
108815,112974
108808,112977
108774,112998
108861,113003
108930,113025
108997,113047
108971,113061
108945,113006
109072,113063
109164,113122
109191,113148
109180,113162
109159,113131
109248,113171
109324,113216
109385,113197
109321,113194
109324,113188
109390,113253
109500,113237
109459,113274
109471,113282
109435,113245
109528,113290
109631,113342
109621,113301
109586,113316
109539,113294
109641,113341
109682,113409
109712,113348
109687,113360
109642,113356
109692,113390
109814,113412
109739,113391
109743,113399
109705,113374
109766,113397
109848,113433
109832,113449
109823,113394
109734,113394
109830,113436
109904,113469
109875,113422
109874,113425
109807,113403
109906,113468
109958,113509
109907,113454
109879,113432
109862,113441
109946,113492
109978,113495
109962,113475
109917,113450
109911,113467
109984,113494
109996,113535
109993,113497
109950,113486
109902,113479
109999,113478
110103,113567
110045,113484
109977,113501
109967,113461
110080,113512
110140,113563
110101,113529
109991,113496
110010,113505
110022,113524
110090,113518
109931,113435
109846,113396
109678,113318
109613,113325
109531,113222
109321,113183
109138,113078
108939,112965
108833,112963
108702,112837
108561,112823
108363,112682
108230,112640
108212,112637
108215,112630
108107,112563
108016,112556
107947,112537
108012,112546
107991,112531
107912,112517
107915,112505
107850,112518
107942,112528
108004,112577
107977,112537
107928,112539
107904,112554
108003,112563
108080,112603
108045,112559
108068,112593
108008,112588
108166,112629
108239,112707
108256,112670
108238,112671
108221,112692
108383,112750
108420,112820
108432,112792
108422,112764
108445,112793
108592,112836
108623,112919
108661,112886
108626,112867
108696,112917
108762,112932
108829,112988
108893,112983
108832,112965
108925,113021
109010,113075
109094,113087
109083,113100
109125,113098
109142,113081
109262,113201
109306,113189
109325,113189
109306,113181
109324,113175
109425,113239
109505,113228
109425,113225
109356,113219
109366,113240
109422,113202
109447,113264
109404,113199
109277,113174
109230,113154
109342,113181
109302,113132
109206,113126
109141,113101
109063,113035
109104,113047
109111,113090
109033,113047
108914,112977
108866,112984
108936,112970
108979,112995
108885,112963
108795,112934
108768,112949
108842,112947
108904,112978
108839,112937
108753,112917
108827,112932
108886,112991
108935,112962
108909,112963
108865,112956
108885,113010
108984,112991
109047,113065
108992,113039
108976,113003
109017,113023
109108,113101
109112,113057
109094,113083
109099,113032
109151,113120
109203,113131
109298,113152
109256,113158
109211,113130
109273,113159
109317,113219
109363,113154
109349,113171
109338,113184
109359,113165
109448,113260
109453,113220
109457,113233
109445,113206
109450,113259
109519,113274
109588,113297
109583,113270
109508,113237
109537,113286
109650,113315
109651,113278
109673,113305
109566,113293
109644,113278
109734,113342
109736,113349
109710,113309
109650,113323
109724,113335
109794,113376
109812,113353
109816,113364
109709,113371
109797,113394
109873,113418
109850,113406
109835,113436
109794,113375
109871,113423
109953,113431
109946,113449
109938,113440
109820,113424
109947,113441
109994,113463
109989,113457
109963,113434
109864,113426
109975,113476
110035,113483
110036,113478
109991,113515
109917,113425
110012,113467
110032,113498
110047,113499
110055,113453
109940,113471
110022,113470
110109,113542
110050,113477
110007,113500
109978,113466
110035,113496
110096,113522
110080,113532
109981,113475
109945,113413
109940,113420
109919,113459
109831,113403
109691,113310
109464,113233
109395,113221
109334,113151
109137,113066
108986,112950
108743,112903
108687,112864
108630,112799
108479,112720
108401,112669
108250,112632
108253,112614
108248,112651
108195,112605
108150,112547
108001,112518
108064,112562
108135,112566
108129,112577
108014,112560
107968,112490
108027,112537
108113,112603
108109,112555
108053,112563
107966,112560
108097,112604
108133,112611
108129,112584
108129,112594
108090,112609
108233,112637
108271,112686
108312,112670
108296,112724
108297,112671
108403,112693
108480,112768
108513,112781
108520,112767
108480,112777
108567,112822
108668,112862
108720,112867
108703,112858
108705,112843
108785,112919
108869,112990
108892,112947
108900,112963
108830,112981
108997,113010
109105,113072
109130,113077
109117,113062
109065,113038
109213,113113
109248,113150
109255,113117
109247,113124
109154,113074
109271,113116
109291,113178
109247,113112
109196,113084
109091,113091
109154,113102
109096,113101
109078,113024
109022,113036
108926,112975
108961,112989
108945,112996
108877,112961
108755,112895
108759,112874
108756,112901
108800,112914
108706,112869
108643,112800
108558,112844
108604,112842
108636,112840
108620,112833
108555,112818
108509,112759
108586,112804
108595,112833
108601,112797
108539,112774
108525,112769
108628,112816
108643,112868
108630,112797
108613,112816
108560,112834
108650,112861
108750,112910
108683,112858
108722,112847
108653,112824
108776,112903
108826,112941
108801,112900
108804,112919
108749,112930
108839,112949
108937,112964
108955,112990
108885,112992
108881,112934
109012,112992
109060,113031
109045,113035
109047,113023
108985,113047
109141,113086
109223,113119
109181,113116
109094,113040
109136,113117
109242,113122
109303,113123
109306,113150
109248,113096
109234,113134
109349,113177
109401,113181
109378,113185
109352,113170
109320,113156
109413,113213
109501,113224
109484,113241
109440,113198
109409,113187
109500,113234
109570,113266
109541,113239
109480,113231
109518,113245
109546,113266
109621,113285
109589,113259
109543,113235
109526,113249
109614,113296
109629,113304
109633,113308
109561,113260
109598,113277
109633,113327
109698,113322
109646,113305
109615,113291
109637,113265
109735,113317
109717,113362
109714,113318
109689,113313
109663,113311
109752,113342
109825,113383
109740,113338
109696,113325
109740,113321
109805,113375
109787,113393
109705,113303
109586,113250
109496,113252
109435,113167
109335,113173
109098,113036
108881,112903
108629,112847
108535,112759
108414,112701
108187,112603
108032,112492
107903,112492
107894,112463
107881,112471
107717,112393
107618,112341
107551,112361
107581,112353
107565,112327
107542,112299
107435,112268
107389,112289
107429,112294
107493,112316
107442,112291
107324,112282
107374,112251
107419,112321
107451,112287
107436,112316
107336,112257
107400,112267
107477,112324
107507,112327
107503,112311
107495,112294
107501,112321
107630,112376
107664,112409
107667,112398
107659,112429
107741,112425
107843,112503
107870,112546
107863,112482
107879,112465
107896,112559
108013,112575
108071,112609
108064,112593
108021,112531
108075,112632
108203,112669
108287,112708
108250,112700
108232,112635
108312,112728
108415,112772
108439,112776
108474,112757
108480,112788
108519,112788
108648,112869
108661,112864
108602,112872
108576,112776
108605,112851
108705,112864
108694,112853
108626,112859
108561,112798
108547,112799
108625,112814
108516,112790
108478,112746
108355,112697
108384,112671
108364,112723
108341,112701
108233,112631
108144,112578
108150,112590
108204,112593
108177,112612
108061,112558
108017,112504
108021,112559
108090,112576
108097,112597
108008,112522
107946,112500
107959,112499
108058,112532
108065,112550
108020,112532
107960,112489
108036,112544
108075,112562
108133,112582
108085,112609
108088,112530
108121,112614
108250,112648
108245,112637
108274,112656
108231,112615
108278,112679
108401,112747
108419,112774
108365,112738
108365,112706
108468,112790
108546,112817
108578,112766
108554,112841
108522,112738
108605,112846
108681,112860
108701,112894
108672,112857
108650,112858
108768,112881
108774,112942
108794,112882
108833,112897
108763,112926
108867,112935
108934,112993
108969,112984
108934,112999
108882,112913
108936,113014
109084,113038
109035,113046
109017,113000
108975,113023
109105,113073
109177,113102
109145,113067
109133,113048
109109,113016
109183,113097
109270,113137
109255,113103
109271,113106
109192,113096
109293,113122
109385,113157
109360,113135
109317,113158
109303,113168
109391,113149
109480,113214
109419,113181
109402,113150
109329,113173
109467,113194
109516,113219
109505,113203
109468,113211
109413,113152
109514,113206
109583,113235
109582,113222
109513,113240
109475,113199
109584,113214
109632,113266
109595,113264
109545,113226
109515,113194
109562,113251
109617,113274
109526,113225
109402,113154
109280,113095
109221,113051
109123,113008
108933,112884
108670,112796
108375,112624
108285,112607
108144,112542
108017,112438
107835,112368
107645,112283
107650,112314
107616,112291
107533,112258
107392,112179
107375,112179
107378,112162
107399,112215
107326,112139
107272,112165
107211,112152
107296,112153
107300,112190
107281,112166
107216,112136
107211,112126
107294,112167
107337,112212
107314,112161
107333,112196
107240,112148
107385,112250
107460,112263
107434,112297
107405,112241
107484,112271
107580,112315
107667,112372
107653,112342
107659,112378
107638,112343
107760,112441
107899,112492
107867,112473
107842,112446
107907,112493
108033,112529
108095,112562
108079,112561
108094,112566
108082,112550
108195,112610
108312,112685
108352,112648
108296,112674
108336,112667
108478,112744
108543,112770
108516,112763
108515,112729
108505,112791
108619,112825
108689,112834
108713,112830
108624,112833
108592,112769
108699,112838
108678,112821
108649,112824
108538,112760
108476,112732
108501,112708
108509,112741
108363,112686
108271,112649
108239,112603
108266,112640
108195,112578
108118,112576
108014,112463
107932,112511
107975,112504
107993,112472
107935,112473
107834,112431
107804,112381
107884,112425
107868,112461
107842,112396
107810,112401
107783,112378
107870,112436
107884,112450
107899,112418
107867,112450
107900,112422
107975,112511
108051,112522
107992,112500
107997,112453
107959,112520
108079,112557
108189,112566
108176,112574
108131,112575
108176,112564
108302,112620
108300,112652
108320,112633
108293,112649
108334,112635
108472,112705
108498,112705
108503,112739
108434,112734
108478,112699
108570,112720
108659,112785
108599,112809
108540,112738
108584,112815
108693,112810
108731,112856
108681,112840
108670,112805
108669,112866
108761,112846
108842,112892
108858,112886
108745,112857
108790,112877
108889,112885
108937,112942
108920,112928
108883,112887
108898,112908
109018,112943
109025,112985
109056,112951
109012,112957
108994,112967
109122,113003
109136,113001
109156,113004
109123,112965
109118,113001
109217,113044
109250,113055
109175,113030
109164,113021
109211,113048
109255,113112
109296,113077
109273,113051
109215,113012
109258,113066
109304,113104
109326,113083
109328,113080
109253,113061
109289,113067
109362,113129
109409,113126
109404,113112
109296,113077
109344,113104
109410,113147
109459,113149
109426,113085
109363,113075
109409,113135
109514,113171
109463,113162
109454,113116
109377,113069
109378,113121
109405,113117
109368,113122
109205,113031
109057,112883
108912,112906
108816,112817
108687,112747
108502,112678
108208,112549
108132,112509
108048,112475
107961,112391
107818,112343
107639,112263
107684,112281
107663,112270
107624,112226
107549,112229
107449,112156
107457,112157
107519,112207
107486,112194
107488,112186
107391,112168
107443,112174
107478,112248
107467,112174
107452,112179
107384,112178
107422,112197
107521,112218
107532,112262
107520,112242
107489,112198
107532,112263
107650,112276
107643,112321
107666,112323
107630,112283
107717,112358
107817,112383
107860,112399
107850,112407
107866,112395
107959,112462
108007,112518
108069,112498
108060,112481
108064,112523
108120,112494
108229,112605
108281,112611
108269,112626
108256,112584
108341,112633
108473,112716
108510,112700
108513,112725
108473,112682
108639,112744
108681,112807
108719,112791
108744,112778
108641,112801
108778,112811
108871,112862
108786,112837
108789,112848
108660,112811
108783,112860
108821,112873
108749,112831
108676,112786
108595,112739
108605,112770
108688,112742
108577,112765
108539,112720
108425,112646
108467,112718
108486,112684
108460,112673
108362,112649
108298,112619
108372,112624
108430,112682
108378,112598
108359,112642
108250,112578
108357,112636
108456,112651
108410,112648
108354,112638
108343,112622
108427,112665
108535,112716
108503,112688
108542,112697
108443,112688
108594,112752
108622,112775
108635,112723
108641,112743
108567,112765
108715,112791
108785,112834
108774,112793
108764,112799
108737,112791
108856,112855
108895,112889
108930,112874
108898,112890
108881,112875
108939,112954
109044,112943
109047,112958
109044,112900
109045,112972
109140,112976
109171,113046
109239,113021
109209,113026
109222,113004
109277,113061
109353,113091
109361,113074
109347,113052
109317,113069
109380,113115
109474,113137
109470,113100
109457,113097
109430,113123
109519,113178
109556,113153
109551,113183
109522,113157
109537,113110
109625,113219
109658,113183
109663,113202
109616,113197
109610,113175
109758,113225
109748,113258
109738,113258
109671,113225
109681,113208
109753,113251
109839,113282
109810,113249
109770,113242
109714,113252
109861,113288
109860,113281
109827,113275
109784,113243
109770,113282
109874,113264
109911,113323
109912,113324
109826,113286
109803,113248
109927,113324
109940,113367
109926,113303
109916,113321
109857,113303
109976,113356
110060,113341
110001,113348
109977,113312
109955,113313
110025,113347
110053,113396
109983,113315
109910,113270
109819,113245
109817,113238
109759,113244
109614,113135
109467,113085
109289,112988
109261,113012
109154,112931
109043,112858
108852,112826
108722,112699
108703,112758
108606,112705
108529,112626
108371,112574
