
110723,111976
110799,112028
110766,112015
110786,111992
110661,111973
110783,111990
110878,111971
110852,112029
110863,112017
110756,111970
110868,112010
110939,112054
110942,112036
110952,112028
110892,112033
110960,112060
111091,112124
111051,112084
111034,112052
110978,112078
111058,112086
111139,112138
111087,112084
111158,112088
111063,112066
111100,112098
111254,112133
111190,112175
111165,112076
111091,112076
111201,112162
111279,112136
111255,112155
111270,112096
111141,112127
111239,112152
111327,112197
111313,112174
111330,112156
111218,112125
111336,112151
111423,112233
111413,112210
111378,112179
111322,112127
111419,112234
111459,112199
111479,112200
111392,112177
111275,112154
111317,112153
111334,112170
111260,112125
111106,112024
110930,111985
110922,111940
110884,111973
110726,111873
110607,111778
110423,111717
110404,111703
110386,111748
110342,111684
110218,111649
110076,111560
110112,111596
110177,111644
110075,111624
110091,111564
109961,111516
110067,111534
110096,111619
110047,111564
109999,111480
109912,111486
110028,111517
110059,111584
110013,111511
110018,111495
109930,111524
110041,111533
110087,111625
110046,111566
110053,111549
110010,111546
110143,111575
110165,111647
110205,111614
110176,111627
110133,111612
110259,111623
110302,111691
110347,111693
110322,111645
110300,111658
110398,111739
110468,111729
110481,111771
110479,111702
110401,111746
110542,111749
110595,111842
110618,111795
110606,111820
110505,111796
110697,111834
110711,111868
110679,111859
110704,111819
110629,111825
110725,111884
110748,111864
110741,111829
110699,111844
110587,111796
110669,111865
110717,111830
110697,111856
110611,111748
110506,111762
110638,111791
110608,111788
110594,111764
110261,111666
110597,111794
110611,111750
110811,111834
110843,111861
110848,111815
110260,111541
110314,111577
110262,111544
110141,111513
109768,111312
109661,111312
109606,111230
109732,111312
109810,111338
109751,111337
109671,111252
109633,111256
109731,111340
109775,111310
109778,111345
109704,111261
109673,111292
109750,111323
109843,111330
109801,111333
109748,111323
109709,111320
109846,111318
109891,111359
109832,111316
109771,111366
109727,111282
109906,111394
109945,111379
109900,111380
109876,111333
109856,111367
109967,111365
110052,111426
109995,111422
109952,111398
109898,111403
110049,111404
110108,111484
110017,111459
109997,111394
109921,111397
110021,111414
110119,111463
110062,111419
109964,111416
109868,111372
109986,111404
110046,111434
109927,111380
109875,111372
109787,111345
109908,111343
109962,111391
109887,111370
109721,111292
109695,111250
109776,111355
109820,111335
109788,111300
109661,111274
109590,111272
109725,111294
109738,111324
109682,111268
109611,111267
109566,111209
109612,111248
109753,111297
109667,111259
109567,111261
109481,111195
109625,111228
109682,111278
109616,111260
109553,111189
109500,111198
109615,111238
109652,111264
109655,111254
109541,111235
109520,111176
109616,111289
109684,111289
109665,111293
109581,111230
109579,111228
109621,111281
109716,111287
109696,111287
109601,111284
109550,111246
109691,111255
109771,111322
109737,111318
109662,111283
109639,111286
109799,111305
109868,111370
109839,111363
109756,111311
109750,111327
109937,111386
109967,111400
109975,111363
109967,111377
109886,111404
110067,111432
110124,111481
110135,111479
110078,111451
110105,111408
110190,111521
110265,111556
110267,111532
110271,111467
110178,111480
110362,111572
110402,111582
110410,111570
110351,111533
110328,111547
110472,111586
110518,111649
110443,111562
110430,111565
110392,111575
110470,111620
110560,111605
110492,111627
110425,111559
110382,111575
110500,111627
110519,111648
110444,111611
110379,111528
110284,111544
110300,111516
110286,111512
110156,111474
109937,111334
109803,111302
109831,111299
109769,111294
109646,111225
109474,111169
109279,111099
109352,111111
109302,111095
109218,111039
109021,110986
108980,110947
108954,110933
108995,110923
108875,110922
108797,110859
108689,110829
108734,110815
108769,110861
108646,110826
108571,110738
108489,110727
108512,110791
108539,110750
108530,110697
108435,110710
108354,110666
108434,110742
108476,110737
108424,110704
108318,110679
108337,110618
108386,110729
108460,110736
108406,110707
108356,110680
108353,110658
108417,110738
108512,110730
108483,110755
108416,110699
108422,110702
108492,110761
108564,110759
108555,110780
108499,110701
108492,110742
108587,110796
108631,110833
108647,110755
108569,110785
108540,110775
108696,110822
108717,110862
108708,110822
108673,110793
108623,110825
108751,110861
108765,110881
108760,110821
108729,110806
108638,110817
108757,110853
108790,110863
108733,110837
108698,110809
108605,110810
108719,110839
108757,110880
108703,110813
108606,110779
108564,110752
108613,110797
108692,110793
108579,110795
108502,110693
108488,110731
108530,110754
108548,110765
108540,110704
108422,110697
108354,110649
108442,110734
108479,110719
108400,110685
108325,110611
108302,110647
108359,110670
108405,110692
108336,110675
108251,110589
108267,110604
108319,110681
108369,110685
108363,110635
108257,110617
108273,110607
108339,110684
108406,110656
108338,110678
108264,110598
108293,110642
108366,110685
108412,110681
108411,110674
108333,110634
108320,110642
108415,110656
108487,110725
108449,110679
108393,110684
108397,110661
108498,110695
108553,110761
108523,110711
108503,110684
108494,110729
108614,110756
108695,110812
108706,110803
108646,110775
108697,110773
108781,110860
108899,110877
108902,110896
108884,110885
108878,110825
109030,110942
109116,110945
109110,110967
109106,110929
109165,110964
109245,111038
109363,111017
109358,111089
109345,111054
109318,111033
109477,111101
109589,111131
109539,111158
109535,111070
109555,111109
109673,111191
109739,111208
109725,111204
109665,111189
109668,111118
109776,111234
109837,111261
109791,111204
109739,111193
109679,111183
109812,111263
109834,111243
109782,111219
109625,111187
109599,111106
109578,111176
109496,111069
109364,111009
109123,110915
109015,110858
109014,110868
108936,110845
108823,110749
108647,110705
108547,110654
108552,110687
108512,110635
108376,110626
108256,110494
108192,110479
108199,110481
108181,110493
108078,110459
107971,110406
107910,110346
107951,110430
107984,110392
107891,110378
107823,110320
107748,110296
107869,110375
107856,110375
107828,110342
107747,110311
107766,110270
107836,110387
107863,110334
107845,110324
107811,110329
107808,110331
107861,110405
107931,110363
107921,110390
107822,110349
107870,110354
107951,110386
108032,110448
108005,110376
107964,110388
107954,110400
108078,110458
108129,110447
108107,110468
108009,110415
108101,110418
108201,110524
108229,110528
108202,110505
108186,110451
108173,110490
108289,110522
108347,110560
108328,110560
108261,110499
108301,110541
108367,110554
108443,110608
108410,110563
108317,110534
108292,110506
108416,110592
108442,110580
108432,110581
108345,110519
108328,110503
108401,110571
108450,110580
108374,110550
108306,110527
108309,110497
108384,110535
108434,110546
108357,110548
108293,110475
108257,110480
108337,110501
108369,110525
108337,110502
108267,110456
108252,110464
108359,110510
108395,110534
108316,110494
108269,110452
108262,110504
108329,110495
108399,110549
108342,110515
108309,110442
108311,110488
108408,110527
108460,110565
108408,110536
108342,110467
108335,110521
108446,110548
108541,110584
108481,110590
108405,110517
108446,110512
108572,110597
108608,110648
108566,110593
108527,110528
108555,110605
108672,110675
108752,110655
108731,110662
108633,110643
108722,110655
108840,110697
108864,110741
108846,110692
108829,110713
108825,110658
108971,110771
109027,110785
109015,110763
108902,110733
108971,110748
109089,110813
109157,110859
109085,110803
109080,110803
109054,110773
109204,110875
109247,110921
109220,110845
109140,110815
109152,110793
109320,110913
109302,110954
109324,110886
109278,110899
109231,110857
109346,110937
109470,110947
109417,110951
109312,110879
109396,110941
109513,110974
109551,111014
109519,110987
109457,110988
109492,110925
109626,111031
109675,111059
109600,111037
109588,110951
109553,111052
109701,111083
109781,111100
109744,111087
109645,111066
109674,111023
109797,111097
109795,111154
109755,111071
109687,111039
109621,111047
109706,111053
109634,111065
109502,110935
109366,110866
109209,110817
109209,110832
109178,110800
109020,110718
108838,110625
108772,110582
108803,110647
108747,110568
108647,110555
108519,110495
108476,110465
108509,110507
108521,110503
108423,110464
108353,110430
108332,110405
108379,110481
108412,110416
108327,110434
108211,110371
108264,110360
108304,110447
108364,110402
108295,110425
108200,110368
108182,110376
108337,110417
108363,110458
108287,110455
108254,110355
108249,110402
108380,110445
108415,110498
108405,110485
108354,110403
108340,110447
108484,110465
108518,110519
108485,110491
108462,110478
108419,110440
108602,110533
108651,110553
108602,110557
108585,110550
108609,110499
108727,110622
108742,110590
108786,110614
108684,110606
108748,110596
108853,110661
108921,110698
108853,110663
108828,110599
108791,110638
108937,110688
108979,110701
108927,110700
108819,110615
108825,110642
108906,110673
108907,110685
108873,110639
108803,110622
108736,110592
108843,110648
108860,110665
108808,110630
108656,110526
108702,110557
108747,110588
108778,110604
108688,110566
108650,110497
108599,110499
108671,110546
108696,110594
108653,110541
108557,110481
108531,110484
108658,110529
108679,110557
108650,110509
108580,110485
108539,110489
108664,110537
108690,110574
108655,110523
108613,110527
108592,110517
108749,110571
108794,110596
108720,110593
108677,110514
108688,110568
108779,110582
108859,110592
108831,110576
108741,110583
108779,110579
108869,110638
108947,110674
108903,110612
108813,110602
108838,110582
108983,110659
108981,110684
108981,110658
108884,110625
108888,110688
109038,110656
109086,110735
109059,110697
109007,110663
109011,110665
109159,110761
109227,110753
109226,110773
109093,110745
109125,110715
109243,110796
109320,110806
109249,110807
109200,110708
109192,110753
109294,110792
109377,110836
109298,110813
109237,110751
109223,110799
109338,110778
109416,110872
109334,110830
109287,110806
109284,110815
109345,110820
109443,110863
109422,110842
109313,110815
109312,110824
109448,110838
109477,110904
109461,110858
109394,110817
109410,110867
109560,110902
109587,110910
109589,110887
109455,110903
109480,110876
109634,110934
109663,110969
109607,110967
109573,110876
109599,110929
109712,110958
109751,110987
109733,110975
109650,110945
109604,110928
109742,110954
109792,110979
109727,110968
109567,110941
109544,110862
109596,110892
109546,110889
109472,110832
109262,110779
109180,110702
109242,110758
109216,110694
109051,110698
108875,110619
108870,110568
108868,110598
108895,110579
108762,110536
108667,110507
108642,110459
108738,110538
108709,110511
108647,110445
108522,110454
108491,110405
108621,110464
108628,110460
108572,110429
108444,110410
108462,110384
108559,110459
108606,110448
108502,110413
108406,110356
108447,110362
108507,110437
108575,110417
108514,110437
108407,110372
108447,110375
108539,110445
108531,110415
108539,110406
108440,110366
108437,110388
108541,110453
108596,110438
108548,110438
108439,110378
108505,110392
108614,110476
108592,110451
108626,110446
108501,110445
108547,110406
108661,110490
108708,110493
108683,110507
108605,110452
108620,110499
108770,110488
108762,110563
108738,110516
108676,110469
108664,110477
108794,110552
108798,110532
108742,110497
108681,110498
108673,110471
108782,110535
108782,110525
108779,110511
108659,110458
108642,110457
108758,110508
108773,110537
108698,110479
108615,110456
108640,110475
108669,110500
108746,110489
108658,110496
108567,110395
108539,110453
108623,110485
108701,110441
108629,110497
108538,110376
108522,110457
108615,110420
108663,110458
108572,110426
108509,110396
108493,110417
108621,110470
108653,110469
108621,110450
108482,110390
108535,110401
108662,110509
108687,110446
108644,110488
108536,110440
108565,110441
108714,110486
108716,110531
108672,110462
108616,110471
108600,110460
108758,110497
108766,110485
108753,110494
108629,110494
108677,110480
108764,110506
108816,110562
108812,110516
108744,110479
108735,110504
108816,110534
108913,110561
108860,110574
108791,110531
108782,110547
108878,110538
108953,110604
108926,110565
108825,110547
108846,110567
109011,110579
109013,110649
109000,110582
108896,110615
108917,110615
109069,110634
109131,110682
109082,110640
109038,110630
109086,110650
109166,110681
109202,110713
109177,110686
109136,110659
109135,110642
109263,110750
109335,110747
109262,110743
109230,110702
109236,110754
109355,110755
109378,110811
109390,110774
109330,110727
109336,110740
109458,110804
109513,110782
109478,110825
109405,110775
109395,110782
109529,110824
109592,110843
109550,110847
109436,110800
109463,110801
109566,110862
109582,110855
109518,110822
109413,110772
109399,110785
109443,110801
109412,110778
109301,110721
109149,110663
109058,110600
109115,110621
109045,110600
108935,110544
108759,110503
108747,110431
108794,110497
108768,110494
108680,110405
108550,110368
108522,110328
108581,110392
108599,110366
108528,110340
108460,110331
108432,110298
108487,110342
108518,110356
108444,110305
108323,110275
108345,110270
108462,110354
108426,110346
108409,110268
108330,110277
108320,110314
108418,110318
108466,110329
108459,110339
108359,110259
108370,110294
108483,110313
108530,110381
108465,110372
108457,110309
108441,110309
108570,110351
108633,110430
108567,110372
108538,110370
108561,110376
108675,110435
108735,110439
108720,110443
108625,110440
108665,110412
108820,110517
108887,110516
108829,110518
108814,110482
108804,110516
108928,110510
109028,110578
108945,110565
108894,110552
108945,110499
109015,110617
109031,110624
109015,110580
108924,110555
108962,110558
108997,110536
109027,110566
109020,110548
108902,110544
108881,110524
108955,110565
108954,110543
108903,110552
108759,110475
108773,110447
108857,110523
108856,110461
108789,110459
108702,110455
108673,110394
108742,110471
108724,110450
108711,110440
108631,110381
108608,110406
108663,110444
108696,110410
108647,110412
108546,110353
108592,110355
108626,110376
108698,110418
108586,110428
108552,110343
108562,110358
108614,110410
108675,110394
108617,110420
108537,110318
108570,110368
108683,110420
108695,110423
108612,110421
108566,110345
108644,110404
108669,110397
108730,110484
108678,110461
108626,110362
108670,110437
108745,110431
108804,110487
108767,110435
108689,110414
108740,110423
108812,110461
108892,110513
108819,110486
108775,110432
108779,110459
108920,110516
108959,110517
108919,110565
108885,110469
108891,110503
109021,110572
109044,110569
109064,110538
108948,110552
108970,110514
109116,110609
109136,110619
109088,110595
109076,110537
109083,110594
109152,110594
109217,110653
109162,110647
109113,110592
109128,110596
109229,110682
109261,110663
109274,110642
109200,110618
109206,110645
109332,110683
109383,110731
109387,110689
109318,110661
109326,110733
109437,110752
109474,110775
109419,110761
109364,110653
109404,110734
109494,110731
109540,110776
109467,110737
109439,110715
109424,110743
109518,110775
109542,110806
109478,110744
109454,110718
109387,110759
109506,110763
109520,110772
109425,110726
109306,110649
109244,110649
109205,110647
109163,110638
109047,110557
108866,110449
108759,110405
108772,110421
108724,110396
108604,110297
108464,110260
108346,110240
108402,110260
108348,110241
108242,110130
108093,110123
108027,110094
108082,110112
108056,110057
108000,110077
107844,109949
107856,110020
107870,110015
107885,110020
107832,109972
107752,109948
107746,109924
107783,110013
107810,109998
107807,109964
107706,109953
107726,109933
107838,110030
107882,110025
107836,109998
107766,109963
107835,110007
107898,110057
107969,110031
107973,110088
107932,110036
107927,110048
108064,110146
108084,110106
108117,110120
108019,110060
108056,110135
108222,110196
108227,110167
108247,110195
108140,110099
108190,110160
108334,110212
108319,110230
108355,110231
108286,110186
108318,110235
108434,110249
108492,110267
108410,110293
108377,110242
108419,110264
108493,110294
108572,110312
108525,110283
108449,110254
108430,110255
108538,110351
108553,110281
108508,110291
108428,110244
108360,110261
108497,110275
108492,110295
108410,110210
108361,110192
108325,110162
108379,110229
108423,110230
108353,110188
108282,110124
108283,110205
108321,110222
108379,110210
108303,110132
108270,110138
108215,110175
108336,110193
108315,110200
108332,110191
108228,110121
108277,110163
108312,110185
108410,110203
108339,110178
108279,110140
108327,110154
108393,110258
108402,110196
108404,110220
108341,110165
108367,110204
108502,110254
108523,110237
108471,110271
108471,110200
108460,110221
108589,110317
108637,110311
108624,110291
108599,110264
108624,110328
108752,110383
108773,110328
108755,110380
108682,110334
108777,110327
108855,110431
108920,110427
108925,110417
108853,110396
108931,110402
109004,110489
109060,110502
109054,110451
109042,110434
109021,110476
109172,110543
109230,110580
109192,110518
109181,110527
109152,110530
109283,110607
109335,110599
109328,110591
109299,110556
109347,110630
109468,110656
109512,110687
109480,110681
109447,110617
109491,110678
109627,110746
109650,110718
109629,110705
109632,110653
109614,110746
109783,110777
109815,110780
109751,110769
109719,110691
109740,110783
109855,110819
109876,110812
109865,110801
109732,110734
109789,110806
109897,110795
109973,110839
109898,110829
109810,110775
109866,110789
109951,110851
109999,110867
109984,110865
109892,110797
109920,110795
110025,110862
110091,110898
110042,110852
110010,110852
109968,110841
110054,110912
110092,110911
109991,110828
109904,110758
109787,110800
109815,110778
109675,110696
109524,110603
109316,110503
109184,110456
109157,110454
109041,110374
108923,110329
108747,110235
108652,110217
108670,110237
108630,110210
108537,110159
108418,110094
108395,110098
108446,110138
108412,110108
108369,110083
108274,110031
108282,110056
108326,110076
108363,110077
108308,110047
108240,110031
108298,110059
108362,110100
108383,110091
108331,110096
108342,110034
108310,110103
108443,110150
108468,110139
108478,110170
108416,110103
108527,110140
108605,110199
108655,110246
108635,110206
108587,110174
108641,110242
108761,110323
108789,110308
108814,110290
108736,110261
108824,110308
108950,110368
108981,110355
108952,110358
108941,110330
108988,110373
109143,110449
109183,110452
109199,110441
109174,110415
109230,110474
109359,110517
109430,110580
109439,110555
109373,110531
109422,110551
109533,110602
109558,110606
109512,110604
109456,110550
109466,110547
109508,110632
109527,110597
109406,110532
109320,110466
109306,110495
109311,110542
109283,110476
109223,110432
109101,110388
109052,110374
109142,110413
109099,110392
109047,110359
108935,110322
108941,110281
109013,110375
108979,110332
108957,110336
108817,110314
108847,110276
108947,110345
108943,110322
108901,110324
108824,110255
108900,110287
108957,110366
108964,110368
108964,110299
108924,110303
108905,110291
109034,110376
109064,110366
109069,110374
108971,110357
109045,110363
109142,110451
109185,110429
109151,110418
109111,110399
109148,110403
109248,110492
109269,110480
109259,110498
109201,110463
109256,110460
109347,110568
109404,110511
109357,110539
109337,110512
109403,110521
109470,110611
109541,110575
109488,110573
109487,110544
109494,110552
109583,110651
109666,110663
109641,110627
109545,110590
109570,110634
109756,110706
109749,110694
109769,110660
109683,110687
109693,110630
109816,110754
109818,110777
109856,110728
109771,110720
109817,110679
109919,110756
109993,110783
109955,110787
109916,110756
109922,110758
110081,110842
110076,110852
110079,110803
110063,110803
110044,110827
110160,110879
110235,110909
110195,110849
110149,110835
110174,110828
110280,110916
110319,110933
110318,110929
110265,110862
110248,110920
110359,110961
110406,110955
110376,110906
110310,110912
110299,110902
110424,110969
110403,110995
110401,110934
110300,110927
110378,110918
110447,110996
110471,110964
110447,110970
110375,110917
110351,110904
110476,110989
110529,111035
110441,110983
110415,110922
110411,110940
110550,111015
110565,111014
110545,111006
110437,110988
110487,110952
110513,111030
110519,111001
110478,110932
110329,110923
110287,110860
110283,110896
110238,110860
110074,110807
109875,110655
109846,110682
109814,110696
109768,110660
109625,110586
109511,110468
109423,110523
109500,110507
109491,110506
109394,110482
109318,110417
109263,110429
109374,110475
109341,110461
109321,110405
109210,110354
109248,110420
109291,110440
109307,110443
109264,110388
109225,110358
109200,110390
109305,110443
109308,110434
109283,110384
109224,110404
109245,110386
109344,110451
109368,110430
109367,110425
109235,110438
109306,110450
109374,110468
109450,110471
109409,110485
109335,110417
109343,110475
109485,110524
109500,110511
109476,110504
109415,110431
109439,110520
109536,110550
109581,110605
109558,110533
109553,110536
109599,110551
109691,110623
109768,110623
109748,110634
109652,110558
109696,110641
109850,110699
109852,110676
109859,110646
109740,110656
109796,110631
109873,110706
109876,110717
109805,110642
109721,110616
109726,110651
109805,110653
109805,110661
109757,110651
109647,110574
109681,110570
109703,110650
109693,110580
109653,110593
109558,110516
109519,110517
109622,110582
109596,110552
109596,110519
109454,110505
109493,110562
109565,110559
109606,110557
109577,110534
109479,110534
109544,110509
109654,110582
109688,110567
109642,110598
109570,110510
109583,110532
109713,110595
109740,110628
109737,110602
109648,110523
109720,110623
109793,110629
109862,110665
109831,110670
109748,110609
109834,110681
109937,110705
109944,110707
109967,110702
109925,110662
109976,110708
110080,110801
110137,110751
110127,110781
110048,110731
110121,110777
110249,110842
110291,110854
110256,110830
110284,110811
110276,110826
110397,110889
110440,110890
110426,110892
110344,110871
110430,110881
110498,110960
110561,110974
110495,110925
110440,110871
110474,110927
110520,110992
110566,110955
110539,110954
110461,110909
110522,110923
110606,111030
110591,110943
110592,110986
110533,110909
110537,110982
110626,110968
110685,111045
110607,110981
110553,110976
110549,110992
110712,111030
110740,111040
110728,111010
110597,110998
110679,111007
110730,111043
110808,111088
110743,111059
110671,111016
110685,111010
110783,111083
110857,111089
110804,111072
110702,110995
110742,111026
110839,111125
110846,111072
110819,111049
110733,111044
110767,111026
110893,111138
110863,111042
110868,111090
110777,111071
110822,111081
110901,111113
110914,111131
110870,111067
110831,111065
110850,111060
110921,111097
110936,111165
110902,111063
110843,111096
110854,111064
110967,111149
110964,111187
110897,111080
110917,111112
110865,111084
110967,111148
110964,111150
110936,111125
110850,111046
110836,111122
110835,111068
110849,111109
110728,111019
110539,110934
110507,110921
110516,110925
110377,110864
110256,110788
110078,110717
110024,110711
110004,110715
109969,110692
109834,110670
109693,110547
109660,110547
109733,110589
109656,110552
109635,110493
109531,110493
109526,110483
109623,110543
109613,110487
109579,110500
109459,110444
109502,110453
109552,110503
109568,110545
109554,110470
109481,110425
109486,110470
109552,110552
109589,110514
109541,110485
109462,110425
109529,110490
109575,110544
109621,110516
109598,110499
109531,110459
109526,110486
109662,110536
109622,110552
109605,110507
109567,110500
109574,110512
109701,110583
109680,110563
109688,110542
109599,110529
109682,110577
109752,110606
109806,110649
109766,110587
109788,110603
109793,110598
109923,110688
109970,110670
109923,110657
109884,110641
109927,110689
110005,110746
110082,110738
110051,110728
109979,110713
109960,110698
110091,110728
110081,110723
110059,110724
109986,110672
109958,110684
110019,110713
110025,110689
109987,110685
109886,110616
109873,110632
109935,110653
109935,110641
109883,110636
109789,110567
109816,110597
109886,110642
109909,110641
109841,110604
109761,110575
109790,110585
109865,110614
109878,110619
109829,110624
109804,110569
109780,110573
109866,110651
109908,110629
109900,110649
109828,110585
109865,110600
109937,110672
110002,110691
109952,110646
109894,110640
109921,110680
110061,110703
110042,110695
110034,110701
109959,110656
110027,110691
110126,110749
110187,110738
110138,110756
110084,110682
110090,110726
110231,110767
110312,110817
110248,110819
110216,110738
110271,110771
110357,110851
110384,110867
110362,110823
110305,110832
110349,110832
110440,110916
110484,110921
110423,110854
110424,110864
110439,110889
110499,110927
110589,110906
110563,110935
110490,110850
110517,110904
110659,110990
110668,110994
110634,110955
110563,110920
110645,110972
110740,110995
110786,111006
110784,111015
110671,110937
110721,111005
110865,111083
110912,111080
110854,111080
110826,110993
110878,111060
110976,111088
111013,111116
111024,111124
110975,111040
110984,111124
111081,111137
111123,111167
111113,111126
110994,111111
111070,111161
111201,111201
111182,111166
111189,111206
111107,111137
111075,111165
111251,111228
111196,111210
111177,111175
111066,111152
111101,111183
111199,111219
111253,111198
111210,111210
111116,111123
111159,111192
111252,111218
111263,111255
111234,111209
111157,111184
111198,111156
111247,111200
111310,111229
111277,111211
111100,111150
111125,111169
111141,111174
111112,111137
110937,111060
110725,110994
110584,110889
110552,110923
110385,110805
110169,110718
109959,110625
109848,110525
109817,110612
109751,110500
109643,110464
109488,110401
109437,110384
109467,110414
109473,110382
109391,110373
109255,110262
109264,110317
109336,110344
109303,110339
109285,110271
109160,110266
109176,110260
109240,110281
109303,110319
109210,110292
109168,110244
109228,110265
109302,110322
109341,110338
109267,110307
109236,110291
109232,110313
109379,110385
109444,110393
109370,110381
109358,110353
109364,110358
109512,110411
109545,110461
109502,110425
109422,110358
109505,110416
109617,110441
109680,110519
109623,110457
109558,110434
109652,110487
109777,110550
109766,110538
109776,110529
109727,110510
109784,110559
109939,110631
109968,110631
109914,110618
109918,110585
109926,110662
110084,110674
110093,110710
110078,110685
109974,110637
110060,110635
110107,110733
110137,110717
110028,110695
109984,110610
109993,110667
110065,110659
110033,110685
109953,110621
109855,110539
109822,110580
109917,110616
109853,110627
109853,110535
109710,110501
109701,110524
109803,110565
109824,110566
109703,110527
109630,110436
109641,110484
109741,110503
109739,110511
109681,110488
109610,110419
109656,110512
109748,110487
109781,110522
109700,110514
109651,110430
109725,110520
109776,110529
109839,110592
109803,110540
109749,110487
109828,110534
109882,110582
109949,110628
109913,110574
109833,110517
109877,110556
110006,110653
110004,110621
110045,110661
109942,110585
109999,110638
110094,110697
110150,110705
110136,110698
110042,110672
110131,110690
110252,110727
110284,110768
110252,110744
110224,110728
110257,110781
110409,110808
110441,110840
110382,110837
110319,110742
110412,110818
110504,110889
110568,110899
110513,110857
110491,110835
110510,110902
110673,110909
110682,110962
110672,110901
110589,110889
110631,110927
110761,110962
110790,111007
110769,110924
110666,110946
110725,110933
110825,110986
110894,110995
110813,111017
110762,110932
110831,110999
110920,111006
110927,111056
110879,111043
110818,110964
110859,111019
110993,111062
111001,111055
110969,111034
110931,111020
110948,111046
111085,111119
111070,111079
111051,111101
110995,111045
111026,111074
111096,111088
111169,111134
111116,111102
111053,111055
111057,111110
111159,111142
111212,111170
111165,111158
111105,111071
111129,111122
111235,111152
111280,111199
111234,111130
111194,111123
111216,111166
111338,111176
111350,111242
111313,111172
111226,111160
111290,111144
111390,111206
111395,111240
111368,111191
111259,111169
111241,111126
111294,111197
111211,111122
111081,111035
110886,110949
110772,110961
110777,110913
110613,110885
110440,110763
110208,110659
110083,110617
110119,110639
109963,110590
109893,110512
109760,110425
109698,110480
109804,110490
109757,110465
109676,110466
109591,110367
109556,110402
109686,110451
109691,110441
109662,110419
109598,110363
109624,110442
109772,110478
109782,110490
109725,110447
109708,110431
109746,110505
109901,110530
109969,110581
109946,110563
109934,110519
109964,110601
110180,110658
110207,110687
110236,110676
110178,110660
110284,110707
110418,110776
110427,110787
110511,110752
110414,110755
110521,110789
110608,110856
110664,110873
110653,110876
110567,110829
110651,110845
110744,110907
110839,110958
110848,110904
110716,110915
110805,110889
110918,110965
110971,111024
110957,110999
110856,110973
110934,110943
111048,111060
111091,111038
111038,111056
110978,110975
110975,111045
111102,111082
111095,111083
111060,111031
110991,110985
111009,110988
111140,111052
111061,111045
111049,111036
110935,110983
110935,110983
111034,111045
111015,111024
111010,110987
110859,110961
110887,110987
110956,110997
110993,110990
110898,110954
110793,110890
110835,110975
110922,110999
110948,110980
110875,110935
110804,110887
110801,110937
110888,110981
110921,110980
110919,110974
110829,110927
110844,110927
110968,111006
110982,111020
110966,110953
110873,110951
110904,110999
111029,110999
111105,111055
111013,111017
110949,110945
111016,111009
111127,111029
111149,111071
111131,111030
111046,111007
111114,111047
111202,111073
111190,111083
111166,111089
111098,111033
111144,111093
111241,111113
111291,111122
111234,111122
111181,111097
111227,111104
111314,111143
111373,111168
111313,111128
111259,111101
111309,111134
111424,111197
111417,111189
111433,111159
111338,111138
111378,111167
111528,111227
111526,111215
111497,111200
111411,111160
111453,111216
111599,111260
111553,111235
111536,111259
111480,111176
111511,111260
111640,111289
111681,111296
111643,111258
111518,111212
111619,111272
111688,111256
111710,111328
111683,111258
111644,111249
111643,111273
111741,111309
111776,111360
111738,111294
111701,111293
111694,111312
111797,111349
111856,111375
111824,111321
111734,111304
111742,111289
111882,111362
111853,111398
111855,111356
111767,111277
111777,111344
111889,111378
111894,111396
111883,111370
111797,111345
111835,111378
111944,111416
111970,111371
111895,111399
111795,111334
111875,111384
111989,111405
111992,111421
111901,111388
111900,111339
111909,111422
111984,111448
112024,111451
111998,111389
111909,111380
111903,111398
112054,111442
112059,111451
112001,111407
111876,111408
111907,111375
111958,111403
111918,111390
111808,111349
111668,111214
111645,111286
111656,111268
111625,111229
111483,111211
111346,111095
111344,111161
111347,111129
111335,111109
111186,111098
111124,110983
111067,111047
111176,111048
111168,111046
111060,111048
110939,110949
111021,111027
111065,111013
111108,111028
111005,110988
110957,110926
110942,110986
111095,111025
111070,111035
110993,110996
110903,110960
110988,110956
111110,111032
111060,111038
111084,110996
110932,110945
111039,111017
111123,111038
111114,111028
111069,111029
110994,110962
111001,111035
111116,111042
111173,111032
111124,111055
111000,110978
111064,111054
111139,111052
111205,111079
111118,111044
111069,111009
111096,111036
111244,111086
111272,111123
111205,111074
111121,111054
111220,111068
111303,111151
111311,111093
111269,111114
111224,111072
111285,111109
111372,111188
111375,111133
111325,111160
111235,111082
111258,111113
111403,111159
111347,111167
111329,111115
111215,111091
111272,111132
111322,111146
111345,111130
111291,111143
111142,111034
111174,111100
111287,111108
111263,111107
111235,111079
111145,111026
111139,111084
111265,111065
111278,111097
111219,111069
111153,111061
111153,111046
111304,111104
111274,111131
111271,111121
111154,111054
111248,111084
111314,111141
111364,111128
111303,111128
111190,111082
111302,111115
111402,111165
111430,111100
111397,111168
111309,111109
111399,111156
111487,111201
111511,111202
111464,111206
111403,111125
111443,111206
111598,111215
111577,111255
111527,111212
111487,111167
111519,111238
111644,111249
111653,111255
111614,111215
111564,111225
111586,111216
111736,111286
111717,111259
111708,111255
111605,111246
111623,111252
111765,111282
111743,111325
111763,111313
111649,111256
111739,111288
111781,111331
111844,111347
111771,111291
111744,111272
111734,111334
111889,111362
111908,111398
111852,111367
111782,111288
111867,111338
111960,111391
111988,111400
111918,111386
111874,111331
111897,111376
112049,111413
112028,111420
111996,111396
111952,111374
111958,111412
112080,111436
112087,111426
112058,111426
111925,111391
111998,111408
112129,111461
112133,111459
112098,111439
111985,111415
112011,111434
112164,111461
112115,111498
112122,111432
111980,111433
112080,111501
112195,111501
112181,111470
112133,111466
112037,111430
112080,111479
112227,111500
112174,111489
112140,111492
112093,111443
112096,111467
112256,111510
112193,111493
112207,111528
112092,111423
112145,111485
112282,111528
112238,111531
112226,111504
112125,111447
112173,111486
112220,111529
112295,111505
112235,111496
112080,111468
112079,111480
112138,111432
112115,111459
111976,111394
111854,111303
111832,111318
111852,111360
111830,111321
111693,111283
111494,111183
111524,111202
111555,111220
111553,111189
111429,111177
111255,111049
111249,111089
111334,111131
111290,111087
111199,111087
111118,111018
111083,111016
111232,111046
111163,111048
111107,111027
111007,110998
111029,110990
111157,111057
111089,111009
111059,111004
110922,110974
110986,111023
111060,110991
111062,111033
110984,110984
110902,110961
110956,110993
111062,111015
111101,110998
111017,111014
110903,110930
110948,110994
111086,111029
111152,111036
111048,111053
110990,110927
111035,111042
111150,111067
111158,111001
111096,111048
111005,111024
111086,111017
111238,111104
111238,111104
111183,111070
111094,111048
111218,111090
111278,111135
111316,111125
111268,111129
111222,111081
111228,111103
111381,111160
111343,111154
111318,111131
111235,111085
111287,111120
111369,111143
111383,111138
111305,111170
111192,111052
111289,111109
111324,111132
111363,111140
111263,111125
111215,111070
111246,111128
111325,111157
111337,111114
111254,111105
111197,111069
111222,111118
111329,111118
111290,111118
111259,111094
111141,111072
111233,111079
111308,111142
111301,111103
111297,111119
111149,111056
111244,111081
111336,111166
111367,111146
111299,111147
111187,111081
111254,111134
111362,111154
111353,111142
111367,111146
111218,111129
111307,111156
111402,111193
111430,111160
111379,111161
111255,111141
111369,111151
111487,111210
111438,111174
111437,111219
111319,111114
111389,111201
111491,111231
111538,111200
111511,111220
111372,111169
111454,111197
111534,111238
111566,111220
111554,111239
111443,111166
111542,111222
111580,111286
111638,111240
111616,111297
111514,111242
111585,111257
111718,111299
111683,111286
111699,111277
111577,111264
111695,111293
111740,111336
111788,111337
111728,111351
111676,111257
111721,111350
111838,111377
111828,111359
111797,111323
111685,111327
111787,111315
111885,111388
111909,111397
111835,111358
111753,111326
111833,111381
111979,111418
111958,111389
111908,111390
111796,111373
111909,111399
112011,111429
112014,111431
112008,111414
111884,111380
111986,111405
112112,111479
112052,111437
112055,111438
111970,111407
112043,111462
112155,111473
112177,111487
112079,111471
112014,111417
112079,111443
112198,111495
112193,111506
112164,111471
112013,111446
112139,111490
112257,111525
112259,111524
112150,111524
112135,111445
112157,111511
112233,111497
112241,111525
112167,111490
111961,111371
111995,111397
112019,111457
111915,111364
111802,111322
111624,111259
111584,111239
111646,111238
111553,111214
111369,111121
111231,111101
111214,111069
111236,111053
111188,111037
111081,110988
110956,110952
110971,110921
110980,110950
110942,110946
110894,110904
110741,110860
110818,110867
110898,110921
110890,110890
110855,110917
110720,110824
110810,110908
110856,110916
110864,110906
110801,110916
110704,110848
110809,110885
110846,110929
110845,110925
110804,110914
110697,110820
110787,110866
110893,110925
110861,110907
110781,110893
110717,110877
110775,110883
110898,110916
110886,110953
110839,110887
110751,110901
110812,110888
110942,110956
110926,110960
110941,110919
110827,110955
110926,110912
111038,111016
111074,110998
111079,111006
110971,110982
111049,110988
111180,111091
111221,111076
111163,111054
111139,111044
111212,111066
111286,111112
111334,111130
111261,111091
111215,111091
111258,111108
111339,111107
111388,111102
111277,111123
111146,111063
111230,111071
111323,111119
111292,111100
111213,111042
111130,111050
111182,111036
111235,111096
111250,111095
111139,111049
111039,111007
111063,111039
111155,111026
111129,111010
111098,111043
110974,110929
111031,110994
111129,111055
111145,111012
111086,111004
110962,110953
111078,110979
111130,111082
111152,111012
111134,111018
111029,111004
111126,111029
111220,111104
111213,111065
111228,111046
111152,111021
111198,111051
111302,111078
111311,111092
111228,111107
111193,111015
111255,111096
111353,111128
111351,111146
111342,111086
111232,111100
111330,111086
111412,111158
111423,111135
111389,111113
111307,111121
111399,111171
111503,111163
111526,111202
111495,111167
111360,111112
111463,111173
111555,111253
111551,111214
111526,111219
111471,111164
111512,111192
111601,111213
111666,111232
111559,111240
111506,111163
111602,111233
111689,111244
111705,111292
111635,111237
111610,111233
111668,111272
111733,111299
111805,111313
111712,111321
111663,111235
111749,111275
111798,111312
111861,111348
111797,111326
111693,111257
111802,111318
111844,111348
111905,111371
111872,111322
111770,111292
111864,111330
111923,111358
111988,111350
111919,111376
111863,111354
111902,111360
111966,111400
112055,111363
111976,111412
111913,111373
111973,111404
112057,111427
112103,111426
112061,111393
111982,111411
112048,111422
112143,111418
112162,111448
112094,111428
112039,111383
112108,111441
112151,111499
112181,111427
112086,111417
111948,111380
111908,111323
111949,111390
111845,111294
111773,111263
111573,111162
111550,111182
111575,111189
111447,111141
111347,111085
111177,111007
111157,111005
111229,111020
111122,110987
111078,110971
110892,110876
110973,110929
110984,110898
110994,110926
110914,110908
110793,110877
110895,110890
110934,110920
110935,110899
110925,110914
110801,110860
110911,110883
110972,110932
111017,110944
110965,110927
110908,110846
110972,110943
111058,110929
111124,110973
111061,110975
111028,110924
111088,110951
111179,111023
111226,111007
111208,110977
111122,110970
111212,111044
111329,111053
111346,111094
111305,111026
111272,111039
111317,111069
111443,111120
111456,111150
111476,111118
111363,111088
111485,111136
111543,111226
111561,111150
111606,111217
111485,111130
111586,111192
111745,111250
111662,111209
111684,111204
111582,111197
111655,111225
111704,111256
111710,111217
111704,111223
111581,111152
111704,111247
111742,111252
111718,111244
111703,111212
111588,111179
111570,111211
111678,111203
111696,111222
111624,111179
111543,111152
111539,111167
111629,111193
111607,111206
111556,111150
111399,111121
111457,111116
111530,111152
111523,111117
111507,111156
111384,111078
111444,111136
111513,111115
111511,111167
111516,111136
111379,111121
111480,111094
111527,111173
111574,111200
111515,111134
111460,111116
111512,111158
111618,111174
111619,111220
111611,111205
111497,111154
111602,111163
111696,111252
111653,111178
111669,111218
111532,111162
111667,111191
111728,111277
111702,111219
111744,111259
111622,111169
111685,111221
111764,111265
111814,111245
111767,111217
111721,111205
111763,111260
111878,111275
111882,111295
111851,111292
111756,111246
111871,111232
111895,111333
111903,111317
111922,111311
111839,111250
111856,111316
112022,111343
112001,111363
111946,111332
111873,111268
111941,111347
112053,111339
112054,111392
112003,111331
111955,111320
112020,111363
112066,111396
112080,111393
112099,111384
111980,111344
112074,111383
112108,111395
112161,111414
112103,111364
112083,111345
112099,111398
112188,111407
112231,111420
112177,111422
112085,111376
112213,111403
112265,111485
112262,111460
112269,111443
112138,111412
112263,111402
112315,111526
112313,111472
112326,111428
112231,111435
112280,111473
112360,111494
112383,111515
112335,111463
112273,111444
112315,111495
112408,111505
112417,111503
112349,111490
112295,111449
112370,111480
112422,111551
112395,111464
112408,111511
112264,111437
112278,111482
112337,111500
112335,111463
112233,111406
112110,111334
112125,111419
112149,111386
112105,111363
111994,111298
111840,111254
111850,111260
111895,111281
111845,111256
111805,111225
111648,111178
111661,111210
111731,111235
111703,111183
111662,111165
111530,111122
111600,111155
111656,111184
111641,111190
111616,111145
111497,111113
111581,111138
111680,111218
111664,111172
111590,111157
111514,111113
111571,111117
111690,111169
111653,111178
111618,111163
111572,111100
111599,111190
111717,111231
111717,111189
111672,111165
111595,111132
111683,111201
111751,111192
111777,111206
111718,111206
111687,111169
111742,111212
111796,111268
111832,111224
111811,111223
111717,111183
111802,111268
111885,111243
111935,111290
111880,111246
111822,111224
111903,111243
112025,111323
111974,111320
111993,111296
111883,111254
111966,111288
112019,111342
111997,111313
112011,111317
111898,111235
111971,111331
112043,111324
112030,111312
111947,111324
111867,111190
111928,111313
111981,111318
111977,111272
111922,111274
111776,111217
111898,111265
111942,111298
111880,111226
111877,111227
111764,111197
111825,111196
111905,111272
111825,111267
111833,111223
111757,111168
111781,111208
111891,111243
111898,111265
111853,111253
111797,111184
111839,111252
111946,111278
111910,111294
111911,111256
111765,111208
111872,111282
111927,111294
111982,111280
111963,111256
111835,111206
111913,111293
111982,111310
111998,111261
111966,111272
111895,111210
111970,111276
112027,111347
112037,111290
112014,111287
111963,111257
112031,111315
112094,111350
112057,111306
112058,111309
111966,111299
112068,111335
112127,111372
112154,111359
112081,111358
111994,111263
112100,111343
112175,111394
112149,111347
112154,111337
112056,111331
112126,111323
112167,111377
112255,111407
112222,111381
112086,111344
112199,111377
112260,111446
112236,111378
112234,111422
112129,111347
112253,111397
112288,111443
112276,111454
112294,111419
112155,111360
112274,111423
112343,111456
112375,111433
112308,111455
112237,111385
112316,111475
112388,111475
112400,111446
112367,111486
112273,111380
112362,111442
112452,111500
112454,111470
112403,111493
112303,111394
112434,111509
112493,111539
112439,111502
112459,111524
112334,111433
112456,111534
112514,111553
112556,111536
112491,111513
112409,111469
112483,111484
112568,111571
112495,111506
112424,111507
112369,111469
112380,111444
112412,111478
112302,111421
112227,111403
112067,111312
112078,111319
112044,111287
112030,111329
111880,111217
111729,111164
111739,111222
111737,111203
111695,111143
111619,111116
111475,111083
111519,111068
111564,111129
111521,111089
111438,111058
111345,110961
111356,111072
111452,111053
111435,111042
111409,111039
111254,110971
111357,111057
111374,111058
111381,111031
111348,110984
111248,110982
111328,110993
111407,111058
111385,111048
111363,111021
111280,110948
111354,111022
111439,111065
111455,111004
111403,111061
111338,110984
111374,111034
111512,111116
111488,111087
111478,111044
111372,111013
111490,111094
111565,111128
111584,111130
111575,111130
111468,111070
111602,111144
111670,111160
111674,111169
111715,111151
111592,111126
111761,111225
111779,111223
111814,111234
111837,111203
111695,111197
111829,111166
111929,111283
111879,111263
111880,111254
111777,111156
111841,111236
111980,111285
111894,111253
111864,111218
111794,111185
111866,111237
111882,111241
111868,111223
111858,111184
111693,111172
111770,111189
111817,111249
111801,111188
111785,111168
111594,111132
111743,111142
111753,111197
111793,111158
111724,111132
111632,111084
111683,111170
111729,111160
111783,111190
111710,111139
111595,111126
111684,111174
111801,111187
111783,111156
111722,111162
111673,111132
111745,111160
111873,111246
111796,111180
111851,111184
111732,111168
111849,111199
111916,111270
111890,111209
111913,111203
111806,111216
111904,111235
112012,111280
111987,111285
111988,111248
111871,111228
111989,111237
112107,111327
112039,111301
112026,111281
111980,111232
112093,111301
112149,111345
112165,111351
112116,111330
112058,111243
112136,111354
112209,111363
112209,111389
112165,111334
112070,111277
112213,111358
112267,111413
112278,111386
112216,111398
112152,111328
112243,111395
112303,111427
112316,111425
112295,111357
112227,111381
112330,111382
112404,111438
112401,111425
112366,111426
112245,111337
112374,111437
112450,111461
112441,111433
112470,111415
112303,111420
112460,111423
112505,111501
112482,111441
112487,111467
112378,111405
112485,111478
112539,111509
112576,111468
112497,111494
112386,111391
112508,111445
112627,111563
112589,111482
112561,111473
112415,111427
112492,111499
112641,111558
112604,111491
112531,111469
112424,111401
112460,111436
112464,111468
112298,111419
112200,111320
111939,111241
111955,111202
111894,111243
111805,111142
111625,111091
111374,110998
111369,110943
111391,111003
111222,110885
111090,110836
110845,110768
110897,110743
110977,110842
110883,110719
110802,110741
110632,110646
110763,110688
110775,110755
110764,110685
110715,110719
110590,110634
110667,110711
110822,110733
110748,110741
110708,110729
110660,110668
110769,110742
110847,110741
110853,110783
110855,110751
110784,110748
110891,110797
111007,110806
110995,110872
111029,110834
110972,110812
111073,110886
111182,110907
111206,110928
111155,110887
111152,110855
111273,110954
111337,110990
111389,111008
111368,111015
111283,110940
111369,111027
111530,111059
111521,111026
111539,111066
111446,111005
111599,111073
111704,111130
111645,111111
111652,111087
111575,111102
111697,111137
111807,111165
111796,111156
111771,111179
111641,111076
111776,111172
111813,111191
111839,111201
111756,111162
111681,111106
111738,111193
111808,111143
111783,111158
111687,111120
111576,111050
111630,111130
111727,111144
111678,111100
111590,111076
111502,111043
111582,111063
111621,111089
111565,111064
111493,111045
111419,110999
111485,111015
111563,111063
111531,111045
111483,111028
111360,110982
111471,111024
111545,111056
111516,111032
111492,111035
111385,110977
111497,111047
111585,111084
111553,111090
111556,111052
111427,110996
111564,111078
111634,111115
111660,111098
111574,111113
111530,111010
111665,111085
111722,111143
111737,111164
111721,111141
111598,111079
111729,111123
111855,111212
111847,111176
111782,111157
111701,111146
111806,111156
111943,111225
111939,111188
111879,111197
111759,111139
111888,111201
112020,111259
111999,111250
111951,111234
111837,111167
111960,111241
112072,111269
112073,111260
112016,111234
111963,111228
112046,111251
112157,111274
112155,111308
112133,111288
112016,111212
112168,111294
112207,111330
112219,111333
112196,111298
112121,111325
112208,111326
112326,111358
112280,111370
112239,111310
112163,111284
112284,111350
112366,111391
112340,111374
112307,111375
112227,111338
112314,111355
112433,111423
112409,111402
112359,111388
112247,111345
112380,111407
112442,111389
112456,111404
112404,111429
112331,111385
112404,111409
112501,111435
112495,111441
112447,111409
112314,111379
112437,111419
112497,111424
112461,111426
112371,111390
112173,111315
112224,111332
112237,111313
112095,111276
111916,111203
111715,111111
111716,111058
111692,111077
111524,111001
111346,110944
111125,110844
111113,110834
111104,110837
110985,110760
110860,110735
110708,110660
110731,110674
110819,110711
110711,110666
110658,110640
110481,110589
110623,110601
110672,110651
110657,110630
110587,110632
110506,110560
110596,110629
110697,110653
110696,110645
110668,110643
110592,110651
110729,110667
110837,110735
110835,110705
110863,110751
110824,110697
110948,110785
111057,110798
111050,110805
111057,110845
110976,110780
111165,110864
111256,110908
111223,110877
111235,110921
111209,110869
111326,110964
111456,110977
111460,110995
111425,110952
111391,110966
111466,111038
111602,111075
111616,111078
111614,111034
111520,111048
111667,111089
111753,111136
111786,111109
111724,111132
111611,111053
111803,111132
111846,111166
111810,111137
111811,111156
111711,111099
111764,111177
111901,111184
111815,111158
111746,111122
111670,111095
111751,111151
111849,111117
111769,111113
111647,111108
111561,111022
111678,111085
111713,111111
111654,111065
111609,111038
111450,110977
111541,111053
111635,111044
111572,111040
111538,111013
111417,111005
111490,111014
111626,111065
111558,111030
111467,111043
111412,110934
111529,111038
111605,111020
111585,111048
111551,111027
111422,110977
111574,111011
111610,111057
111618,111026
111624,111036
111513,110994
111620,111067
111745,111116
111724,111112
111699,111072
111553,111037
111731,111125
111804,111135
111778,111108
111741,111108
111664,111099
111816,111138
111870,111175
111842,111148
111835,111141
111746,111117
111903,111169
111953,111194
111942,111203
111943,111189
111843,111147
111939,111206
112050,111235
112017,111215
112029,111227
111918,111173
112053,111237
112122,111264
112154,111270
112113,111246
112022,111231
112124,111261
112220,111293
112216,111295
112211,111299
112098,111245
112218,111298
112288,111306
112305,111364
112278,111308
112139,111262
112293,111312
112358,111335
112335,111363
112331,111342
112202,111301
112328,111333
112422,111403
112387,111351
112349,111354
112264,111317
112377,111372
112450,111402
112396,111383
112394,111376
112287,111330
112413,111393
112496,111390
112482,111410
112454,111402
112346,111342
112440,111383
112536,111451
112506,111434
112455,111395
112326,111364
112412,111374
112449,111381
112369,111329
112237,111299
112087,111239
112070,111223
112035,111232
111920,111179
111827,111102
111599,111033
111647,111024
111605,111038
111532,110990
111459,110958
111286,110891
111322,110917
111354,110904
111244,110872
111222,110844
111067,110801
111158,110848
111193,110848
111170,110832
111141,110823
111030,110772
111122,110815
111189,110859
111177,110860
111162,110838
111035,110795
111166,110845
111262,110878
111233,110861
111231,110883
111171,110847
111275,110891
111389,110954
111353,110927
111351,110914
111308,110879
111433,110957
111514,111006
111506,110999
111472,110957
111395,110937
111542,110999
111622,111031
111616,111049
111650,111041
111521,111000
111638,111065
111727,111099
111757,111069
111735,111064
111658,111061
111807,111109
111885,111157
111893,111140
111867,111129
111804,111103
111941,111161
111995,111218
111975,111156
111949,111166
111851,111134
111962,111186
112011,111201
112002,111190
111993,111165
111845,111127
111926,111161
111992,111205
111942,111165
111907,111137
111773,111088
111869,111133
111884,111162
111871,111132
111826,111096
111672,111065
111768,111121
111826,111120
111781,111121
111758,111081
111608,111026
111710,111080
111785,111100
111743,111073
111690,111054
111591,111017
111692,111070
111780,111082
111707,111061
111697,111080
111598,111030
111709,111075
111784,111098
111737,111082
111736,111081
111626,111043
111705,111071
111835,111150
111815,111131
111770,111090
111722,111100
111822,111112
111887,111150
111845,111133
111838,111110
111765,111128
111874,111143
111911,111171
111928,111197
111938,111145
111782,111127
111924,111161
112016,111181
111985,111189
111969,111183
111912,111115
111978,111184
112086,111253
112069,111232
112043,111203
111938,111176
112102,111239
112154,111275
112163,111245
112082,111227
112042,111208
112143,111260
112242,111313
112212,111273
112183,111266
112092,111227
112232,111288
112319,111343
112273,111310
112236,111314
112176,111219
112266,111343
112341,111378
112334,111331
112308,111311
112244,111241
112372,111373
112427,111397
112418,111353
112417,111349
112313,111341
112416,111328
112482,111396
112438,111381
112443,111366
112368,111338
112449,111346
112521,111433
112511,111406
112484,111346
112420,111365
112509,111394
112556,111426
112540,111423
112485,111415
112382,111324
112486,111414
112485,111416
112446,111371
112330,111309
112206,111222
112188,111254
112145,111280
112027,111216
111869,111101
111760,111037
111710,111067
111676,111063
111602,111018
111481,110930
111315,110899
111307,110858
111310,110915
111250,110833
111135,110818
111018,110726
111103,110816
111123,110831
111089,110773
110983,110752
110929,110682
111035,110751
111100,110816
111035,110778
111018,110716
110954,110736
111019,110741
111114,110801
111103,110803
111083,110789
111031,110774
111120,110810
111220,110894
111221,110848
111198,110827
111170,110827
111274,110934
111324,110919
111367,110870
111344,110897
111280,110879
111382,110953
111477,110995
111489,110966
111457,110952
111404,110926
111589,111017
111651,111051
111630,111015
111593,111024
111593,110974
111694,111072
111822,111106
111778,111106
111789,111049
111766,111078
111860,111130
111933,111149
111966,111128
111925,111157
111799,111102
111941,111184
112021,111183
112016,111162
111955,111184
111817,111119
111986,111193
112004,111210
111967,111151
111888,111097
111818,111085
111843,111120
111916,111166
111847,111095
111773,111071
111717,111034
111764,111111
111783,111099
111755,111062
111701,111031
111635,111048
111705,111047
111781,111095
111651,111058
111658,110993
111562,110994
111654,111010
111739,111073
111669,111050
111642,110996
111574,111008
111645,111012
111719,111052
111710,111057
111654,111065
111567,110965
111700,111082
111762,111117
111700,111035
111709,111041
111647,111027
111730,111051
111833,111099
111739,111099
111735,111062
111681,110994
111782,111153
111887,111150
111840,111138
111773,111099
111721,111059
111868,111146
111941,111176
111918,111131
111901,111111
111832,111155
111930,111147
112040,111215
111962,111184
111971,111134
111902,111173
112009,111182
112087,111203
112033,111202
112032,111202
111983,111125
112041,111243
112162,111264
112124,111217
112061,111194
112040,111166
112103,111282
112218,111287
112193,111271
112148,111257
112116,111253
112226,111246
112290,111340
112262,111282
112254,111287
112179,111266
112253,111324
112379,111360
112330,111337
112260,111297
112255,111253
112346,111334
112441,111369
112366,111330
112368,111326
112272,111331
112456,111370
112507,111390
112425,111356
112413,111307
112385,111365
112489,111368
112534,111408
112460,111395
112443,111327
112271,111323
112383,111362
112372,111345
112189,111300
112071,111203
111885,111102
111887,111173
111863,111087
111666,111013
111513,110937
111314,110862
111304,110873
111266,110872
111084,110762
110939,110695
110787,110637
110819,110651
110832,110694
110782,110658
110633,110585
110544,110507
110619,110599
110636,110579
110596,110566
110553,110544
110424,110505
110561,110580
110624,110601
110603,110540
110563,110538
110470,110512
110621,110597
110682,110628
110702,110579
110658,110604
110615,110539
110748,110597
110838,110680
110827,110666
110847,110665
110818,110670
110965,110715
111081,110782
111063,110752
111026,110766
110971,110734
111152,110827
111242,110859
111221,110819
111254,110840
111150,110833
111327,110922
111411,110928
111423,110957
111368,110921
111412,110885
111504,110981
111612,111032
111623,110991
111597,110978
111546,111013
111688,111022
111745,111081
111757,111049
111689,111046
111637,110975
111732,111047
111850,111087
111772,111052
111729,111041
111637,110993
111724,111051
111769,111082
111699,111024
111576,110974
111564,110949
111649,110984
111671,111020
111604,110971
111512,110969
111405,110892
111482,110944
111528,110947
111452,110941
111391,110879
111319,110881
111410,110913
111417,110933
111400,110879
111319,110869
111267,110859
111365,110905
111428,110919
111390,110888
111308,110842
111249,110853
111390,110898
111475,110920
111419,110895
111329,110882
111324,110884
111433,110916
111488,110917
111471,110944
111405,110923
111382,110898
111505,110954
111563,110969
111544,110932
111506,110943
111474,110914
111554,110967
111624,110991
111613,110970
111572,110978
111505,110899
111703,111015
111691,111067
111702,111026
111641,110995
111608,111007
111706,111026
111818,111038
111741,111052
111747,111038
111655,111017
111815,111027
111891,111118
111829,111036
111783,111048
111736,111019
111890,111119
111902,111107
111887,111120
111833,111099
111753,111073
111914,111116
111981,111139
111955,111134
111848,111103
111843,111079
111983,111128
112056,111150
111962,111140
111963,111099
111876,111119
112000,111148
112118,111182
112064,111176
111977,111154
111966,111092
112085,111168
112150,111213
112112,111191
112021,111149
111958,111160
112120,111201
112161,111204
112097,111197
112043,111152
111989,111157
112097,111187
112194,111212
112072,111183
111986,111138
111843,111054
111854,111120
111803,111012
111678,111007
111476,110904
111283,110793
111277,110808
111192,110749
110952,110704
110772,110561
110600,110502
110668,110556
110598,110539
110524,110446
110338,110392
110261,110373
110302,110424
110384,110376
110232,110382
110123,110304
110059,110293
110145,110349
110211,110318
110183,110317
110095,110284
110002,110247
110136,110322
110189,110339
110153,110323
110081,110261
110043,110300
110181,110322
110273,110383
110187,110331
110208,110312
110098,110351
110278,110402
110414,110435
110349,110430
110320,110365
110268,110424
110417,110466
110552,110499
110526,110491
110440,110460
110442,110470
110610,110553
110698,110550
110702,110561
110643,110564
110568,110534
110774,110632
110899,110614
110827,110637
110840,110642
110841,110632
110969,110724
111075,110693
111046,110725
111025,110711
110973,110700
111161,110750
111198,110810
111163,110796
111097,110748
111032,110737
111180,110801
111267,110776
111176,110767
111102,110750
111029,110698
111127,110750
111171,110763
111093,110744
111010,110667
110927,110691
111000,110715
111068,110702
110989,110658
110890,110661
110775,110581
110935,110643
110939,110690
110887,110648
110806,110605
110713,110590
110836,110592
110884,110675
110861,110614
110756,110585
110700,110574
110849,110618
110862,110640
110827,110633
110792,110590
110705,110546
110857,110643
110887,110655
110880,110651
110855,110621
110767,110565
110921,110642
111024,110679
110967,110683
110848,110607
110841,110654
110958,110673
111073,110702
111019,110686
111004,110670
110931,110625
111079,110710
111125,110776
111079,110733
111088,110717
111031,110652
111176,110753
111254,110800
111204,110795
111143,110733
111112,110742
111273,110791
111323,110838
111357,110822
111271,110807
111255,110792
111349,110835
111470,110905
111449,110845
111361,110831
111357,110818
111474,110897
111540,110910
111523,110920
111458,110857
111447,110891
111536,110917
111663,110943
111578,110911
111542,110895
111500,110877
111650,110979
111687,110943
111640,110925
111585,110952
111562,110904
111685,110973
111711,110987
111717,110986
111640,110958
111620,110940
111710,111014
111818,111010
111762,111010
111702,110965
111703,110988
111804,111013
111805,111046
111824,111028
111771,110947
111724,111006
111775,111025
111847,111043
111783,111026
111689,110969
111634,110927
111636,110980
111634,110922
111494,110880
111379,110826
111234,110770
111235,110803
111237,110788
111091,110722
110975,110616
110860,110587
110855,110645
110855,110573
110740,110542
110603,110498
110527,110486
110598,110485
110639,110543
110550,110481
110445,110394
110432,110409
110504,110425
110513,110458
110477,110428
110422,110404
110355,110367
110503,110453
110520,110470
110498,110417
110440,110386
110398,110429
110522,110469
110542,110481
110515,110461
110467,110439
110468,110417
110580,110492
110621,110498
110604,110486
110561,110443
110545,110490
110610,110526
110729,110554
110715,110558
110619,110494
110598,110526
110777,110549
110790,110610
110762,110570
110794,110536
110736,110599
110879,110628
110984,110670
110937,110656
110913,110605
110913,110664
111063,110713
111076,110691
111062,110709
110977,110670
110987,110654
111159,110768
111147,110729
111152,110707
111077,110663
111035,110690
111115,110729
111214,110759
111135,110728
111060,110650
111001,110692
111124,110703
111159,110763
111049,110683
111059,110641
110982,110621
111045,110741
111120,110677
111054,110701
110962,110680
110915,110605
111026,110698
111095,110679
110979,110651
110933,110607
110874,110646
110991,110634
111064,110656
111025,110651
110968,110644
110895,110632
111079,110658
111075,110717
111058,110673
111016,110665
110953,110620
111145,110703
111141,110728
111132,110716
111108,110644
111098,110689
111179,110778
111258,110764
111204,110749
111141,110739
111182,110716
111344,110785
111349,110821
111316,110770
111281,110765
111291,110750
111431,110840
111477,110829
111397,110822
111390,110822
111382,110810
111549,110873
111594,110885
111533,110864
111480,110827
111506,110852
111634,110911
111659,110924
111616,110904
111587,110879
111570,110883
111720,110946
111758,110946
111686,110950
111635,110905
111660,110904
111755,110974
111859,110979
111767,110979
111718,110944
111715,110934
111793,111012
111898,111009
111819,110973
111744,110967
111751,110938
111879,111030
111906,110984
111871,111011
111818,110969
111798,110980
111882,110998
111947,111051
111880,111014
111843,110964
111829,110993
111901,111002
111980,111097
111931,111047
111831,110999
111833,110953
111968,111052
111992,111063
111940,111047
111885,110982
111861,111011
111893,111071
111901,111017
111769,110979
111624,110884
111512,110849
111594,110893
111484,110821
111344,110812
111151,110721
111001,110621
111009,110627
110937,110630
110768,110523
110632,110462
110559,110409
110600,110479
110597,110458
110472,110413
110375,110320
110372,110351
110402,110347
110441,110382
110356,110339
110264,110307
110248,110295
110389,110356
110384,110339
110366,110351
110276,110298
110277,110296
110359,110374
110428,110372
110403,110334
110327,110328
110337,110337
110489,110382
110486,110415
110515,110410
110453,110353
110472,110385
110624,110450
110661,110457
110635,110462
110617,110451
110641,110450
110786,110514
110850,110543
110815,110554
110795,110519
110779,110533
110970,110621
111014,110638
110953,110617
110937,110588
110941,110627
111153,110673
111158,110694
111149,110705
111069,110630
111100,110647
111215,110768
111295,110755
111223,110714
111176,110687
111134,110700
111316,110742
111309,110729
111265,110725
111146,110665
111153,110695
111269,110770
111273,110738
111167,110704
111079,110656
111033,110625
111124,110697
111097,110698
111041,110645
110925,110549
110918,110562
110963,110615
111005,110625
110896,110596
110807,110554
110734,110516
110896,110581
110908,110535
110858,110555
110718,110476
110763,110492
110826,110573
110872,110584
110829,110540
110779,110531
110741,110484
110851,110586
110906,110559
110830,110548
110798,110528
110799,110542
110964,110560
110978,110594
110945,110578
110917,110581
110877,110613
111041,110633
111083,110653
111112,110660
110979,110592
111014,110608
111152,110697
111251,110718
111163,110691
111122,110648
111173,110668
111280,110735
111310,110757
111292,110747
111262,110713
111215,110753
111418,110786
111444,110759
111387,110789
111342,110755
111373,110734
111475,110850
111496,110829
111519,110802
111444,110823
111438,110813
111600,110844
111645,110872
111588,110885
111553,110820
111558,110842
111678,110896
111735,110918
111697,110886
111561,110862
111597,110834
111743,110964
111758,110929
111746,110926
111600,110876
111686,110876
111740,110971
111788,110973
111805,110952
111683,110918
111699,110925
111842,110997
111883,110980
111850,110951
111758,110954
111742,110928
111906,111010
111955,111014
111852,110954
111800,110935
111821,110954
111871,110960
111854,110965
111753,110891
111574,110848
111440,110813
111435,110796
111365,110746
111193,110690
110995,110584
110825,110556
110836,110505
110751,110460
110577,110369
110380,110324
110327,110309
110344,110266
110314,110278
110219,110227
110092,110193
110050,110209
110163,110195
110194,110205
110060,110166
109993,110127
110002,110144
110119,110152
110138,110167
110121,110161
110009,110137
110020,110156
110145,110242
110183,110228
110177,110200
110106,110223
110116,110188
110326,110272
110375,110291
110299,110291
110265,110256
110348,110276
110434,110383
110525,110352
110497,110375
110447,110336
110551,110393
110651,110454
110706,110470
110736,110462
110686,110422
110768,110494
110900,110518
110944,110574
110934,110564
110882,110550
110961,110549
111080,110636
111174,110641
111155,110665
111081,110607
111168,110657
111301,110677
111334,110728
111282,110711
111228,110652
111224,110679
111352,110751
111322,110728
111317,110684
111190,110671
111164,110664
111308,110722
111302,110700
111214,110680
111075,110660
111032,110611
111169,110694
111140,110656
111042,110637
110929,110529
110967,110529
110979,110598
110965,110575
110951,110532
110841,110490
110795,110506
110904,110538
110870,110517
110844,110534
110709,110464
110754,110450
110806,110502
110836,110530
110807,110521
110705,110444
110758,110448
110835,110497
110903,110509
110896,110526
110802,110506
110829,110462
110916,110585
110974,110539
110947,110534
110851,110544
110934,110527
111022,110576
111099,110587
111086,110545
111015,110573
111012,110598
111160,110674
111179,110675
111185,110638
111100,110607
111140,110610
111219,110715
111270,110685
111232,110668
111189,110639
111169,110638
111345,110768
111337,110712
111339,110695
111257,110712
111250,110695
111403,110779
111386,110762
111365,110726
111291,110724
111310,110692
111442,110812
111429,110779
111414,110799
111337,110713
111406,110735
111491,110789
111561,110808
111478,110769
111439,110760
111452,110778
111515,110816
111598,110829
111528,110833
111463,110754
111468,110813
111575,110798
111645,110889
111585,110805
111504,110779
111503,110821
111621,110874
111639,110893
111656,110858
111581,110845
111541,110838
111675,110874
111747,110912
111654,110889
111559,110826
111631,110878
111711,110910
111687,110909
111653,110871
111541,110808
111498,110809
111492,110818
111436,110785
111265,110708
111099,110575
110948,110565
110941,110573
110798,110497
110610,110399
110416,110303
110317,110288
110322,110308
110259,110228
110135,110181
109980,110105
109960,110097
110009,110149
109981,110129
109917,110081
109794,110041
109768,110020
109858,110062
109877,110077
109798,110070
109715,110022
109737,109994
109813,110071
109850,110079
109817,110073
109749,109985
109808,110048
109917,110070
109942,110105
109937,110115
109841,110076
109933,110085
110009,110138
110118,110152
110076,110178
109999,110113
110086,110172
110204,110234
110243,110254
110244,110257
110189,110177
110227,110262
110380,110323
110419,110309
110480,110311
110388,110309
110432,110348
110585,110410
110670,110431
110625,110387
110644,110390
110669,110445
110821,110509
110880,110525
110872,110484
110808,110479
110894,110462
110968,110559
111037,110586
110992,110542
110935,110523
110921,110522
111010,110581
111080,110592
111003,110523
110903,110514
110869,110480
110959,110532
111002,110548
110876,110518
110802,110444
110800,110440
110900,110499
110862,110518
110814,110454
110692,110428
110733,110409
110813,110459
110809,110475
110760,110405
110686,110358
110658,110443
110780,110445
110817,110465
110751,110405
110667,110371
110680,110417
110805,110459
110848,110475
110801,110451
110696,110414
110771,110423
110900,110501
110907,110515
110905,110464
110833,110478
110856,110464
111010,110561
111021,110551
111023,110533
110927,110481
111025,110548
111115,110611
111171,110559
111113,110611
111053,110539
111153,110585
111226,110628
111323,110653
111254,110617
111212,110613
111219,110665
111400,110679
111392,110709
111381,110720
111281,110612
111327,110704
111467,110738
111496,110714
111477,110730
111330,110696
111440,110726
111523,110778
111580,110757
111519,110758
111470,110712
111465,110742
111591,110785
111689,110819
111546,110762
111494,110710
111494,110766
111641,110797
111648,110835
111669,110782
111553,110774
111591,110759
111742,110837
111701,110833
111695,110831
111588,110789
