11111,11111
0,0
81775,80928
104578,101200
104650,101247
104673,101247
104629,101215
104665,101241
104610,101191
104669,101273
104707,101274
104690,101295
104741,101276
104717,101278
104786,101308
104815,101319
104809,101313
104807,101287
104776,101295
104833,101294
104900,101346
104873,101327
104813,101295
104817,101268
104814,101326
104864,101304
104833,101311
104820,101284
104731,101288
104797,101270
104853,101317
104770,101302
104764,101273
104732,101246
104739,101268
104794,101247
104749,101300
104736,101232
104725,101229
104727,101243
104792,101247
104724,101282
104753,101232
104672,101245
104731,101227
104771,101263
104802,101256
104746,101275
104670,101193
104764,101268
104783,101267
104807,101240
104758,101222
104726,101237
104787,101297
104818,101290
104834,101299
104849,101304
104804,101236
104862,101337
104885,101305
104928,101331
104913,101325
104829,101267
104981,101356
104957,101364
104966,101396
104961,101346
104965,101338
105083,101430
105086,101417
105109,101449
105088,101389
105088,101395
105148,101452
105221,101454
105197,101423
105205,101465
105246,101439
105268,101532
105302,101508
105322,101497
105338,101503
105273,101490
105406,101523
105421,101581
105402,101536
105411,101534
105395,101521
105511,101568
105498,101602
105523,101564
105549,101581
105480,101586
105596,101639
105590,101646
105596,101624
105609,101626
105540,101551
105662,101671
105680,101642
105699,101708
105668,101631
105686,101615
105744,101685
105755,101667
105791,101690
105722,101669
105754,101638
105818,101730
105823,101749
105869,101709
105837,101720
105830,101707
105852,101735
105927,101726
105958,101761
105917,101717
105892,101724
105941,101758
106009,101778
105951,101788
105949,101726
105924,101755
106005,101803
106008,101812
106337,101947
106304,101902
106199,101860
103949,100809
103975,100848
103932,100830
104171,100896
104194,100940
104250,100963
104256,101012
104440,101096
104468,101047
104447,101041
104452,101045
104547,101124
104509,101088
104503,101112
104473,101071
104504,101077
104504,101107
104565,101088
104507,101103
104497,101065
104463,101059
104530,101104
104544,101117
104493,101066
104434,101006
104459,101088
104501,101082
104485,101099
104469,101048
104418,101026
104389,101001
104452,101049
104463,101064
104422,101060
104369,100979
104390,101040
104407,101040
104456,101074
104412,101033
104373,100982
104370,101016
104411,101041
104452,101072
104425,101023
104363,101040
104384,101039
104486,101044
104465,101034
104446,101035
104465,101058
104486,101065
104523,101065
104560,101137
104546,101084
104529,101080
104521,101068
104622,101135
104630,101150
104638,101119
104562,101103
104604,101149
104686,101143
104727,101173
104680,101154
104685,101170
104739,101172
104759,101225
104803,101181
104791,101193
104772,101182
104791,101220
104856,101213
104903,101254
104903,101247
104860,101228
104867,101221
104983,101298
104951,101317
104961,101266
104994,101251
104991,101319
105022,101340
105072,101310
105077,101335
105026,101320
105094,101316
105131,101343
105171,101376
105121,101385
105068,101296
105156,101373
105193,101383
105181,101396
105201,101375
105150,101320
105196,101370
105255,101406
105254,101398
105240,101407
105209,101374
105231,101345
105299,101422
105299,101461
105261,101406
105250,101376
105286,101395
105307,101436
105308,101460
105297,101419
105329,101430
105303,101421
105354,101458
105365,101464
105346,101468
105302,101385
105336,101475
105364,101447
105431,101480
105351,101486
105342,101433
105360,101480
105395,101471
105438,101466
105377,101455
105404,101422
105400,101501
105435,101478
105492,101489
105459,101515
105379,101448
105489,101463
105507,101543
105512,101496
105520,101534
105461,101513
105521,101519
105519,101524
105544,101543
105517,101509
105505,101542
105563,101507
105619,101569
105626,101588
105563,101558
105564,101513
105566,101550
105629,101580
105601,101573
105631,101546
105555,101542
105641,101530
105711,101599
105677,101590
105639,101564
105650,101538
105661,101601
105696,101573
105780,101627
105727,101589
105689,101581
105756,101631
105750,101632
105837,101661
105778,101633
105750,101606
105826,101638
105857,101679
105888,101675
105837,101653
105827,101640
105872,101652
105927,101725
105910,101711
105918,101674
105913,101687
105897,101697
105983,101732
105975,101717
105936,101679
105901,101667
105883,101663
105869,101640
105782,101589
105638,101531
105407,101455
105325,101373
105225,101365
105016,101218
104849,101167
104655,101087
104610,101038
104507,101035
104366,100933
104292,100931
104144,100854
104108,100817
104025,100822
103983,100804
103879,100722
103784,100691
103777,100712
103744,100700
103689,100689
103588,100624
103544,100571
103500,100582
103548,100622
103452,100577
103438,100570
103391,100486
103406,100554
103393,100532
103407,100527
103393,100534
103361,100494
103361,100559
103396,100517
103420,100570
103412,100516
103326,100492
103436,100544
103482,100562
103391,100546
103452,100550
103422,100508
103457,100524
103491,100590
103523,100592
103439,100593
103441,100554
103474,100584
103516,100605
103507,100585
103528,100577
103454,100597
103529,100577
103551,100631
103555,100572
103537,100629
103469,100515
103539,100627
103561,100621
103532,100628
103536,100595
103495,100584
103548,100605
103626,100682
103587,100617
103613,100627
103546,100557
103608,100655
103692,100683
103652,100638
103663,100643
103614,100601
103673,100670
103744,100717
103729,100645
103689,100667
103580,100588
103639,100675
103718,100688
103655,100650
103644,100618
103557,100644
103665,100624
103651,100639
103640,100610
103626,100654
103542,100549
103621,100622
103660,100634
103570,100625
103600,100604
103536,100589
103595,100633
103607,100587
103563,100651
103546,100620
103522,100573
103578,100648
103595,100595
103597,100667
103559,100594
103528,100575
103572,100604
103660,100649
103618,100676
103561,100618
103578,100615
103641,100613
103643,100657
103632,100622
103666,100638
103585,100623
103655,100668
103714,100682
103700,100661
103718,100689
103645,100617
103785,100702
103793,100740
103772,100699
103779,100725
103762,100684
103845,100736
103833,100717
103891,100768
103868,100743
103836,100711
103884,100765
103971,100791
103927,100805
103939,100753
103923,100737
104001,100796
103993,100853
104018,100787
104044,100827
104000,100770
104061,100840
104098,100867
104100,100856
104078,100856
104094,100807
104160,100886
104215,100886
104209,100847
104230,100893
104162,100880
104253,100902
104279,100945
104271,100947
104254,100912
104273,100893
104293,100961
104331,100936
104296,100975
104285,100941
104290,100923
104350,100951
104398,101015
104389,100955
104364,100981
104347,100941
104413,101001
104446,101007
104447,101016
104374,100957
104399,100977
104440,100995
104509,101011
104503,101020
104442,101012
104478,100953
104503,101042
104554,101044
104565,101037
104534,101057
104509,100971
104619,101072
104642,101069
104617,101043
104598,101042
104559,101025
104611,101049
104697,101117
104667,101076
104626,101071
104606,101041
104646,101120
104720,101128
104675,101123
104645,101055
104632,101094
104701,101118
104740,101149
104727,101118
104716,101112
104690,101104
104738,101136
104803,101148
104776,101136
104782,101140
104764,101114
104816,101186
104874,101195
104833,101152
104843,101158
104846,101141
104892,101196
104945,101231
104916,101226
104929,101198
104859,101176
104952,101206
104987,101244
104992,101250
104941,101200
104990,101215
105030,101255
105078,101293
105012,101252
105005,101247
105029,101251
105082,101281
105134,101287
105111,101298
105070,101292
105068,101259
105153,101294
105169,101363
105161,101303
105202,101332
105162,101267
105253,101362
105283,101364
105265,101381
105249,101305
105211,101369
105321,101383
105355,101383
105310,101351
105330,101395
105265,101323
105279,101352
105206,101329
105113,101286
105009,101217
104861,101091
104745,101112
104604,101054
104423,100935
104257,100876
104142,100819
104025,100773
103974,100772
103829,100691
103754,100609
103628,100581
103617,100597
103535,100587
103419,100508
103357,100448
103274,100396
103279,100429
103246,100436
103125,100394
103093,100303
103020,100309
103076,100332
103018,100348
102965,100307
102924,100292
102915,100243
102933,100274
102952,100319
102889,100264
102882,100278
102871,100252
102935,100299
102964,100316
102897,100302
102861,100254
102864,100277
102928,100285
102949,100327
102900,100280
102940,100272
102895,100266
103016,100315
102977,100358
102958,100330
102936,100268
102969,100301
102992,100337
103004,100339
102990,100306
102981,100337
102993,100302
103028,100346
103076,100398
102994,100321
103039,100334
103005,100305
103106,100368
103137,100363
103087,100354
103076,100350
103074,100321
103144,100416
103149,100357
103155,100376
103094,100341
103124,100367
103218,100412
103198,100434
103216,100435
103169,100365
103182,100396
103253,100442
103267,100431
103202,100423
103175,100394
103164,100398
103241,100426
103225,100434
103229,100402
103188,100396
103156,100382
103210,100419
103209,100418
103163,100408
103126,100361
103120,100363
103187,100404
103182,100422
103135,100374
103097,100345
103073,100341
103143,100382
103134,100380
103088,100349
103076,100345
103080,100359
103104,100347
103146,100413
103096,100360
103050,100321
103083,100350
103122,100383
103137,100406
103122,100369
103109,100337
103131,100381
103166,100381
103176,100421
103133,100388
103168,100375
103171,100413
103214,100413
103266,100437
103224,100444
103210,100413
103245,100409
103252,100436
103325,100474
103308,100486
103288,100395
103314,100439
103341,100487
103411,100519
103378,100492
103343,100484
103387,100483
103457,100526
103495,100564
103468,100546
103419,100504
103476,100539
103558,100572
103585,100604
103580,100568
103504,100551
103593,100584
103626,100603
103641,100647
103672,100605
103627,100585
103638,100606
103706,100662
103745,100651
103768,100670
103700,100598
103767,100658
103785,100686
103844,100694
103821,100704
103762,100648
103806,100677
103904,100729
103850,100714
103890,100696
103833,100644
103889,100718
103962,100784
103960,100744
103945,100712
103904,100729
103946,100750
103966,100781
104018,100751
104020,100786
103951,100708
104020,100773
104074,100822
104054,100788
104046,100768
103993,100762
104029,100775
104133,100807
104135,100847
104102,100788
104032,100801
104069,100788
104159,100847
104155,100817
104141,100827
104084,100777
104194,100829
104209,100886
104198,100875
104209,100862
104145,100815
104240,100841
104273,100902
104320,100896
104260,100888
104231,100850
104323,100898
104354,100927
104384,100926
104309,100950
104309,100871
104365,100884
104425,100933
104420,100965
104370,100930
104398,100936
104417,100963
104475,100969
104475,101017
104420,100973
104464,100958
104472,100999
104541,100991
104524,101022
104525,100985
104431,100941
104541,100974
104578,101011
104586,101045
104558,101018
104555,101007
104583,101049
104613,101037
104637,101049
104612,101031
104625,101026
104660,101048
104696,101108
104721,101101
104671,101072
104670,101083
104729,101092
104824,101135
104794,101134
104786,101111
104778,101112
104804,101117
104907,101191
104886,101153
104912,101142
104834,101124
104888,101163
104922,101204
104838,101156
104744,101093
104648,101024
104598,100965
104445,100960
104326,100874
104137,100799
103920,100680
103868,100647
103816,100673
103698,100602
103593,100565
103442,100441
103390,100486
103334,100434
103285,100394
103154,100372
103043,100261
103030,100299
103015,100320
102942,100289
102862,100238
102797,100184
102774,100185
102782,100208
102748,100179
102669,100168
102639,100085
102667,100123
102669,100174
102622,100128
102650,100145
102592,100056
102630,100138
102625,100146
102650,100137
102640,100151
102558,100071
102663,100141
102674,100205
102659,100142
102694,100151
102635,100110
102710,100189
102757,100230
102722,100209
102723,100157
102678,100176
102778,100214
102787,100225
102806,100249
102787,100178
102743,100192
102815,100193
102834,100246
102807,100252
102850,100253
102759,100199
102853,100234
102892,100294
102876,100261
102890,100252
102808,100221
102930,100292
102930,100277
102974,100281
102964,100270
102880,100256
102998,100306
103059,100325
103044,100333
102974,100339
102953,100288
103061,100338
103079,100390
103017,100349
103066,100326
102959,100301
103035,100369
103058,100329
103065,100325
103013,100342
102925,100270
103040,100302
103051,100354
103007,100311
103007,100324
102917,100293
103002,100298
102997,100342
103003,100325
102931,100300
102916,100281
102991,100278
102947,100326
102946,100271
102939,100283
102883,100272
102946,100272
102945,100296
102966,100284
102909,100312
102896,100273
102983,100313
103002,100342
102955,100297
103029,100316
102914,100303
103013,100340
103080,100334
103061,100343
103022,100369
102996,100303
103129,100370
103154,100373
103167,100379
103164,100397
103094,100382
103175,100365
103225,100450
103207,100413
103234,100408
103199,100385
103243,100488
103327,100466
103307,100477
103276,100419
103256,100422
103345,100483
103364,100504
103389,100483
103350,100522
103360,100476
103436,100536
103489,100556
103483,100539
103488,100573
103479,100507
103570,100589
103648,100615
103601,100604
103658,100570
103581,100603
103692,100610
103735,100671
103709,100643
103727,100640
103706,100622
103764,100672
103788,100715
103814,100676
103803,100695
103784,100661
103815,100708
103883,100719
103867,100716
103866,100725
103826,100667
103893,100736
103985,100775
103948,100739
103885,100698
103893,100709
103976,100766
104035,100796
103969,100757
103989,100769
103993,100755
104054,100766
104112,100824
104104,100798
104060,100757
104076,100793
104107,100854
104169,100865
104123,100846
104147,100833
104150,100780
104193,100882
104278,100885
104210,100849
104228,100851
104167,100854
104263,100853
104283,100906
104279,100890
104275,100865
104272,100886
104321,100888
104350,100937
104355,100912
104365,100914
104309,100928
104438,100922
104418,100943
104441,100965
104391,100914
104444,100946
104509,101005
104545,101007
104493,100995
104467,101003
104466,100964
104541,101026
104570,101027
104549,101012
104543,100995
104502,101018
104602,101030
104618,101045
104598,101037
104613,101013
104581,101016
104631,101037
104692,101099
104674,101056
104638,101067
104601,101050
104731,101095
104765,101094
104728,101116
104735,101100
104685,101055
104810,101152
104831,101152
104796,101144
104779,101129
104811,101105
104879,101191
104911,101175
104856,101171
104890,101128
104876,101130
104995,101216
104998,101217
104973,101218
104977,101187
104934,101172
105039,101215
105030,101233
104947,101178
104868,101149
104799,101071
104737,101099
104636,101037
104450,100965
104302,100859
104138,100760
104057,100787
103956,100734
103821,100634
103659,100575
103544,100502
103516,100550
103452,100492
103331,100446
103220,100382
103195,100367
103162,100338
103071,100352
103043,100331
102950,100245
102906,100217
102895,100259
102851,100278
102819,100196
102789,100185
102707,100183
102773,100172
102757,100235
102712,100176
102694,100122
102687,100177
102715,100162
102731,100206
102711,100157
102653,100168
102699,100151
102719,100190
102772,100235
102779,100201
102743,100214
102707,100181
102756,100222
102807,100220
102792,100233
102743,100190
102794,100198
102832,100257
102856,100293
102833,100205
102811,100278
102792,100217
102870,100285
102926,100278
102915,100267
102796,100237
102862,100244
102886,100275
102942,100308
102887,100272
102860,100246
102897,100259
102909,100299
102984,100296
102974,100298
102940,100276
102927,100291
103071,100354
103048,100353
103044,100313
103032,100316
103039,100338
103101,100389
103073,100393
103083,100365
102993,100339
103013,100319
103088,100388
103068,100378
103050,100321
102993,100346
102969,100301
103052,100375
103031,100325
103023,100293
102977,100309
102922,100322
103004,100328
102998,100331
102984,100317
102893,100271
102946,100255
102955,100328
102977,100294
102895,100299
102900,100285
102926,100252
102963,100277
102963,100318
102918,100256
102890,100277
102926,100267
102978,100323
102982,100333
102948,100286
102935,100294
102948,100294
103024,100316
102999,100340
103016,100305
102961,100345
102979,100293
103049,100340
103090,100381
103045,100381
103019,100338
103082,100357
103149,100419
103148,100393
103157,100436
103133,100388
103163,100401
103223,100444
103248,100416
103257,100450
103215,100407
103255,100446
103342,100519
103324,100519
103342,100455
103290,100464
103352,100479
103393,100502
103437,100520
103389,100506
103420,100483
103425,100522
103476,100577
103494,100527
103457,100557
103506,100522
103483,100538
103519,100620
103526,100594
103551,100594
103541,100542
103544,100623
103639,100605
103646,100600
103604,100639
103584,100565
103655,100636
103658,100604
103712,100667
103655,100662
103624,100606
103681,100655
103753,100652
103759,100682
103706,100626
103700,100602
103714,100661
103746,100695
103806,100692
103743,100688
103737,100639
103801,100656
103792,100693
103859,100723
103821,100710
103750,100642
103834,100691
103875,100728
103880,100718
103834,100695
103843,100649
103863,100741
103909,100731
103918,100753
103852,100758
103809,100665
103927,100746
103918,100727
103952,100737
103939,100747
103884,100695
103880,100746
103936,100767
103974,100786
103946,100726
103937,100747
103960,100736
104037,100794
103997,100797
104003,100742
103957,100775
104004,100756
104026,100805
104070,100785
104032,100821
104003,100751
104051,100805
104080,100817
104099,100825
104079,100781
104039,100773
104060,100824
104166,100827
104089,100847
104147,100828
104059,100794
104172,100832
104184,100815
104207,100858
104205,100863
104125,100824
104149,100861
104278,100882
104244,100900
104224,100855
104173,100830
104285,100892
104295,100892
104321,100895
104287,100927
104300,100877
104323,100911
104422,100952
104394,100964
104408,100906
104359,100946
104416,100947
104468,100958
104463,100986
104494,100999
104390,100951
104477,100957
104477,100993
104477,100981
104365,100923
104301,100853
104185,100862
104122,100796
103998,100751
103798,100627
103662,100550
103579,100489
103524,100505
103350,100474
103251,100383
103060,100319
103065,100309
103003,100312
102891,100253
102836,100187
102693,100128
102709,100129
102638,100123
102592,100075
102484,100069
102411,99942
102381,100017
102385,100019
102290,99973
102268,99922
102183,99907
102226,99910
102203,99939
102186,99941
102135,99846
102099,99843
102119,99909
102137,99874
102141,99880
102134,99920
102036,99840
102111,99908
102119,99911
102101,99848
102087,99886
102071,99842
102141,99856
102147,99927
102128,99887
102139,99906
102057,99860
102134,99893
102137,99902
102176,99931
102156,99906
102114,99894
102143,99899
102153,99932
102184,99915
102171,99903
102117,99895
102124,99898
102226,99946
102167,99898
102169,99910
102115,99871
102162,99902
102265,99950
102195,99949
102231,99953
102145,99918
102213,99973
102251,99935
102302,99978
102272,99973
102187,99917
102274,99938
102307,99982
102307,99958
102247,99986
102213,99916
102263,99955
102258,99966
102278,99926
102190,99969
102156,99872
102240,99959
102249,99979
102205,99908
102212,99908
102137,99910
102155,99905
102193,99935
102198,99915
102164,99904
102078,99884
102188,99873
102195,99951
102137,99894
102131,99939
102077,99845
102139,99923
102195,99937
102125,99884
102164,99905
102063,99853
102166,99910
102194,99917
102139,99898
102142,99898
102094,99864
102180,99933
102198,99926
102183,99948
102178,99920
102100,99878
102220,99959
102282,99996
102199,99943
102226,99954
102161,99917
102279,99993
102317,99996
102284,99980
102304,99972
102228,99952
102342,100004
102355,100018
102349,100004
102354,100006
102320,99992
102419,100013
102452,100085
102393,100023
102427,100023
102412,100016
102482,100044
102555,100097
102489,100119
102499,100093
102529,100077
102541,100076
102582,100135
102587,100149
102608,100108
102545,100086
102659,100159
102692,100137
102690,100174
102689,100106
102624,100115
102728,100192
102768,100211
102731,100193
102767,100182
102691,100154
102817,100213
102838,100266
102814,100207
102811,100216
102827,100181
102850,100216
102921,100265
102886,100265
102886,100242
102833,100205
102942,100273
102940,100336
102927,100230
102934,100259
102936,100248
102964,100320
103005,100286
103011,100303
102984,100250
102988,100290
103047,100298
103095,100338
103037,100313
103055,100281
102971,100258
103100,100349
103107,100314
103105,100358
103099,100313
103051,100300
103132,100369
103134,100351
103138,100367
103128,100326
103080,100336
103169,100328
103271,100395
103155,100388
103184,100364
103177,100354
103272,100406
103303,100446
103255,100394
103215,100393
103251,100382
103318,100448
103353,100463
103319,100435
103322,100442
103257,100414
103353,100462
103387,100460
103418,100495
103381,100439
103350,100442
103475,100497
103461,100497
103448,100516
103438,100491
103394,100472
103500,100543
103532,100552
103514,100506
103493,100512
103502,100478
103587,100570
103616,100593
103580,100530
103587,100546
103552,100535
103659,100595
103687,100584
103617,100600
103623,100557
103643,100535
103683,100623
103712,100589
103720,100628
103685,100579
103685,100607
103730,100654
103799,100657
103778,100614
103786,100653
103766,100650
103862,100674
103876,100656
103876,100705
103833,100668
103885,100650
103898,100744
103979,100718
103946,100719
103957,100705
103948,100716
104026,100720
104059,100762
104064,100763
104034,100751
104003,100727
104099,100780
104060,100797
104007,100714
103896,100696
103816,100605
103800,100597
103682,100597
103461,100432
103366,100399
103177,100335
103126,100305
102996,100273
102874,100233
102737,100096
102686,100091
102622,100070
102567,100080
102464,100004
102357,99962
102261,99856
102230,99930
102178,99876
102103,99805
102016,99769
101952,99757
101938,99775
101910,99794
101873,99726
101810,99679
101772,99694
101803,99695
101777,99724
101695,99678
101657,99626
101627,99635
101662,99689
101701,99686
101673,99633
101592,99643
101613,99612
101668,99650
101691,99696
101650,99648
101575,99603
101648,99651
101656,99659
101718,99691
101645,99660
101634,99675
101670,99661
101682,99716
101732,99691
101659,99687
101655,99668
101678,99650
101709,99738
101705,99691
101725,99704
101655,99679
101649,99648
101707,99694
101752,99738
101707,99669
101641,99673
101691,99678
101736,99681
101782,99728
101694,99676
101733,99683
101726,99713
101810,99736
101825,99770
101830,99723
101732,99732
101807,99738
101837,99765
101863,99765
101816,99768
101784,99744
101802,99713
101890,99770
101855,99755
101812,99792
101785,99725
101820,99741
101820,99782
101843,99733
101830,99752
101792,99722
101806,99752
101845,99793
101848,99749
101819,99783
101760,99717
101769,99732
101854,99764
101838,99759
101830,99766
101751,99736
101792,99747
101863,99773
101865,99769
101786,99733
101793,99725
101795,99777
101863,99804
101827,99780
101843,99764
101825,99726
101823,99788
101921,99800
101896,99830
101920,99801
101882,99792
101903,99822
101941,99823
101987,99833
101983,99830
101942,99800
101960,99831
102026,99864
102054,99884
102039,99876
101997,99836
102071,99874
102152,99890
102159,99966
102117,99890
102141,99893
102154,99924
102200,99956
102237,99916
102283,99945
102196,99953
102253,99925
102297,100014
102306,100002
102281,100019
102261,99948
102349,100021
102366,100014
102396,100024
102381,100035
102378,99986
102395,100005
102497,100101
102432,100064
102458,100067
102432,100024
102482,100093
102524,100112
102527,100117
102527,100054
102475,100049
102539,100070
102588,100155
102594,100094
102598,100128
102528,100092
102584,100134
102640,100151
102679,100182
102640,100155
102627,100095
102665,100188
102747,100189
102721,100167
102682,100188
102695,100111
102717,100219
102778,100191
102785,100174
102769,100219
102765,100159
102778,100209
102801,100226
102837,100209
102839,100226
102777,100209
102822,100216
102850,100259
102896,100254
102848,100242
102796,100215
102877,100257
102903,100237
102924,100299
102889,100246
102871,100241
102929,100272
102959,100297
102964,100302
102942,100297
102902,100229
102941,100313
103039,100326
103023,100343
103016,100303
102935,100280
103039,100291
103066,100356
103050,100332
103063,100347
103029,100290
103049,100315
103148,100378
103109,100410
103093,100350
103087,100354
103105,100383
103166,100370
103225,100431
103154,100376
103130,100363
103213,100390
103212,100417
103287,100449
103223,100415
103231,100408
103252,100439
103307,100450
103303,100479
103330,100449
103292,100414
103319,100476
103400,100525
103386,100464
103393,100492
103349,100472
103427,100490
103484,100563
103446,100515
103460,100541
103463,100485
103461,100517
103541,100549
103506,100586
103519,100546
103477,100550
103549,100531
103605,100588
103572,100601
103584,100572
103582,100558
103642,100589
103653,100644
103695,100620
103693,100650
103638,100566
103712,100635
103721,100644
103757,100687
103745,100674
103706,100593
103760,100681
103811,100690
103752,100675
103740,100618
103629,100576
103601,100522
103551,100570
103370,100473
103227,100398
103136,100307
103000,100291
102910,100225
102808,100238
102707,100143
102529,100030
102548,100062
102450,100073
102378,100005
102278,99946
102172,99870
102122,99869
102093,99871
102023,99822
101933,99784
101820,99723
101839,99770
101824,99743
101743,99698
101684,99688
101600,99634
101640,99693
101609,99676
101591,99641
101537,99627
101460,99600
101546,99624
101511,99631
101497,99614
101489,99606
101395,99559
101447,99590
101474,99631
101488,99622
101452,99598
101370,99550
101490,99639
101480,99649
101485,99587
101470,99638
101382,99553
101494,99632
101531,99640
101511,99629
101510,99639
101432,99587
101515,99660
101534,99666
101491,99634
101481,99606
101439,99618
101525,99640
101550,99696
101554,99634
101519,99670
101436,99624
101571,99694
101604,99701
101609,99673
101546,99687
101547,99642
101590,99699
101645,99754
101636,99726
101624,99700
101638,99703
101683,99718
101749,99740
101690,99760
101723,99749
101700,99746
101712,99757
101778,99751
101727,99790
101711,99763
101685,99730
101734,99787
101781,99747
101727,99798
101775,99740
101719,99727
101757,99787
101800,99752
101713,99781
101750,99777
101695,99739
101758,99747
101776,99784
101758,99782
101735,99758
101662,99731
101733,99755
101783,99825
101757,99766
101760,99766
101705,99769
101771,99763
101822,99800
101748,99781
101773,99801
101698,99784
101787,99772
101891,99831
101814,99801
101855,99808
101783,99789
101902,99822
101913,99896
101948,99826
101921,99845
101847,99806
101963,99875
102010,99942
101990,99859
101992,99889
101987,99879
102019,99923
102053,99933
102102,99945
102087,99910
102052,99912
102147,99942
102179,100012
102171,99981
102159,99958
102170,99945
102257,99996
102272,100055
102289,99989
102294,100016
102281,100005
102342,100070
102391,100052
102344,100053
102367,100039
102332,100023
102442,100075
102453,100088
102455,100109
102423,100083
102463,100042
102518,100161
102506,100109
102553,100153
102501,100117
102497,100087
102560,100118
102595,100192
102612,100125
102563,100163
102574,100157
102614,100178
102688,100162
102642,100196
102622,100168
102593,100121
102689,100183
102702,100267
102717,100220
102680,100200
102702,100176
102719,100211
102803,100267
102742,100195
102782,100227
102732,100202
102804,100252
102811,100298
102803,100238
102819,100246
102756,100247
102878,100293
102887,100283
102910,100293
102845,100301
102872,100235
102923,100329
102977,100337
102955,100282
102915,100312
102926,100301
102967,100345
103033,100339
103010,100326
102999,100353
102961,100327
103041,100356
103120,100413
103031,100369
103039,100375
103006,100308
103118,100381
103118,100406
103140,100392
103055,100419
103087,100383
103167,100416
103201,100423
103141,100420
103155,100365
103120,100418
103221,100450
103233,100422
103210,100433
103215,100396
103216,100449
103254,100464
103284,100460
103294,100451
103247,100465
103215,100450
103351,100489
103355,100504
103340,100501
103345,100495
103313,100459
103432,100523
103445,100542
103445,100557
103428,100507
103393,100551
103469,100563
103565,100587
103503,100619
103474,100528
103499,100543
103589,100601
103643,100610
103628,100639
103569,100598
103618,100597
103676,100648
103648,100684
103641,100638
103610,100597
103550,100589
103581,100567
103523,100568
103385,100502
103221,100414
103147,100383
103036,100328
102959,100292
102823,100247
102679,100134
102524,100066
102527,100082
102390,100074
102300,99970
102206,99905
102146,99901
102068,99907
102062,99886
101910,99815
101844,99740
101763,99756
101742,99745
101736,99743
101646,99693
101592,99662
101573,99638
101579,99669
101519,99636
101508,99621
101386,99625
101402,99565
101445,99619
101449,99604
101381,99594
101321,99563
101344,99533
101380,99577
101383,99608
101323,99587
101347,99535
101297,99557
101369,99574
101390,99630
101353,99559
101282,99560
101342,99578
101349,99607
101425,99619
101374,99617
101327,99571
101320,99590
101403,99619
101418,99625
101350,99631
101328,99547
101329,99582
101387,99574
101426,99661
101355,99599
101352,99561
101352,99607
101397,99630
101403,99621
101438,99626
101372,99625
101377,99596
101508,99638
101507,99667
101497,99654
101434,99673
101465,99633
101571,99704
101564,99719
101544,99697
101525,99685
101533,99683
101601,99709
101616,99744
101580,99730
101510,99669
101544,99685
101586,99703
101609,99723
101569,99739
101491,99641
101530,99705
101589,99692
101539,99710
101545,99689
101469,99683
101484,99628
101547,99705
101523,99724
101474,99670
101498,99672
101464,99621
101510,99659
101493,99677
101510,99678
101460,99646
101471,99656
101501,99724
101536,99673
101495,99680
101469,99637
101493,99659
101586,99718
101544,99725
101534,99688
101502,99666
101519,99705
101614,99750
101621,99726
101621,99746
101556,99711
101634,99741
101668,99789
101655,99769
101684,99745
101617,99748
101671,99740
101746,99830
101778,99813
101745,99801
101716,99760
101762,99777
101828,99862
101811,99823
101794,99822
101826,99826
101840,99829
101865,99874
101923,99880
101893,99906
101864,99801
101903,99854
101921,99882
101981,99912
101947,99925
101929,99837
101966,99893
102073,99952
102021,99954
102038,99892
102021,99919
102043,99893
102111,99971
102130,100008
102119,99976
102088,99917
102128,99977
102194,99971
102176,100021
102171,99973
102158,99934
102179,100017
102211,99989
102232,99999
102248,100003
102169,99944
102233,99993
102231,100076
102309,100023
102283,100018
102218,100007
102271,100041
102261,100025
102342,100075
102262,100066
102235,100023
102279,100022
102345,100073
102323,100058
102285,100039
102266,100018
102313,100030
102407,100085
102367,100055
102390,100071
102274,100058
102362,100036
102391,100132
102440,100131
102396,100088
102332,100048
102457,100086
102440,100156
102449,100115
102459,100130
102437,100079
102443,100133
102487,100129
102561,100169
102503,100127
102444,100126
102538,100167
102545,100196
102582,100186
102525,100184
102523,100153
102582,100176
102611,100205
102660,100208
102626,100174
102575,100196
102652,100220
102656,100221
102669,100247
102646,100212
102597,100169
102666,100193
102743,100223
102697,100219
102720,100238
102644,100213
102697,100221
102733,100263
102767,100272
102728,100237
102680,100228
102763,100250
102807,100281
102808,100259
102786,100306
102764,100237
102777,100276
102861,100320
102880,100321
102801,100294
102813,100267
102851,100313
102922,100347
102921,100331
102876,100321
102879,100315
102914,100337
102931,100379
102949,100349
102943,100357
102918,100338
102944,100334
102994,100406
103007,100382
102970,100340
102892,100278
102945,100359
102897,100278
102828,100279
102685,100195
102548,100091
102451,100123
102413,100058
102285,100034
102187,99954
102001,99821
101982,99877
101942,99847
101812,99809
101647,99707
101569,99617
101523,99649
101444,99650
101373,99565
101282,99564
101176,99435
101135,99472
101132,99451
101037,99448
100911,99361
100833,99347
100803,99358
100812,99341
100783,99295
100696,99280
100630,99241
100619,99274
100624,99254
100572,99278
100514,99195
100446,99201
100478,99215
100520,99227
100479,99214
100447,99176
100406,99192
100459,99204
100459,99234
100440,99168
100427,99201
100352,99169
100405,99216
100466,99191
100461,99184
100399,99232
100388,99149
100401,99214
100480,99199
100425,99201
100415,99188
100299,99169
100409,99180
100455,99243
100396,99202
100375,99149
100301,99155
100383,99200
100433,99189
100400,99161
100343,99215
100327,99136
100354,99192
100413,99204
100400,99203
100423,99173
100339,99181
100476,99211
100493,99225
100495,99264
100448,99219
100407,99221
100506,99240
100512,99280
100491,99235
100512,99296
100454,99189
100508,99270
100572,99272
100531,99273
100512,99267
100431,99215
100548,99252
100588,99239
100548,99271
100492,99249
100469,99195
100537,99274
100556,99280
100505,99275
100481,99270
100453,99189
100572,99271
100554,99277
100574,99273
100515,99242
100485,99204
100566,99305
100593,99256
100601,99299
100572,99278
100523,99232
100613,99298
100655,99295
100612,99328
100575,99251
100590,99298
100650,99274
100694,99341
100654,99313
100688,99304
100672,99298
100759,99360
100774,99378
100753,99355
100788,99366
100721,99361
100832,99356
100902,99424
100858,99379
100898,99388
100809,99387
100930,99404
100959,99512
100958,99413
100974,99438
100947,99426
101058,99496
101094,99509
101039,99514
101059,99475
101049,99461
101105,99512
101128,99582
101104,99513
101137,99533
101104,99496
101155,99542
101228,99584
101213,99568
101190,99523
101214,99528
101236,99576
101286,99632
101254,99597
101230,99597
101224,99522
101344,99640
101340,99648
101327,99616
101350,99581
101300,99599
101392,99621
101375,99671
101399,99657
101425,99624
101383,99618
101445,99672
101498,99680
101478,99690
101462,99632
101444,99627
101478,99711
101530,99697
101542,99700
101463,99701
101447,99645
101570,99692
101593,99733
101523,99717
101544,99663
101489,99700
101567,99703
101642,99723
101574,99713
101553,99705
101558,99701
101647,99752
101667,99749
101635,99732
101553,99711
101545,99704
101646,99762
101713,99768
101659,99789
101676,99766
101661,99751
101674,99777
101775,99790
101757,99810
101710,99792
101699,99763
101779,99803
101837,99849
101748,99829
101786,99802
101761,99798
101840,99822
101840,99864
101841,99817
101850,99874
101820,99830
101875,99877
101932,99875
101941,99861
101864,99882
101873,99843
101998,99927
102010,99926
101962,99902
101942,99863
101947,99851
102033,99957
102062,99913
102050,99909
102046,99908
102017,99897
102120,99971
102123,99937
102121,99947
102094,99921
102109,99945
102154,99989
102196,99981
102227,100008
102164,99978
102164,99989
102232,99986
102259,100042
102272,100045
102189,99971
102217,99973
102276,100034
102294,100054
102291,100032
102226,100010
102233,99980
102332,100073
102354,100076
102318,100051
102282,100033
102279,100011
102373,100100
102371,100069
102349,100082
102356,100047
102345,100049
102430,100130
102428,100109
102435,100109
102421,100082
102435,100108
102521,100151
102480,100167
102519,100185
102508,100144
102494,100097
102521,100188
102584,100165
102592,100169
102512,100114
102538,100104
102568,100177
102571,100178
102479,100100
102363,100055
102288,99966
102264,100002
102146,99937
101966,99872
101846,99795
101686,99740
101689,99693
101573,99711
101432,99639
101339,99552
101238,99512
101221,99481
101134,99505
100979,99442
100888,99362
100818,99310
100818,99290
100732,99319
100608,99248
100568,99186
100476,99149
100450,99152
100437,99152
100301,99128
100241,99069
100183,99051
100218,99076
100232,99080
100129,99029
100069,99016
100045,98965
100125,99029
100087,99034
100060,98994
100002,98964
100026,99015
100047,98976
100090,99032
100015,99023
100016,98957
99984,98975
100043,98981
100124,99018
100032,99022
100017,99018
99982,98989
100087,99020
100111,99053
100036,98993
100041,99025
100013,98969
100098,99024
100086,99069
100037,98994
99992,99043
99992,98983
100089,99027
100104,99034
100020,99019
99996,98993
100049,99027
100123,99059
100111,99065
100067,99032
100079,99039
100053,99068
100146,99061
100170,99112
100106,99078
100132,99054
100098,99084
100221,99107
100200,99115
100197,99088
100167,99084
100194,99083
100280,99121
100247,99156
100228,99087
100175,99109
100210,99090
100212,99129
100246,99115
100268,99141
100222,99081
100220,99092
100257,99126
100248,99113
100234,99138
100177,99052
100238,99089
100236,99145
100238,99130
100259,99120
100184,99111
100170,99064
100306,99130
100230,99109
100228,99117
100202,99084
100226,99121
100275,99121
100319,99144
100246,99149
100198,99148
100275,99145
100280,99158
100322,99145
100321,99181
100292,99125
100341,99149
100352,99206
100373,99186
100393,99209
100327,99137
100398,99197
100456,99219
100465,99223
100456,99244
100409,99189
100463,99185
100520,99248
100563,99256
100542,99263
100500,99245
100503,99248
100635,99308
100643,99312
100639,99287
100584,99282
100644,99296
100681,99378
100695,99344
100727,99366
100698,99335
100761,99362
100766,99400
100826,99424
100830,99410
100764,99345
100830,99412
100904,99439
100875,99431
100874,99420
100869,99377
100908,99454
100953,99460
100935,99451
100966,99468
100945,99430
100956,99455
101001,99507
101070,99496
101009,99496
101003,99481
101028,99502
101105,99531
101125,99543
101132,99528
101074,99491
101086,99522
101147,99560
101163,99597
101163,99538
101106,99528
101158,99532
101183,99566
101251,99587
101208,99569
101157,99576
101202,99530
101250,99621
101272,99605
101261,99588
101205,99578
101234,99570
101310,99648
101270,99618
101275,99599
101243,99581
101313,99642
101348,99612
101349,99652
101305,99582
101269,99605
101365,99621
101391,99656
101366,99633
101349,99685
101311,99636
101390,99654
101409,99684
101410,99645
101414,99696
101376,99652
101479,99669
101532,99722
101505,99726
101499,99678
101459,99641
101515,99737
101557,99723
101581,99737
101530,99754
101497,99708
101575,99739
101641,99780
101602,99777
101625,99737
101577,99751
101640,99765
101639,99794
101721,99808
101670,99781
101649,99760
101657,99820
101742,99801
101766,99834
101746,99816
101685,99827
101730,99800
101812,99878
101794,99869
101785,99863
101743,99816
101857,99876
101871,99897
101865,99869
101891,99901
101846,99886
101888,99884
101919,99947
101919,99874
101958,99948
101877,99887
101954,99914
101964,99935
101982,99922
101976,99941
101971,99898
101979,99982
102052,99970
102037,99970
102072,99941
102039,99956
102088,99953
102154,100015
102150,100003
102104,99963
102092,99933
102133,100007
102171,100011
102203,99999
102153,100034
102132,99985
102229,100021
102241,100091
102193,100034
102248,100053
102139,99988
102160,99992
102091,99996
102031,99927
101850,99868
101734,99754
101692,99782
101624,99726
101481,99665
101374,99616
101270,99504
101163,99543
101109,99511
100967,99440
100899,99386
100766,99321
100734,99260
100663,99330
100584,99273
100445,99196
100372,99163
100341,99096
100317,99142
100179,99080
100131,99036
100029,98992
100033,98996
99985,99003
99961,99002
99875,98915
99798,98890
99850,98917
99862,98924
99770,98930
99760,98868
99676,98866
99737,98915
99769,98930
99711,98875
99736,98885
99600,98852
99710,98875
99755,98927
99721,98891
99659,98903
99654,98827
99745,98936
99748,98933
99728,98932
99769,98905
99667,98884
99769,98953
99796,98926
99796,98945
99775,98975
99685,98901
99814,98942
99838,98978
99771,98973
99808,98948
99749,98961
99835,98964
99864,99029
99815,98951
99838,98999
99790,98954
99846,99023
99896,99027
99935,99034
99920,99058
99850,99001
99995,99071
100008,99061
100007,99055
100025,99093
99985,99027
100072,99097
100122,99121
100090,99126
100075,99105
100011,99101
100105,99071
100160,99143
100089,99112
100097,99089
100062,99097
100131,99139
100112,99149
100129,99084
100095,99130
100066,99091
100120,99137
100160,99117
100156,99147
100116,99071
100073,99090
100111,99106
100147,99136
100154,99135
100111,99108
100074,99097
100149,99123
100200,99157
100146,99141
100158,99104
100113,99103
100138,99110
100220,99175
100157,99152
100173,99140
100191,99086
100215,99201
100272,99170
100297,99202
100254,99199
100246,99152
100307,99206
100401,99210
100352,99252
100350,99213
100354,99213
100455,99260
100519,99310
100463,99290
100495,99282
100489,99262
100548,99330
100616,99376
100583,99346
100612,99345
100598,99304
100668,99413
100717,99381
100721,99437
100729,99387
100657,99381
100803,99428
100833,99476
100809,99416
100802,99447
100824,99449
100923,99458
100929,99534
100916,99481
100942,99480
100909,99465
101008,99544
101064,99554
101010,99584
101057,99519
100971,99507
101126,99595
101122,99609
101126,99582
101133,99555
101110,99572
101148,99637
101193,99641
101162,99637
101171,99581
101198,99586
101253,99635
101298,99663
101264,99667
101233,99613
101241,99603
101275,99670
101359,99678
101319,99673
101334,99635
101268,99653
101375,99690
101394,99751
101365,99695
101346,99687
101334,99666
101423,99719
101469,99738
101409,99758
101391,99718
101357,99639
101467,99762
101489,99753
101465,99738
101426,99749
101424,99693
101478,99779
101538,99777
101544,99771
101511,99777
101472,99747
101580,99793
101612,99816
101579,99811
101574,99748
101592,99760
101618,99792
101673,99821
101640,99819
101616,99801
101617,99816
101720,99850
101727,99873
101751,99856
101703,99844
101704,99810
101787,99895
101767,99908
101800,99873
101773,99889
101748,99848
101853,99889
101888,99951
101823,99909
101858,99909
101825,99933
101927,99961
101911,99945
101929,99978
101899,99921
101926,99922
101983,99965
102040,99983
101996,99978
101962,99994
101982,99959
102057,100020
102074,100039
102042,100005
102066,100004
102021,99969
102150,100070
102153,100086
102119,100072
102123,100050
102154,100051
102209,100127
102234,100074
102293,100128
102245,100091
102242,100098
102334,100131
102354,100180
102363,100124
102342,100147
102375,100141
102408,100157
102466,100193
102445,100229
102431,100158
102480,100209
102541,100216
102564,100259
102561,100209
102495,100190
102420,100140
102497,100203
102421,100152
102260,100074
102152,99989
101974,99960
101940,99901
101846,99902
101712,99802
101543,99710
101497,99657
101465,99701
101348,99644
101296,99600
101117,99516
101103,99484
101061,99485
101045,99467
100899,99464
100836,99357
100771,99358
100813,99381
100753,99370
100699,99339
100653,99280
100566,99298
100591,99302
100630,99325
100531,99284
100489,99213
100554,99256
100519,99252
100532,99283
100530,99281
100500,99211
100524,99268
100549,99270
100646,99327
100611,99276
100633,99314
100690,99332
100717,99412
100762,99369
100820,99420
100812,99383
100795,99401
100936,99453
100950,99492
100978,99452
100955,99473
100980,99505
101036,99539
101085,99537
101085,99545
101031,99523
101093,99514
101117,99572
101166,99587
101154,99572
101102,99538
101159,99561
101214,99606
101286,99622
101205,99603
101231,99618
101259,99599
101351,99677
101391,99652
101364,99671
101344,99651
101375,99665
101458,99732
101509,99709
101426,99694
101425,99645
101415,99690
101492,99747
101519,99707
101480,99743
101406,99698
101425,99676
101518,99755
101512,99701
101445,99692
101412,99656
101401,99717
101438,99706
101498,99683
101410,99703
101349,99635
101397,99696
101422,99695
101428,99701
101364,99674
101324,99629
101326,99657
101374,99691
101413,99660
101364,99693
101323,99625
101336,99665
101377,99664
101379,99680
101375,99665
101311,99630
101369,99647
101430,99696
101424,99696
101407,99675
101409,99674
101461,99695
101510,99736
101492,99747
101508,99744
101516,99716
101517,99722
101618,99812
101638,99789
101618,99800
101610,99781
101673,99793
101709,99833
101738,99861
101754,99855
101716,99795
101776,99886
101833,99898
101879,99898
101895,99920
101833,99868
101919,99935
101972,99988
101983,99973
102042,99989
102013,99993
102096,99990
102161,100030
102160,100054
102178,100019
102194,100024
102247,100092
102299,100107
102313,100138
102299,100073
102327,100067
102341,100092
102445,100164
102428,100167
102440,100169
102424,100112
102412,100185
102470,100182
102484,100212
102485,100167
102478,100173
102492,100160
102572,100231
102560,100252
102571,100176
102565,100229
102608,100186
102685,100283
102676,100291
102668,100235
102633,100239
102697,100287
102756,100291
102785,100295
102778,100321
102735,100264
102803,100334
102818,100345
102847,100353
102850,100327
102773,100266
102869,100351
102899,100356
102910,100319
102908,100360
102818,100347
102901,100346
102979,100388
102944,100391
102902,100384
102922,100313
102935,100396
102995,100417
103036,100420
102991,100445
102959,100337
103037,100441
103091,100440
103122,100439
103095,100456
103075,100421
103110,100434
103213,100486
103171,100489
103200,100477
103148,100440
103235,100518
103291,100539
103296,100513
103324,100553
103222,100514
103317,100555
103418,100577
103399,100577
103404,100608
103370,100531
103449,100621
103517,100630
103524,100612
103584,100660
103492,100638
103607,100669
103611,100674
103660,100689
103687,100712
103644,100653
103709,100743
103770,100728
103820,100776
103805,100757
103788,100764
103864,100747
103915,100809
103921,100823
103900,100795
103926,100782
103957,100834
104057,100893
104060,100876
103992,100860
103920,100769
103957,100814
103903,100781
103781,100712
103688,100640
103429,100575
103379,100512
103232,100435
103064,100350
102917,100276
102698,100221
102668,100182
102555,100149
102473,100055
102354,100021
102185,99938
102205,99958
102159,99937
102073,99872
102006,99875
101935,99818
101914,99822
101916,99831
101831,99802
101768,99757
101749,99723
101732,99745
101771,99762
101733,99727
101714,99752
101628,99697
101675,99727
101703,99739
101720,99778
101695,99729
101683,99684
101716,99743
101756,99779
101744,99771
101772,99737
101782,99774
101833,99773
101852,99824
101889,99797
101878,99840
101822,99744
101910,99860
101955,99853
101944,99826
101942,99885
101910,99794
101984,99887
102028,99896
102001,99891
102026,99898
101936,99841
102043,99897
102070,99922
102056,99911
102036,99874
102034,99878
102094,99905
102121,99944
102139,99915
102091,99923
102098,99878
102188,99934
102235,99960
102225,100004
102232,99965
102238,99983
102310,99975
102348,100059
102333,100049
102327,100009
102267,99976
102340,99995
102404,100055
102329,99998
102362,100029
102300,99971
102376,100012
102371,100060
102369,100010
102341,100013
102315,99968
102359,100024
102377,100050
102361,100012
102297,100013
102304,99989
102366,100000
102386,100040
102415,100030
102350,100054
102296,99943
102414,100061
102413,100054
102419,100011
102408,100048
102298,99980
102406,100032
102423,100069
102417,100020
102423,100048
102335,100029
102448,100025
102520,100125
102482,100029
102438,100067
102428,100047
102507,100122
102552,100105
102524,100131
102530,100107
102515,100095
102611,100109
102603,100173
102599,100131
102664,100137
102587,100150
102682,100161
102767,100189
102703,100190
102752,100186
102680,100207
102798,100208
102868,100239
102805,100247
102865,100238
102790,100234
102911,100266
102926,100313
102933,100278
102907,100283
102904,100267
102982,100305
103044,100336
102983,100326
103021,100307
102924,100317
103038,100311
103119,100392
103045,100328
103065,100342
103036,100310
103108,100355
103094,100403
103104,100356
103141,100357
103063,100363
103157,100396
103204,100405
103157,100410
103157,100378
103137,100379
103167,100400
103261,100435
103206,100394
103221,100432
103170,100339
103278,100451
103270,100432
103237,100447
103264,100416
103214,100432
103303,100435
103290,100467
103334,100479
103289,100465
103262,100413
103344,100456
103372,100499
103309,100456
103335,100429
103264,100453
103333,100487
103398,100498
103320,100478
103364,100438
103332,100465
103388,100495
103435,100504
103440,100501
103406,100525
103386,100451
103459,100531
103490,100540
103494,100503
103441,100513
103443,100487
103515,100524
103533,100569
103513,100565
103546,100532
103506,100501
103613,100574
103565,100619
103571,100574
103555,100544
103534,100510
103619,100577
103624,100648
103618,100581
103606,100591
103552,100551
103636,100583
103683,100623
103632,100578
103651,100554
103608,100564
103685,100603
103732,100619
103696,100607
103664,100634
103654,100562
103731,100638
103747,100628
103702,100630
103693,100654
103721,100594
103779,100683
103806,100678
103788,100660
103724,100644
103764,100623
103844,100715
103850,100670
103856,100697
103872,100673
103863,100682
103890,100728
103975,100741
103937,100764
103928,100699
103881,100716
104029,100736
103990,100768
104020,100758
104008,100759
103968,100731
104016,100754
104022,100757
104002,100737
103915,100712
103798,100601
103761,100606
103663,100585
103505,100480
103331,100428
103131,100276
103052,100291
102958,100230
102786,100125
102574,100059
102477,100005
102413,100001
102348,99913
102207,99914
102111,99852
102040,99799
101985,99776
101961,99765
101873,99710
101759,99682
101691,99636
101733,99656
101671,99640
101578,99617
101540,99591
101501,99542
101507,99568
101461,99557
101457,99541
101398,99519
101360,99493
101410,99550
101436,99538
101356,99521
101347,99497
101337,99492
101411,99526
101437,99553
101339,99509
101366,99510
101299,99491
101412,99539
101414,99513
101410,99532
101402,99504
101341,99545
101409,99512
101481,99574
101408,99536
101417,99522
101378,99524
101397,99511
101467,99569
101394,99538
101351,99523
101362,99509
101368,99510
101432,99532
101403,99523
101314,99488
101350,99479
101402,99521
101398,99526
101388,99533
101334,99475
101377,99485
101420,99525
101449,99570
101427,99545
101436,99503
101411,99544
101447,99549
101518,99604
101471,99542
101458,99556
101481,99537
101544,99598
101530,99571
101501,99573
101448,99564
101469,99514
101533,99565
101494,99607
101471,99563
101492,99541
101439,99540
101533,99578
101500,99558
101487,99586
101460,99552
101440,99526
101515,99562
101480,99546
101487,99554
101430,99512
101473,99551
101483,99564
101476,99591
101469,99512
101468,99547
101457,99538
101487,99566
101481,99573
101487,99579
101456,99526
101461,99526
101524,99594
101527,99574
101539,99568
101492,99537
101481,99556
101566,99600
101603,99621
101592,99611
101560,99567
101540,99580
101657,99638
101676,99636
101666,99627
101647,99629
101623,99621
101744,99674
101783,99670
101727,99665
101736,99657
101752,99671
101832,99733
101877,99722
101829,99711
101810,99718
101839,99696
101922,99776
101948,99768
101926,99744
101915,99741
101923,99745
102001,99782
102025,99808
102038,99807
102005,99792
102008,99792
102062,99812
102130,99834
102137,99841
102066,99810
102111,99829
102192,99862
102214,99893
102194,99889
102154,99860
102193,99881
102270,99917
102288,99929
102270,99910
102235,99895
102268,99907
102309,99952
102374,99977
102357,99954
102284,99918
102322,99933
102370,99970
102425,99969
102368,99960
102344,99950
102392,99956
102435,99999
102459,99998
102461,99984
102393,99956
102433,99975
102506,100024
102530,100027
102482,100011
102434,99998
102450,100003
102531,100022
102570,100038
102558,100046
102525,100012
102495,100034
102599,100069
102610,100061
102585,100067
102568,100025
102589,100047
102649,100079
102658,100082
102641,100124
102647,100066
102649,100054
102719,100116
102730,100113
102722,100120
102705,100086
102678,100095
102772,100119
102796,100142
102787,100114
102762,100110
102763,100150
102843,100166
102819,100154
102813,100163
102827,100109
102846,100182
102890,100181
102930,100218
102910,100193
102917,100193
102942,100192
102982,100241
103012,100247
102956,100225
102970,100207
103021,100223
103076,100286
103073,100291
103031,100264
103032,100237
103075,100262
103099,100309
103136,100310
103122,100298
103102,100260
103122,100284
103180,100331
103192,100331
103216,100341
103163,100271
103224,100334
103249,100347
103309,100375
103288,100359
103302,100341
103307,100384
103390,100423
103424,100400
103398,100418
103394,100370
103448,100440
103487,100446
103525,100467
103483,100458
103474,100444
103522,100467
103573,100486
103558,100479
103514,100469
103490,100430
103512,100437
103500,100438
103407,100409
103248,100294
103077,100209
102978,100163
102880,100138
102718,100045
102547,99965
102386,99877
102262,99803
102183,99788
102095,99745
101956,99693
101842,99626
101808,99633
101760,99604
101692,99544
101547,99507
101475,99460
101449,99438
101452,99458
101381,99437
101305,99419
101227,99345
101204,99338
101228,99350
101177,99322
101126,99299
101049,99262
101087,99282
101101,99292
101071,99281
101054,99295
100976,99232
101067,99264
101105,99293
101051,99319
101050,99275
101035,99249
101065,99298
101114,99305
101136,99306
101095,99305
101074,99274
101097,99302
101186,99344
101160,99347
101151,99322
101114,99306
101140,99335
101207,99341
101170,99319
101180,99353
101081,99290
101162,99326
101176,99317
101214,99336
101127,99354
101109,99310
101141,99334
101202,99341
101179,99345
101126,99318
101115,99314
101177,99332
101214,99354
101208,99370
101227,99329
101189,99364
101212,99362
101330,99422
101297,99392
101312,99385
101255,99387
101346,99390
101347,99451
101372,99439
101343,99423
101347,99379
101403,99450
101388,99422
101384,99428
101390,99431
101299,99378
101412,99423
101394,99458
101363,99438
101408,99435
101315,99405
101398,99430
101431,99395
101421,99435
101363,99436
101356,99375
101370,99438
101433,99476
101394,99451
101408,99409
101389,99395
101417,99480
101465,99429
101443,99426
101464,99430
101409,99442
101430,99454
101502,99515
101484,99514
101498,99449
101477,99479
101496,99498
101598,99526
101587,99508
101522,99502
101541,99500
101616,99516
101617,99603
101605,99542
101660,99581
101623,99539
101674,99602
101753,99584
101719,99609
101767,99621
101758,99596
101787,99645
101883,99669
101825,99657
101851,99662
101813,99614
101907,99704
101983,99722
101958,99721
101976,99711
101910,99670
102007,99705
102066,99749
102069,99773
102081,99737
101998,99718
102117,99758
102138,99781
102162,99790
102166,99798
102130,99775
102223,99830
102273,99863
102281,99879
102259,99840
102221,99816
102300,99868
102377,99897
102396,99881
102335,99870
102334,99858
102421,99921
102467,99938
102440,99924
102438,99931
102419,99929
102518,99957
102572,99984
102548,99956
102516,99969
102497,99930
102593,99993
102641,100023
102621,100027
102637,99978
102585,99965
102626,100045
102680,100050
102685,100059
102678,100027
102636,100002
102749,100068
102761,100099
102763,100067
102763,100069
102709,100046
102806,100094
102872,100116
102836,100126
102820,100091
102821,100082
102911,100138
102927,100169
102899,100111
102924,100160
102864,100120
102997,100157
103036,100184
102956,100158
103002,100189
102944,100149
103079,100223
103107,100187
103088,100237
103093,100235
103038,100211
103159,100206
103168,100279
103200,100278
103219,100271
103163,100262
103254,100263
103280,100318
103283,100304
103317,100308
103269,100319
103329,100371
103393,100393
103341,100361
103377,100403
103369,100309
103467,100414
103467,100416
103489,100401
103454,100389
103442,100366
103546,100436
103549,100411
103547,100418
103541,100418
103567,100423
103568,100479
103634,100479
103618,100467
103648,100487
103576,100463
103699,100459
103723,100509
103714,100522
103716,100513
103714,100496
103751,100527
103843,100571
103817,100536
103822,100571
103813,100528
103879,100555
103916,100630
103939,100583
103941,100586
103927,100593
104016,100613
104071,100670
104045,100647
104024,100633
104035,100628
104087,100679
104122,100684
104092,100650
104026,100662
103913,100551
103928,100593
103827,100502
103622,100444
103459,100334
103267,100250
103158,100164
103002,100161
102872,100067
102693,99953
102556,99884
102474,99900
102438,99887
102303,99811
102182,99743
102092,99719
102052,99676
102055,99708
101932,99633
101867,99574
101797,99572
101792,99556
101762,99572
101756,99527
101655,99516
101597,99471
101661,99542
101667,99516
101643,99522
101618,99480
101595,99481
101610,99456
101664,99521
101652,99489
101627,99518
101571,99484
101684,99495
101705,99547
101688,99557
101681,99527
101666,99501
101730,99579
101771,99558
101788,99591
101749,99562
101743,99577
101801,99624
101844,99643
101832,99573
101787,99625
101823,99584
101871,99618
101925,99663
101864,99642
101855,99652
101786,99582
101889,99636
101901,99670
101895,99623
101848,99606
101859,99596
101923,99660
101973,99669
101928,99682
101916,99638
101944,99656
101965,99654
102064,99733
102035,99721
102027,99689
101992,99658
102105,99759
102112,99762
102088,99747
102097,99742
102055,99707
102074,99775
102117,99763
102128,99743
102069,99752
102019,99677
102147,99758
102138,99767
102134,99741
102067,99727
102048,99678
102116,99771
102128,99773
102136,99724
102065,99729
102072,99684
102117,99750
102131,99721
102128,99718
102061,99707
102071,99706
102142,99777
102118,99754
102118,99704
102082,99724
102084,99732
102156,99729
102192,99779
102113,99765
102163,99758
102139,99733
102179,99745
102232,99782
102178,99810
102190,99793
102170,99750
102267,99842
102298,99837
102269,99805
102284,99836
102274,99840
102412,99860
102425,99897
102353,99853
102410,99863
102369,99900
102469,99899
102507,99912
102485,99930
102471,99911
102515,99884
102545,99974
102581,99971
102623,99965
102619,99961
102658,99984
102682,99999
102759,100048
102693,100050
102714,99993
102733,100048
102835,100058
102884,100099
102861,100103
102857,100083
102818,100055
102908,100104
102930,100149
102923,100154
102945,100114
102917,100112
102978,100149
103039,100216
103018,100162
102983,100139
103000,100160
103069,100202
103073,100229
103083,100211
103094,100173
103079,100180
103135,100239
103155,100251
103155,100227
103158,100198
103177,100221
103197,100263
103259,100292
103185,100263
103211,100235
103214,100230
103280,100279
103282,100303
103302,100271
103255,100244
103289,100272
103296,100316
103362,100309
103322,100336
103300,100307
103279,100290
103387,100323
103426,100350
103371,100341
103323,100321
103392,100337
103436,100346
103461,100382
103405,100346
103393,100363
103449,100338
103457,100383
103487,100403
103505,100366
103447,100359
103490,100372
103550,100457
103546,100413
103579,100417
103549,100407
103535,100433
103590,100433
103654,100461
103611,100486
103586,100435
103641,100451
103680,100455
103757,100487
103674,100497
103645,100459
103724,100471
103756,100533
103839,100536
103751,100496
103761,100488
103786,100524
103845,100527
103871,100593
103843,100534
103800,100537
103824,100534
103909,100599
103943,100581
103926,100595
103932,100585
103912,100559
104034,100620
104036,100671
104033,100596
104016,100601
104063,100644
104112,100702
104131,100666
104190,100718
104115,100660
104190,100679
104234,100715
104301,100775
104246,100716
104228,100709
104235,100749
104313,100746
104249,100721
104146,100682
103980,100590
103896,100525
103797,100481
103657,100446
103465,100334
103236,100225
103111,100141
103012,100131
102854,100032
102723,100010
102557,99917
102536,99888
102476,99868
102413,99810
102276,99816
102179,99743
102170,99741
102129,99744
102068,99673
102023,99675
101930,99614
101916,99591
101950,99660
101915,99614
101837,99597
101787,99564
101794,99559
101838,99601
101849,99566
101801,99597
101766,99546
101786,99557
101838,99584
101847,99624
101808,99585
101824,99583
101822,99600
101844,99593
101918,99615
101857,99640
101864,99580
101900,99652
101921,99660
101970,99637
101912,99670
101887,99620
101946,99669
102004,99671
101976,99694
101978,99708
101952,99651
101969,99681
102031,99680
102049,99723
102006,99663
101975,99663
101973,99690
102029,99691
102050,99689
101996,99725
101963,99642
102039,99667
102059,99749
102083,99735
102080,99693
102038,99694
102069,99747
102123,99729
102207,99777
102173,99769
102143,99750
102153,99800
102183,99789
102193,99818
102192,99766
102186,99754
102153,99765
102246,99801
102220,99821
102239,99750
102163,99741
102176,99794
102245,99786
102229,99837
102242,99771
102211,99750
102242,99804
102261,99830
102264,99774
102204,99786
102188,99752
102247,99796
102249,99844
102230,99811
102270,99830
102213,99764
102236,99776
102321,99819
102253,99843
102264,99825
102186,99786
102282,99818
102318,99854
102288,99794
102292,99844
102233,99806
102290,99858
102328,99830
102391,99843
102322,99839
102336,99818
102377,99853
102415,99912
102414,99865
102460,99913
102381,99850
102419,99889
102534,99937
102503,99916
102524,99961
102448,99889
102544,99971
102574,99967
102604,99966
102626,100005
102568,99928
102633,99971
102646,100013
102716,100041
102682,100000
102664,99989
102679,100010
102770,100059
102796,100056
102754,100053
102783,100042
102815,100073
102871,100083
102909,100099
102874,100134
102833,100052
102942,100106
102975,100162
103005,100165
102956,100170
102921,100078
103008,100180
103055,100172
103026,100180
103055,100183
103001,100142
103082,100193
103096,100187
103115,100195
103101,100200
103020,100145
103131,100181
103166,100250
103153,100199
103142,100205
103159,100213
103192,100226
103265,100271
103228,100268
103226,100279
103188,100244
103266,100312
103275,100269
103377,100296
103358,100286
103299,100277
103365,100290
103418,100369
103390,100299
103392,100318
103406,100297
103416,100360
103466,100354
103472,100401
103466,100363
103381,100325
103476,100380
103505,100403
103512,100331
103473,100385
103461,100324
103494,100332
103591,100411
103527,100410
103556,100413
103491,100367
103579,100443
103593,100432
103615,100410
103598,100412
103588,100388
103634,100482
103663,100451
103690,100492
103683,100459
103632,100405
103703,100461
103777,100532
103745,100466
103707,100471
103742,100472
103750,100494
103807,100539
103833,100500
103829,100505
103762,100512
103848,100514
103925,100589
103898,100549
103904,100568
103867,100496
103902,100596
103964,100584
103966,100594
103969,100565
103943,100546
103942,100577
104051,100597
103998,100636
104030,100614
104019,100583
104050,100639
104105,100629
104095,100684
104104,100661
104088,100607
104138,100645
104227,100670
104161,100707
104156,100686
104207,100670
104237,100723
104311,100746
104266,100709
104289,100732
104271,100722
104387,100740
104395,100817
104403,100775
104412,100777
104363,100744
104464,100833
104457,100798
104446,100826
104410,100790
104354,100735
104358,100750
104298,100708
104186,100647
104008,100563
103779,100416
103692,100408
103511,100350
103307,100186
103158,100147
102923,100054
102863,100006
102828,99965
102612,99950
102524,99879
102445,99826
102357,99810
102366,99749
102253,99780
102137,99713
102064,99633
102099,99652
102062,99673
102006,99581
101965,99578
101823,99540
101909,99595
101906,99630
101863,99538
101823,99545
101795,99496
101829,99572
101812,99552
101829,99563
101817,99532
101766,99498
101842,99568
101854,99581
101892,99573
101843,99589
101808,99538
101860,99584
101921,99584
101895,99599
101876,99597
101839,99565
101908,99621
101962,99630
101907,99618
101923,99609
101895,99588
101977,99644
101989,99630
101970,99644
101979,99622
101877,99602
101977,99630
102020,99631
101986,99633
101944,99606
101914,99585
101998,99611
102032,99638
101998,99639
102010,99626
101914,99597
102069,99661
102068,99689
102096,99676
102063,99663
102049,99660
102108,99703
102209,99699
102132,99717
102178,99701
102137,99697
102206,99752
102235,99750
102185,99699
102188,99720
102186,99707
102212,99773
102216,99754
102204,99703
102196,99708
102093,99710
102189,99712
102255,99761
102216,99757
102184,99728
102146,99666
102254,99748
102214,99770
102219,99740
102174,99690
102124,99723
102205,99711
102247,99759
102186,99719
102227,99726
102162,99678
102242,99754
102254,99741
102202,99710
102248,99726
102186,99722
102260,99746
102261,99773
102290,99777
102270,99760
102214,99751
102309,99758
102309,99817
102343,99793
102313,99759
102329,99745
102402,99818
102388,99832
102405,99849
102423,99816
102401,99798
102488,99880
102520,99846
102468,99869
102504,99864
102499,99824
102579,99912
102562,99919
102614,99916
102586,99904
102596,99881
102656,99918
102715,100002
102695,99921
102694,99946
102687,99914
102743,100001
102808,100007
102742,99996
102767,100002
102768,99999
102816,100054
102860,100013
102819,99997
102806,100004
102824,100001
102881,100064
102946,100042
102892,100032
102921,100061
102871,100030
102963,100060
103020,100090
102936,100104
102916,100082
102924,100035
103011,100076
103074,100099
103049,100137
102973,100106
102950,100093
103049,100110
103124,100137
103036,100129
103067,100097
103023,100140
103111,100168
103200,100178
103134,100179
103114,100111
103141,100159
103206,100196
103208,100209
103186,100207
103221,100176
103161,100182
103255,100205
103296,100265
103283,100209
103272,100226
103270,100230
103319,100272
103350,100253
103337,100242
103327,100242
103271,100226
103418,100289
103418,100315
103402,100292
103421,100295
103375,100246
103526,100338
103499,100345
103466,100352
103484,100339
103500,100317
103588,100366
103570,100398
103588,100378
103585,100374
103561,100373
103658,100413
103701,100427
103687,100379
103683,100412
103669,100392
103796,100461
103798,100502
103761,100471
103835,100489
103810,100458
103886,100520
103897,100529
103908,100527
103876,100519
103922,100523
104013,100581
103993,100547
103987,100578
104028,100576
103985,100550
104097,100570
104060,100632
104074,100617
104104,100620
104095,100608
104173,100658
104202,100622
104186,100643
104196,100660
104182,100614
104279,100696
104246,100688
104241,100716
104306,100679
104285,100716
104335,100729
104429,100753
104380,100691
104404,100727
104340,100732
104478,100746
104469,100810
104486,100789
104490,100764
104490,100756
104606,100869
104598,100829
104613,100817
104587,100841
104574,100823
104664,100845
104679,100885
104663,100846
104621,100870
104574,100784
104589,100795
104524,100752
104398,100713
104178,100637
104032,100531
103885,100506
103717,100406
103547,100285
103335,100214
103193,100115
103073,100078
102949,100016
102825,99938
102683,99899
102592,99839
102559,99843
102471,99857
102370,99739
102310,99728
102196,99678
102194,99662
102171,99709
102065,99628
102023,99575
101923,99530
101996,99585
101901,99583
101866,99532
101853,99501
101808,99517
101839,99525
101869,99538
101849,99522
101785,99472
101809,99477
101844,99538
101828,99566
101791,99513
101844,99506
101787,99511
101875,99527
101892,99585
101853,99548
101877,99523
101841,99519
101966,99598
101953,99613
101921,99539
101889,99582
101939,99553
101969,99587
101992,99617
101930,99590
101941,99556
101921,99561
101938,99563
101961,99606
101936,99549
101928,99563
101931,99532
101940,99582
102000,99565
101966,99567
101883,99520
101938,99571
102007,99600
102010,99603
101988,99592
101978,99587
101998,99585
102073,99641
102102,99665
102047,99617
102066,99636
102046,99600
102112,99667
102152,99679
102081,99609
102068,99618
102073,99606
102095,99676
102131,99676
102068,99643
102080,99581
102046,99653
102100,99618
102139,99670
102057,99628
102071,99604
102037,99621
102102,99618
