11111,11111
0,0
82248,82239
113901,114281
113901,114264
113867,114215
113836,114215
113893,114240
113929,114261
113896,114300
113847,114252
113839,114279
113886,114268
113956,114323
113896,114309
113886,114282
113827,114260
113884,114301
113910,114356
113852,114323
113841,114302
113828,114298
113814,114319
113857,114338
113817,114338
113755,114258
113749,114250
113782,114288
113811,114323
113752,114266
113733,114231
113757,114251
113761,114270
113820,114276
113767,114283
113742,114210
113758,114254
113826,114245
113886,114285
113875,114299
113791,114231
113845,114244
113846,114272
113878,114274
113875,114292
113786,114264
113814,114277
113852,114275
113906,114292
113837,114289
113808,114222
113829,114267
113858,114293
113833,114286
113788,114239
113731,114197
113763,114228
113796,114245
113821,114241
113805,114229
113739,114182
113770,114210
113822,114246
113813,114235
113855,114238
113799,114186
113879,114237
113879,114271
113882,114239
113895,114273
113849,114206
113917,114231
113944,114302
113957,114256
113969,114262
113920,114248
113988,114276
114034,114315
114010,114309
114023,114263
113984,114228
114060,114292
114095,114359
114087,114309
114127,114327
114033,114285
114079,114312
114140,114361
114132,114362
114134,114329
114128,114312
114144,114328
114194,114357
114224,114370
114188,114333
114184,114324
114209,114361
114307,114413
114324,114389
114317,114397
114320,114369
114397,114458
114484,114470
114519,114499
114533,114491
114551,114459
114631,114520
114666,114574
114653,114575
114689,114595
114692,114549
114735,114582
114793,114632
114827,114640
114831,114647
114779,114616
114809,114656
114845,114625
114869,114620
114863,114612
114804,114595
114881,114618
114892,114652
114849,114608
114749,114573
114670,114505
112807,113588
112841,113592
112832,113614
113126,113716
113087,113662
113105,113684
113153,113727
113128,113711
113075,113669
113113,113688
113266,113760
113342,113848
113328,113817
113322,113833
113275,113755
113314,113777
113343,113865
113366,113830
113349,113823
113280,113776
113334,113808
113344,113842
113380,113858
113355,113835
113313,113800
113358,113820
113404,113863
113392,113839
113403,113855
113351,113808
113429,113830
113436,113873
113394,113837
113419,113848
113358,113803
113407,113851
113459,113870
113431,113880
113409,113823
113365,113804
113425,113855
113467,113898
113472,113867
113419,113874
113373,113827
113442,113872
113450,113877
113454,113895
113449,113880
113415,113831
113451,113851
113488,113912
113475,113881
113424,113854
113392,113835
113459,113855
113472,113909
113468,113888
113430,113871
113383,113846
113442,113907
113437,113884
113415,113879
113399,113869
113328,113820
113393,113857
113430,113901
113364,113851
113368,113834
113308,113795
113388,113834
113403,113879
113376,113838
113357,113815
113347,113773
113433,113847
113446,113844
113458,113847
113424,113843
113378,113829
113455,113853
113499,113876
113501,113884
113472,113859
113440,113839
113501,113874
113547,113923
113523,113908
113515,113834
113486,113830
113551,113889
113597,113932
113537,113891
113583,113859
113592,113875
113619,113912
113661,113971
113678,113915
113657,113889
113661,113898
113716,113946
113779,113974
113761,113937
113771,113951
113765,113946
113839,113969
113870,114002
113848,113996
113779,113947
113836,113971
113898,114006
113890,114028
113873,113993
113828,113972
113884,113983
113879,114020
113880,114013
113840,113953
113725,113906
113685,113877
113645,113871
113606,113867
113469,113781
113364,113728
113251,113687
113237,113664
113145,113617
113063,113572
112879,113503
112823,113456
112771,113487
112695,113417
112590,113359
112458,113279
112428,113310
112346,113296
112339,113242
112245,113205
112162,113152
112143,113148
112125,113147
112145,113146
112057,113149
112041,113082
112009,113105
112082,113132
112062,113127
112041,113138
111970,113071
112031,113102
112097,113165
112070,113153
112045,113115
112031,113095
112040,113139
112100,113163
112114,113157
112098,113118
112091,113096
112124,113141
112173,113157
112211,113172
112189,113156
112143,113097
112220,113157
112237,113212
112259,113173
112255,113160
112193,113157
112251,113183
112325,113234
112311,113245
112285,113174
112244,113216
112290,113215
112335,113266
112311,113263
112287,113220
112290,113200
112316,113222
112335,113272
112350,113292
112338,113216
112306,113224
112347,113274
112399,113270
112379,113254
112378,113263
112297,113174
112356,113236
112399,113292
112377,113266
112334,113219
112281,113187
112342,113211
112351,113240
112362,113215
112298,113223
112261,113164
112267,113196
112327,113222
112297,113205
112244,113142
112205,113118
112275,113179
112285,113191
112279,113155
112246,113163
112235,113088
112295,113169
112338,113176
112322,113189
112338,113165
112295,113154
112402,113190
112481,113224
112482,113251
112498,113240
112480,113240
112551,113245
112647,113338
112636,113345
112648,113304
112640,113310
112698,113346
112787,113404
112746,113390
112768,113356
112761,113362
112841,113430
112879,113450
112866,113423
112886,113403
112880,113395
112946,113464
112963,113465
112994,113461
112939,113467
112967,113422
113033,113516
113056,113515
113074,113509
113026,113482
113053,113484
113064,113534
113134,113546
113127,113534
113076,113529
113077,113505
113157,113559
113177,113568
113173,113571
113157,113503
113142,113533
113245,113607
113243,113607
113230,113564
113208,113540
113208,113580
113301,113614
113284,113611
113317,113608
113232,113599
113264,113575
113353,113653
113356,113634
113353,113653
113319,113626
113352,113591
113425,113654
113436,113676
113499,113692
113417,113667
113446,113676
113491,113729
113566,113741
113541,113717
113512,113679
113551,113700
113603,113754
113609,113766
113578,113735
113578,113708
113585,113755
113642,113745
113711,113800
113663,113765
113681,113751
113747,113779
113791,113841
113807,113826
113849,113812
113822,113819
113901,113869
113947,113906
113994,113911
113991,113912
113979,113849
114010,113907
114080,113944
114136,113974
114143,113978
114091,113950
114172,113990
114281,114038
114287,114033
114310,114071
114321,114029
114422,114105
114471,114136
114522,114162
114565,114150
114542,114135
114596,114183
114724,114244
114723,114236
114769,114237
114757,114217
114842,114274
114873,114359
114921,114314
114952,114337
114882,114277
114950,114368
114967,114407
114965,114376
114924,114367
114853,114273
114778,114304
114680,114261
114462,114133
114276,114020
113989,113879
113914,113822
113753,113801
113601,113691
113440,113626
113309,113533
113247,113512
113206,113501
113104,113442
113036,113411
112899,113352
112875,113339
112918,113379
112821,113349
112777,113287
112712,113243
112753,113307
112709,113314
112721,113304
112650,113330
112613,113252
112678,113296
112641,113326
112626,113289
112645,113307
112558,113270
112612,113302
112666,113318
112661,113307
112610,113282
112645,113261
112674,113329
112708,113344
112731,113353
112740,113314
112703,113313
112792,113369
112814,113409
112819,113368
112823,113366
112772,113349
112856,113376
112862,113430
112866,113397
112862,113383
112852,113381
112880,113411
112950,113461
112890,113409
112898,113400
112871,113420
112929,113435
112973,113485
112995,113462
112991,113459
112961,113411
113019,113499
113046,113518
113065,113527
113036,113478
112991,113486
113075,113529
113106,113537
113053,113508
113033,113493
113039,113460
113026,113513
113054,113517
113028,113469
112982,113428
112963,113447
112982,113456
112974,113459
112969,113449
112910,113392
112890,113403
112926,113459
112909,113438
112885,113427
112818,113364
112797,113369
112827,113386
112849,113405
112810,113401
112747,113317
112779,113335
112787,113389
112793,113396
112788,113354
112771,113334
112749,113320
112822,113365
112853,113392
112833,113410
112807,113332
112848,113406
112898,113406
112913,113417
112924,113414
112920,113399
112911,113396
112995,113464
112988,113477
112969,113457
112974,113396
112986,113462
113073,113514
113089,113480
113107,113529
113054,113449
113110,113487
113148,113532
113223,113527
113231,113554
113175,113513
113261,113539
113310,113603
113329,113576
113293,113590
113279,113536
113294,113569
113374,113604
113353,113620
113348,113579
113330,113588
113345,113554
113388,113628
113364,113625
113372,113588
113269,113568
113336,113596
113364,113611
113374,113610
113358,113597
113321,113566
113334,113579
113372,113605
113343,113594
113355,113604
113256,113557
113304,113586
113350,113629
113352,113600
113345,113588
113286,113544
113294,113558
113362,113613
113325,113603
113320,113546
113312,113543
113331,113574
113357,113588
113392,113611
113331,113593
113340,113527
113397,113586
113448,113646
113403,113590
113444,113625
113368,113600
113457,113612
113525,113677
113482,113657
113472,113646
113472,113631
113494,113677
113567,113700
113564,113679
113550,113669
113553,113667
113601,113707
113643,113733
113676,113741
113629,113738
113638,113692
113715,113775
113739,113797
113775,113789
113747,113758
113759,113758
113796,113840
113854,113835
113887,113818
113876,113863
113896,113791
113992,113889
114014,113944
114066,113928
114074,113914
114076,113929
114155,113978
114245,114000
114271,114021
114263,114007
114274,114010
114356,114061
114405,114104
114430,114118
114446,114084
114424,114070
114501,114119
114577,114184
114556,114158
114546,114123
114522,114146
114575,114172
114607,114189
114615,114153
114538,114111
114488,114121
114461,114114
114434,114089
114291,114025
114153,113931
113976,113878
113871,113835
113719,113762
113599,113717
113431,113600
113295,113552
113195,113516
113139,113483
112991,113436
112854,113319
112764,113313
112701,113274
112639,113259
112490,113180
112384,113103
112338,113103
112258,113102
112263,113068
112168,113027
112102,112969
112077,112971
112093,112969
112105,112985
112084,112963
112019,112953
112022,112925
112066,112963
112116,113004
112062,112994
112014,112947
112038,113001
112071,113020
112138,113017
112101,113022
112044,112982
112093,112985
112102,113030
112137,113015
112142,113032
112077,112980
112139,113000
112160,113028
112199,113039
112142,113026
112125,112939
112145,112987
112200,113070
112197,113025
112201,113032
112113,112975
112168,112976
112179,113032
112200,113063
112172,113011
112124,112965
112174,113019
112171,113019
112191,113029
112205,113047
112108,112977
112200,113027
112246,113047
112280,113011
112251,113057
112182,112992
112285,113039
112283,113045
112335,113052
112277,113061
112256,112995
112277,113027
112294,113056
112327,113060
112294,113031
112218,112995
112275,113064
112308,113039
112261,113046
112246,113024
112213,112977
112231,113015
112248,113047
112209,113009
112209,112992
112147,112939
112151,112966
112183,113020
112175,112980
112163,113001
112104,112955
112134,112989
112196,113021
112177,112975
112110,112956
112115,112948
112140,112998
112215,112974
112151,113008
112167,112975
112165,112962
112189,112980
112212,113031
112243,113013
112238,113005
112193,113002
112263,113013
112291,113041
112311,113060
112289,113038
112293,113032
112359,113049
112443,113136
112475,113118
112471,113119
112481,113110
112564,113151
112641,113217
112671,113190
112707,113201
112728,113207
112801,113269
112890,113341
112854,113314
112905,113303
112905,113345
112956,113344
112979,113395
113013,113391
112994,113382
112999,113363
113048,113409
113056,113441
113044,113384
113017,113382
113018,113386
113066,113404
113054,113446
113022,113395
112992,113388
112973,113356
112981,113387
113025,113410
112963,113378
112896,113362
112860,113336
112908,113354
112938,113360
112924,113360
112884,113332
112849,113323
112876,113355
112949,113395
112906,113344
112883,113290
112834,113300
112937,113355
112947,113363
112919,113380
112885,113313
112929,113328
112921,113395
112956,113377
112936,113368
112930,113339
112896,113336
112945,113359
112956,113389
112890,113361
112895,113309
112886,113320
112913,113354
112949,113392
112907,113366
112875,113310
112933,113314
112947,113360
112967,113377
112971,113379
112963,113344
112955,113325
113062,113421
113085,113420
113107,113397
113079,113374
113126,113395
113179,113443
113230,113437
113236,113480
113209,113444
113251,113465
113356,113529
113383,113553
113374,113524
113410,113515
113434,113571
113520,113601
113578,113640
113631,113631
113628,113623
113647,113650
113759,113730
113807,113743
113787,113710
113780,113687
113775,113721
113827,113754
113853,113775
113803,113744
113759,113718
113765,113702
113789,113763
113728,113745
113740,113690
113659,113681
113685,113684
113734,113709
113728,113738
113706,113720
113665,113636
113696,113693
113760,113711
113755,113727
113778,113716
113688,113649
113765,113686
113797,113723
113760,113740
113793,113697
113698,113658
113688,113652
113666,113696
113590,113593
113473,113589
113344,113477
113284,113433
113198,113448
113073,113360
112946,113291
112806,113206
112776,113205
112683,113206
112553,113115
112447,113066
112301,112994
112207,112970
112185,112967
112080,112883
112015,112870
111879,112788
111855,112813
111840,112830
111758,112748
111744,112753
111626,112706
111650,112752
111663,112746
111603,112706
111605,112697
111521,112668
111568,112671
111623,112732
111585,112693
111566,112694
111546,112648
111575,112688
111661,112758
111618,112729
111589,112669
111610,112666
111673,112706
111727,112795
111699,112741
111707,112739
111671,112701
111737,112758
111775,112797
111765,112745
111741,112735
111700,112731
111726,112764
111801,112805
111764,112765
111728,112763
111673,112729
111745,112714
111794,112761
111728,112760
111722,112718
111704,112730
111732,112717
111754,112790
111733,112738
111729,112723
111716,112728
111723,112730
111809,112791
111752,112800
111753,112736
111728,112736
111810,112773
111816,112780
111779,112781
111799,112730
111784,112740
111843,112746
111834,112753
111866,112751
111806,112744
111791,112709
111827,112763
111889,112772
111862,112766
111806,112701
111816,112720
111852,112777
111883,112779
111829,112746
111799,112715
111767,112720
111825,112757
111843,112765
111839,112745
111760,112699
111766,112706
111835,112766
111831,112775
111794,112729
111768,112679
111768,112717
111810,112740
111835,112757
111815,112729
111792,112724
111806,112707
111860,112754
111857,112757
111871,112778
111824,112706
111834,112742
111903,112800
111900,112785
111886,112777
111874,112751
111847,112785
111892,112783
111941,112820
111898,112796
111877,112753
111920,112786
111925,112815
111957,112830
111956,112795
111920,112769
111936,112795
111987,112820
112010,112830
111968,112783
111946,112774
111957,112803
112008,112861
112012,112819
112032,112800
111967,112800
112002,112810
112052,112866
112066,112828
112066,112820
111981,112765
112040,112811
112102,112857
112087,112848
112088,112824
112020,112813
112085,112828
112108,112848
112115,112836
112110,112849
112057,112825
112085,112822
112159,112884
112127,112866
112146,112881
112078,112791
112135,112846
112158,112888
112174,112907
112166,112865
112112,112833
112183,112891
112235,112897
112226,112909
112187,112876
112203,112860
112228,112889
112250,112926
112274,112924
112219,112888
112193,112880
112215,112896
112296,112925
112296,112935
112263,112883
112244,112893
112300,112915
112349,112937
112363,112935
112313,112939
112289,112911
112353,112944
112441,112989
112446,112991
112465,112955
112427,112927
112520,113006
112591,113030
112557,113049
112577,112995
112559,113012
112622,113038
112689,113072
112695,113066
112704,113102
112692,113047
112746,113095
112780,113116
112800,113127
112751,113094
112729,113088
112751,113097
112835,113140
112795,113151
112788,113090
112761,113115
112781,113125
112840,113166
112812,113155
112843,113130
112772,113130
112819,113117
112893,113200
112839,113154
112823,113135
112803,113151
112856,113131
112930,113209
112886,113153
112852,113161
112831,113136
112830,113139
112835,113165
112771,113092
112703,113086
112594,113005
112593,113040
112497,113009
112383,112913
112237,112849
112128,112788
112111,112790
112040,112756
111908,112656
111777,112602
111622,112551
111576,112503
111559,112519
111451,112450
111349,112384
111269,112365
111220,112381
111203,112357
111126,112320
111033,112260
111005,112242
111005,112306
110993,112259
110948,112262
110860,112196
110866,112197
110906,112220
110919,112257
110880,112220
110802,112166
110850,112190
110860,112236
110907,112238
110858,112217
110815,112193
110853,112184
110952,112244
110946,112262
110943,112234
110919,112196
110968,112238
110972,112308
111035,112295
110986,112272
110981,112248
110968,112240
111033,112278
111048,112307
111034,112280
110982,112217
111020,112262
111080,112273
111083,112267
111092,112283
111061,112239
111082,112268
111128,112328
111181,112346
111162,112303
111175,112288
111222,112325
111297,112394
111305,112358
111362,112388
111292,112332
111378,112408
111404,112433
111426,112455
111399,112406
111354,112358
111414,112417
111415,112457
111440,112437
111376,112403
111347,112392
111331,112395
111396,112436
111333,112411
111325,112370
111222,112314
111264,112364
111254,112382
111259,112341
111220,112324
111137,112271
111180,112303
111155,112333
111137,112316
111149,112317
111036,112263
111087,112268
111095,112324
111085,112285
111026,112256
111011,112281
111003,112261
111079,112292
111055,112274
111042,112275
110950,112230
111063,112281
111093,112282
111078,112298
111014,112262
110992,112242
111057,112270
111162,112338
111108,112329
111092,112281
111094,112258
111154,112268
111203,112354
111187,112299
111207,112297
111154,112274
111244,112335
111292,112354
111280,112375
111257,112339
111264,112332
111313,112372
111382,112386
111345,112383
111336,112392
111289,112327
111335,112391
111397,112427
111397,112388
111342,112349
111350,112364
111352,112408
111423,112417
111423,112427
111414,112397
111381,112384
111445,112435
111483,112425
111507,112447
111462,112433
111470,112404
111528,112433
111610,112480
111578,112463
111586,112439
111570,112439
111627,112471
111709,112511
111711,112526
111681,112508
111705,112498
111732,112495
111798,112540
111741,112535
111739,112539
111693,112486
111775,112552
111807,112565
111753,112553
111732,112526
111718,112494
111786,112555
111769,112569
111787,112570
111739,112498
111747,112540
111763,112579
111836,112571
111809,112575
111819,112523
111808,112545
111860,112574
111921,112617
111874,112591
111861,112563
111853,112615
111941,112629
111987,112662
111984,112630
111933,112601
111992,112660
112055,112678
112055,112668
112059,112669
112066,112664
112073,112647
112178,112720
112215,112726
112231,112720
112183,112728
112200,112720
112317,112788
112315,112807
112308,112816
112272,112750
112313,112807
112351,112844
112373,112836
112380,112839
112315,112811
112349,112820
112405,112863
112421,112842
112429,112854
112378,112839
112433,112849
112504,112901
112491,112883
112499,112873
112488,112834
112505,112900
112600,112954
112558,112941
112559,112910
112494,112854
112532,112878
112505,112893
112442,112830
112346,112773
112176,112726
112168,112682
112065,112701
111970,112615
111838,112528
111708,112500
111624,112490
111585,112432
111485,112416
111338,112319
111189,112256
111141,112239
111090,112243
110992,112186
110901,112135
110788,112057
110787,112066
110762,112100
110732,112063
110674,112048
110579,111957
110607,112017
110596,112032
110631,112027
110572,111979
110549,111962
110565,111986
110640,112030
110581,112038
110573,112021
110562,111963
110601,112004
110605,112020
110655,112048
110603,112023
110560,111984
110634,112010
110722,112063
110674,112017
110689,112016
110655,112003
110730,112051
110712,112069
110739,112065
110711,112049
110696,112000
110751,112062
110763,112072
110751,112097
110711,112045
110706,112023
110748,112054
110800,112090
110803,112091
110767,112026
110753,112044
110835,112086
110878,112114
110872,112128
110870,112082
110883,112119
110913,112141
110997,112162
110973,112182
110987,112118
110966,112128
110995,112181
111033,112176
111013,112204
110979,112123
110987,112105
111009,112141
111056,112194
110977,112119
110952,112132
110900,112109
110994,112167
111011,112172
110969,112134
110958,112124
110934,112071
110972,112143
111013,112169
111013,112165
110929,112109
110977,112126
111038,112174
111032,112183
111058,112187
111027,112162
110994,112156
111051,112200
111073,112204
111063,112202
111069,112186
111049,112191
111068,112238
111113,112224
111134,112248
111115,112212
111107,112218
111199,112250
111245,112305
111235,112256
111248,112248
111253,112289
111362,112326
111370,112336
111336,112339
111381,112320
111361,112349
111431,112373
111491,112378
111485,112411
111444,112352
111483,112357
111513,112417
111595,112440
111553,112403
111539,112397
111570,112428
111650,112472
111650,112455
111672,112440
111655,112460
111659,112429
111721,112474
111788,112490
111745,112533
111708,112475
111743,112469
111800,112533
111813,112546
111780,112530
111771,112498
111781,112526
111819,112545
111810,112558
111797,112508
111737,112491
111771,112532
111790,112566
111795,112531
111787,112545
111762,112502
111768,112524
111854,112576
111814,112557
111816,112533
111760,112506
111806,112541
111862,112552
111891,112584
111875,112552
111818,112521
111854,112551
111939,112595
111932,112578
111928,112577
111833,112548
111895,112591
111963,112610
111928,112587
111895,112575
111877,112541
111920,112585
111972,112629
111955,112607
111932,112615
111881,112574
111944,112591
111991,112629
111999,112630
111946,112610
111934,112579
111978,112606
112038,112642
112059,112651
112044,112638
112034,112625
112073,112674
112141,112716
112145,112696
112156,112714
112123,112673
112238,112706
112293,112791
112275,112769
112327,112760
112283,112724
112361,112772
112449,112830
112476,112865
112481,112829
112477,112821
112547,112908
112619,112906
112672,112949
112636,112904
112600,112911
112688,112967
112727,112981
112765,113004
112759,112967
112767,112999
112829,112998
112869,113061
112888,113063
112861,113052
112886,113021
112962,113094
112950,113099
112987,113097
112992,113069
112927,113071
113022,113116
113045,113148
113022,113069
112960,113097
112948,113042
112963,113059
112970,113092
112837,113022
112764,112992
112653,112892
112588,112876
112569,112882
112399,112796
112265,112732
112169,112652
112117,112626
112072,112633
111936,112544
111847,112474
111701,112433
111661,112440
111652,112406
111542,112369
111446,112302
111344,112255
111356,112269
111325,112282
111235,112244
111163,112173
111132,112161
111139,112183
111150,112200
111079,112167
111066,112147
111043,112133
111059,112175
111076,112185
111066,112174
111043,112114
111009,112124
111099,112199
111142,112191
111100,112164
111105,112155
111101,112183
111136,112192
111177,112235
111151,112174
111115,112171
111112,112190
111169,112181
111199,112224
111211,112203
111154,112163
111172,112191
111207,112216
111210,112197
111204,112197
111168,112144
111127,112174
111208,112215
111183,112220
111194,112169
111118,112143
111138,112170
111211,112223
111178,112198
111175,112193
111111,112153
111170,112162
111236,112217
111257,112250
111209,112196
111177,112204
111256,112211
111310,112267
111352,112256
111394,112275
111354,112248
111396,112273
111433,112320
111443,112304
111468,112292
111438,112254
111440,112290
111477,112331
111487,112326
111429,112331
111386,112262
111408,112306
111479,112351
111430,112330
111401,112320
111348,112270
111349,112290
111427,112342
111388,112312
111398,112317
111319,112288
111366,112304
111391,112306
111416,112326
111382,112282
111382,112270
111388,112321
111442,112329
111469,112361
111427,112346
111398,112286
111461,112358
111489,112349
111489,112376
111477,112353
111423,112323
111450,112337
111505,112393
111510,112354
111453,112358
111450,112326
111467,112380
111503,112397
111519,112346
111532,112378
111455,112319
111558,112383
111594,112407
111540,112390
111588,112390
111532,112394
111605,112389
111665,112429
111628,112430
111639,112437
111549,112386
111694,112411
111672,112462
111700,112466
111668,112462
111610,112411
111673,112444
111721,112504
111728,112465
111698,112461
111652,112436
111771,112477
111791,112541
111793,112525
111788,112465
111769,112475
111792,112536
111857,112536
111884,112534
111835,112512
111834,112495
111915,112553
111954,112580
111944,112578
111918,112540
111919,112528
111952,112592
112011,112619
111975,112591
111987,112595
111930,112583
112015,112591
112045,112622
112070,112624
112001,112605
112025,112580
112048,112606
112129,112672
112098,112660
112094,112612
112086,112625
112122,112679
112151,112688
112134,112658
112134,112649
112115,112608
112198,112677
112218,112719
112187,112691
112183,112668
112161,112672
112216,112689
112237,112734
112217,112733
112208,112689
112185,112707
112223,112724
112244,112756
112260,112726
112226,112690
112203,112704
112280,112725
112296,112761
112275,112715
112296,112728
112274,112702
112390,112752
112421,112793
112421,112777
112379,112741
112428,112781
112461,112816
112513,112836
112560,112865
112527,112814
112580,112840
112654,112893
112648,112901
112648,112881
112645,112882
112672,112899
112730,112953
112758,112973
112764,112957
112778,112928
112761,112949
112860,113006
112869,113036
112880,113001
112882,112985
112913,112987
112949,113038
112924,113028
112886,112979
112768,112913
112724,112901
112671,112903
112600,112828
112488,112763
112343,112664
112272,112654
112215,112653
112141,112649
112012,112529
111868,112487
111829,112431
111770,112440
111740,112418
111625,112384
111566,112293
111487,112316
111470,112290
111472,112314
111369,112256
111303,112202
111330,112233
111336,112257
111314,112233
111297,112255
111234,112187
111260,112215
111281,112250
111297,112287
111259,112231
111214,112210
111243,112223
111307,112281
111309,112251
111301,112243
111278,112210
111312,112254
111379,112289
111383,112309
111348,112239
111346,112248
111368,112271
111460,112319
111437,112319
111439,112282
111360,112285
111393,112283
111455,112350
111457,112335
111363,112305
111338,112237
111403,112324
111443,112317
111417,112315
111408,112267
111392,112269
111428,112311
111503,112337
111520,112329
111542,112335
111496,112312
111552,112336
111627,112394
111621,112378
111589,112368
111551,112348
111589,112387
111687,112410
111615,112383
111619,112394
111567,112332
111593,112361
111616,112390
111597,112349
111600,112324
111526,112318
111554,112314
111603,112352
111573,112352
111546,112316
111521,112293
111533,112322
111544,112342
111557,112341
111506,112313
111458,112267
111538,112322
111531,112336
111509,112309
111460,112293
111412,112273
111461,112316
111493,112327
111463,112326
111391,112282
111389,112249
111421,112293
111471,112344
111458,112288
111432,112292
111418,112271
111455,112302
111547,112348
111526,112314
111524,112331
111521,112300
111554,112352
111648,112396
111627,112410
111620,112342
111595,112353
111717,112421
111761,112436
111732,112447
111736,112387
111751,112407
111847,112475
111867,112511
111901,112472
111887,112475
111921,112493
111956,112528
112058,112579
112042,112574
112062,112544
112053,112545
112103,112587
112175,112612
112118,112629
112082,112533
112092,112560
112119,112608
112156,112605
112144,112618
112023,112583
112061,112573
112109,112618
112122,112580
112098,112577
112039,112539
112049,112556
112101,112573
112099,112587
112077,112550
112019,112547
112043,112560
112103,112592
112120,112608
112091,112574
112081,112558
112105,112544
112111,112569
112171,112595
112136,112601
112088,112566
112111,112574
112154,112618
112186,112639
112129,112592
112121,112558
112125,112561
112163,112625
112215,112625
112215,112633
112137,112567
112169,112603
112232,112659
112231,112657
112225,112648
112227,112636
112262,112669
112297,112688
112316,112689
112325,112666
112314,112699
112367,112711
112465,112752
112472,112781
112489,112773
112485,112717
112523,112803
112593,112841
112646,112823
112669,112846
112625,112824
112686,112873
112802,112901
112781,112920
112820,112913
112823,112916
112891,112930
112956,113007
112956,112992
113003,113006
112944,112931
113035,113010
113052,113036
113053,113040
112962,113001
112929,112927
112845,112955
112832,112932
112764,112863
112600,112786
112439,112707
112422,112714
112308,112703
112219,112643
112062,112575
111937,112472
111891,112473
111817,112464
111743,112379
111594,112331
111468,112259
111421,112242
111397,112238
111325,112181
111252,112180
111128,112097
111173,112133
111169,112112
111130,112119
111078,112083
111031,112031
111080,112102
111103,112098
111064,112052
111067,112052
111012,112029
111084,112072
111091,112125
111068,112099
111083,112068
111060,112042
111121,112091
111153,112133
111147,112113
111123,112076
111121,112039
111208,112119
111230,112148
111206,112137
111194,112078
111205,112119
111249,112139
111284,112147
111282,112122
111254,112131
111202,112096
111296,112133
111355,112177
111328,112169
111286,112165
111318,112119
111359,112186
111409,112219
111433,112212
111406,112203
111450,112181
111507,112260
111593,112283
111598,112270
111593,112267
111604,112264
111680,112308
111725,112364
111711,112319
111696,112309
111627,112276
111716,112331
111699,112331
111712,112328
111656,112307
111642,112281
111667,112317
111689,112341
111643,112324
111559,112265
111538,112270
111578,112297
111615,112300
111572,112301
111481,112226
111509,112249
111530,112264
111570,112278
111542,112264
111470,112238
111509,112252
111531,112281
111580,112307
111549,112286
111527,112267
111529,112269
111617,112295
111661,112352
111651,112328
111655,112307
111683,112338
111778,112378
111837,112376
111875,112439
111841,112381
111885,112425
111955,112465
112007,112472
112039,112499
112011,112491
112073,112542
112141,112569
112193,112590
112196,112573
112215,112551
112260,112573
112340,112651
112349,112652
112404,112663
112365,112601
112417,112680
112449,112745
112483,112717
112467,112691
112494,112709
112482,112712
112549,112735
112585,112757
112574,112726
112537,112726
112560,112723
112609,112770
112613,112794
112635,112749
112580,112747
112631,112764
112658,112791
112676,112814
112675,112778
112658,112784
112690,112812
112704,112831
112752,112815
112681,112833
112646,112750
112701,112795
112731,112832
112730,112821
112689,112800
112645,112756
112684,112808
112695,112815
112684,112804
112678,112801
112586,112756
112660,112759
112689,112827
112639,112761
112639,112765
112591,112739
112598,112779
112629,112821
112639,112774
112606,112792
112571,112729
112607,112744
112664,112806
112613,112790
112618,112765
112566,112778
112622,112780
112676,112840
112673,112787
112676,112789
112605,112797
112686,112786
112709,112828
112740,112835
112713,112827
112718,112832
112751,112824
112800,112889
112790,112882
112758,112858
112756,112834
112810,112900
112845,112903
112871,112884
112857,112897
112802,112863
112890,112903
112894,112940
112926,112957
112907,112903
112900,112922
112977,112964
112996,113013
113028,112993
112975,112983
112989,112933
113040,112996
113073,113015
113095,113020
113077,113014
113058,112976
113115,113061
113184,113073
113144,113064
113119,113049
113163,113031
113221,113119
113248,113090
113283,113131
113284,113098
113266,113083
113326,113142
113400,113161
113379,113140
113313,113084
113251,113084
113208,113044
113190,113033
113050,112992
112963,112867
112845,112838
112789,112833
112696,112796
112598,112745
112463,112658
112391,112593
112318,112590
112268,112583
112154,112524
112062,112472
111950,112432
111988,112450
111927,112445
111834,112424
111757,112328
111756,112373
111750,112382
111779,112366
111766,112376
111701,112319
111742,112348
111780,112401
111817,112390
111840,112421
111840,112416
111896,112425
111946,112454
112013,112474
112031,112533
112025,112488
112058,112523
112129,112580
112201,112593
112173,112599
112170,112561
112215,112614
112270,112651
112286,112654
112246,112626
112227,112582
112241,112628
112268,112634
112274,112644
112286,112648
112226,112617
112214,112624
112261,112639
112274,112645
112216,112637
112196,112601
112235,112618
112257,112653
112255,112648
112277,112665
112222,112583
112244,112674
112283,112677
112363,112668
112326,112677
112282,112616
112317,112681
112393,112710
112421,112711
112386,112686
112356,112634
112381,112699
112421,112712
112406,112698
112371,112680
112270,112631
112326,112650
112294,112679
112303,112643
112271,112638
112181,112601
112176,112618
112185,112614
112195,112596
112121,112578
112057,112543
112088,112580
112071,112601
112042,112527
112026,112546
111950,112508
111967,112506
112007,112547
111981,112537
111972,112492
111931,112480
111953,112519
111984,112527
112030,112530
112045,112506
111983,112478
112060,112506
112125,112546
112145,112572
112112,112552
112124,112534
112178,112563
112234,112624
112243,112597
112215,112602
112198,112582
112259,112633
112261,112633
112306,112660
112243,112632
112219,112610
112271,112629
112303,112652
112292,112636
112295,112638
112250,112600
112324,112643
112343,112670
112372,112676
112365,112670
112377,112633
112453,112691
112468,112724
112507,112700
112500,112690
112519,112685
112585,112729
112618,112765
112638,112757
112620,112735
112618,112747
112683,112772
112699,112826
112698,112779
112667,112768
112623,112747
112684,112797
112722,112824
112680,112795
112671,112788
112634,112761
112644,112775
112709,112822
112699,112804
112646,112772
112642,112760
112709,112803
112738,112858
112710,112806
112689,112799
112696,112815
112757,112822
112814,112866
112772,112828
112767,112831
112772,112837
112852,112890
112870,112889
112949,112919
112921,112875
112959,112921
113024,112936
113098,112985
113096,112946
113075,112948
113109,112989
113170,112984
113191,113029
113185,113010
113170,113001
113161,112990
113205,113060
113215,113033
113221,113027
113174,113013
113202,113059
113257,113040
113310,113061
113291,113072
113268,113055
113278,113055
113372,113125
113405,113134
113430,113130
113457,113122
113485,113153
113575,113192
113636,113236
113684,113235
113707,113210
113825,113286
113889,113316
113945,113375
113988,113380
114057,113371
114090,113418
114187,113497
114220,113476
114251,113477
114269,113488
114290,113521
114396,113572
114382,113586
114416,113571
114398,113547
114413,113582
114470,113628
114461,113597
114449,113616
114342,113549
114324,113541
114304,113538
114150,113435
113963,113369
113705,113219
113529,113127
113402,113091
113286,113035
113109,112954
112989,112850
112894,112820
112796,112821
112719,112774
112643,112711
112529,112629
112476,112634
112485,112629
112430,112635
112377,112571
112301,112535
112288,112555
112289,112550
112270,112523
112227,112545
112134,112486
112206,112493
112222,112541
112215,112543
112195,112464
112162,112476
112186,112511
112213,112520
112232,112532
112241,112501
112204,112480
112231,112514
112294,112560
112335,112565
112303,112542
112284,112517
112341,112568
112374,112582
112421,112590
112427,112584
112370,112535
112457,112598
112492,112644
112487,112614
112477,112623
112417,112583
112530,112626
112517,112656
112501,112614
112505,112622
112480,112559
112482,112627
112545,112664
112525,112637
112548,112629
112453,112573
112548,112657
112569,112644
112588,112668
112548,112640
112525,112618
112583,112668
112625,112681
112600,112683
112586,112640
112553,112621
112539,112666
112594,112663
112561,112631
112533,112621
112466,112567
112512,112644
112526,112595
112478,112612
112441,112548
112416,112561
112448,112575
112471,112625
112452,112579
112395,112526
112378,112522
112400,112549
112455,112568
112458,112569
112420,112515
112422,112536
112460,112576
112487,112592
112462,112580
112483,112575
112426,112557
112518,112593
112535,112651
112514,112626
112515,112572
112502,112601
112527,112615
112619,112675
112566,112664
112550,112611
112546,112612
112615,112654
112638,112716
112656,112677
112613,112678
112658,112669
112705,112739
112774,112741
112778,112779
112808,112732
112821,112744
112861,112768
112939,112831
112986,112798
112950,112816
112944,112817
113052,112855
113087,112867
113045,112892
113044,112836
113049,112881
113079,112884
113125,112919
113080,112875
113075,112866
113074,112889
113125,112899
113153,112940
113130,112897
113079,112858
113101,112886
113167,112928
113151,112932
113153,112886
113074,112861
113120,112881
113141,112919
113166,112913
113206,112912
113135,112887
113140,112924
113252,112930
113220,112971
113201,112889
113202,112912
113212,112914
113263,112975
113313,112958
113290,112967
113286,112911
113362,112969
113367,113001
113372,112986
113399,113015
113333,112970
113380,112996
113408,113008
113431,113017
113389,113022
113355,112974
113376,112992
113416,113017
113444,113024
113438,113041
113408,113001
113435,113037
113522,113085
113519,113087
113547,113082
113497,113051
113616,113084
113682,113146
113725,113166
113687,113117
113693,113151
113766,113140
113826,113239
113834,113224
113858,113207
113860,113222
113881,113232
113960,113291
113976,113298
113931,113268
113912,113232
113984,113282
113990,113286
114009,113304
114003,113279
113934,113266
113990,113263
114040,113347
114004,113281
114040,113315
113994,113262
114030,113291
114067,113323
114058,113305
114035,113320
114009,113258
114046,113294
114110,113328
114096,113353
114084,113281
114043,113293
114108,113310
114157,113363
114164,113360
114134,113316
114127,113342
114180,113365
114247,113399
114260,113390
114254,113395
114250,113376
114288,113418
114379,113486
114381,113419
114401,113459
114357,113433
114413,113457
114474,113506
114441,113485
114455,113460
114384,113408
114399,113451
114343,113416
114250,113379
114067,113272
113913,113179
113790,113126
113698,113081
113496,113026
113361,112891
113256,112862
113173,112856
113127,112860
112977,112752
112903,112704
112810,112693
112754,112674
112715,112659
112631,112615
112533,112556
112463,112538
112442,112528
112450,112549
112373,112490
112327,112468
112305,112443
112299,112493
112323,112486
112286,112502
112222,112453
112231,112454
112290,112469
112269,112492
112273,112458
112220,112477
112238,112445
112270,112508
112327,112511
112286,112488
112253,112478
112238,112465
112298,112498
112317,112521
112337,112497
112273,112447
112304,112465
112330,112533
112314,112500
112303,112484
112295,112440
112293,112452
112310,112490
112360,112471
112289,112475
112272,112403
112233,112456
112247,112445
112281,112468
112231,112449
112183,112385
112165,112412
112227,112398
112187,112432
112143,112388
112123,112363
112109,112351
112160,112421
112170,112398
112145,112371
112118,112325
112154,112346
112176,112398
112167,112408
112173,112380
112138,112329
112164,112334
112219,112414
112237,112406
112194,112380
112190,112356
112196,112375
112231,112429
112253,112392
112249,112399
112182,112372
112234,112374
112283,112418
112307,112416
112241,112385
112217,112352
112251,112372
112301,112424
112303,112407
112262,112406
112255,112387
112288,112392
112354,112439
112290,112410
112343,112429
112299,112364
112333,112418
112394,112455
112400,112448
112367,112439
112365,112431
112439,112478
112449,112510
112490,112515
112491,112471
112489,112453
112490,112521
112578,112538
112594,112537
112604,112549
112588,112502
112646,112589
112701,112612
112669,112593
112675,112552
112666,112538
112718,112591
112743,112658
112739,112623
112758,112609
112702,112619
112799,112644
112800,112656
112824,112653
112823,112653
112777,112604
112849,112674
112871,112665
112890,112693
112835,112670
112844,112643
112877,112679
112911,112712
112936,112681
112934,112689
112860,112641
112931,112686
112966,112741
112935,112712
112959,112712
112903,112655
112978,112735
113016,112748
112963,112741
112959,112691
112960,112697
113011,112716
113008,112738
113033,112727
113001,112744
112943,112693
113006,112751
113049,112766
113022,112743
112963,112713
112995,112723
113032,112754
113051,112765
113047,112767
112984,112745
112973,112717
113007,112746
113042,112754
113011,112770
112998,112696
112977,112721
112987,112747
113072,112776
113052,112753
113012,112733
113032,112759
113062,112770
113091,112776
113113,112782
113039,112784
113045,112730
113121,112802
113152,112797
113112,112818
113139,112763
113110,112801
113176,112816
113204,112863
113193,112825
113219,112791
113166,112820
113260,112858
113291,112881
113273,112865
113270,112830
113256,112851
113340,112900
113337,112897
113355,112903
113278,112844
113331,112900
113351,112904
113386,112940
113377,112905
113347,112900
113358,112883
113389,112928
113368,112949
113414,112933
113345,112907
113377,112912
113416,112924
113435,112925
113472,112946
113407,112913
113430,112914
113467,112980
113529,112960
113522,112986
113479,112931
113534,112975
113578,113024
113600,113016
113589,113010
113634,112999
113626,113036
113709,113061
113761,113098
113749,113083
113765,113055
113787,113070
113884,113137
113888,113141
113900,113125
113873,113104
113938,113137
113971,113189
113928,113152
113930,113139
113806,113064
113747,113036
113643,113000
113519,112960
113384,112849
113237,112775
113144,112756
113109,112719
112980,112667
112862,112590
112696,112551
112675,112510
112598,112527
112531,112485
112421,112417
112312,112360
112270,112344
112278,112368
112201,112309
112139,112268
112100,112227
112097,112264
112092,112256
112106,112262
112058,112231
112037,112187
112065,112251
112101,112264
112139,112261
112091,112270
112068,112215
112123,112234
112165,112307
112158,112284
112189,112269
112114,112272
112184,112291
112213,112332
112220,112301
112220,112293
112161,112290
112229,112321
112290,112351
112278,112328
112264,112312
112279,112299
112306,112341
112381,112364
112371,112377
112360,112356
112324,112330
112366,112340
112435,112368
112403,112389
112404,112362
112376,112353
112408,112360
112502,112440
112444,112385
112446,112387
112433,112393
112496,112419
112511,112454
112531,112426
112525,112438
112493,112362
112533,112424
112594,112470
112574,112445
112539,112442
112519,112410
112531,112427
112582,112470
112538,112380
112515,112400
112497,112354
112468,112419
112481,112388
112461,112367
112407,112341
112357,112327
112390,112340
112417,112356
112357,112354
112299,112270
112312,112282
112318,112287
112366,112345
112304,112275
112276,112263
112226,112261
112273,112287
112329,112298
112257,112282
112229,112269
112257,112243
112280,112279
112363,112319
112309,112290
112299,112256
112319,112239
112407,112314
112417,112316
112430,112358
112432,112296
112428,112317
112471,112384
112482,112361
112488,112368
112507,112373
112518,112356
112579,112415
112585,112418
112652,112420
112578,112389
112584,112413
112692,112449
112715,112494
112677,112452
112678,112426
112710,112460
112773,112505
112791,112532
112825,112493
112807,112505
112811,112495
112918,112558
112987,112590
112945,112587
112960,112540
113008,112599
113058,112626
113111,112646
113135,112659
113144,112627
113159,112655
113231,112709
113227,112678
113200,112681
113151,112655
113206,112664
113212,112723
113235,112702
113192,112696
113133,112632
113176,112678
113197,112665
113235,112719
113181,112670
113117,112616
113184,112668
113219,112704
113256,112697
113230,112693
113186,112657
113286,112686
113355,112754
113362,112741
113399,112747
113361,112726
113411,112752
113509,112809
113509,112805
113512,112808
113508,112790
113525,112818
113587,112857
113627,112860
113612,112850
113517,112803
113599,112873
113599,112856
113640,112846
113588,112854
113523,112810
113590,112857
113587,112868
113610,112836
113577,112857
113509,112779
113580,112840
113593,112879
113595,112867
113555,112865
113531,112793
113557,112866
113624,112869
113598,112870
113558,112846
113546,112819
113569,112865
113632,112887
113649,112860
113600,112872
113557,112851
113614,112873
113680,112881
113687,112929
113652,112891
113608,112855
113648,112876
113746,112936
113700,112976
113695,112904
113670,112906
113735,112942
113790,112988
113804,112946
113810,112978
113764,112929
113877,113014
113888,113039
113906,113021
113929,112996
113936,113026
114013,113043
114040,113068
114089,113077
114100,113093
114110,113097
114173,113081
114262,113156
114203,113132
114170,113091
114128,113054
114026,113057
113977,113007
113807,112934
113608,112803
113449,112750
113383,112692
113302,112657
113133,112595
113045,112516
112882,112457
112882,112465
112820,112452
112684,112379
112649,112361
112485,112284
112505,112306
112456,112274
112409,112248
112290,112177
112258,112183
112278,112175
112276,112208
112200,112139
112134,112098
112110,112109
112128,112101
112181,112149
112124,112158
112094,112098
112065,112070
112156,112119
112195,112145
112156,112092
112149,112089
112148,112131
112222,112131
112245,112180
112216,112139
112224,112126
112247,112157
112315,112202
112320,112201
112320,112187
112248,112144
112311,112160
112375,112210
112362,112207
112351,112176
112305,112140
112349,112164
112348,112192
112410,112203
112380,112193
112319,112179
112317,112144
112392,112209
112379,112205
112374,112225
112292,112165
112292,112188
112350,112171
112411,112239
112387,112197
112329,112160
112368,112192
112413,112210
112434,112220
112399,112217
112394,112179
112374,112194
112449,112250
112460,112228
112386,112207
112350,112165
112377,112176
112408,112204
112379,112197
112370,112155
112298,112130
112303,112153
112346,112149
112352,112168
112313,112149
112245,112088
112296,112145
112326,112146
112336,112126
112269,112136
112262,112096
112293,112137
112351,112139
112374,112160
112353,112152
112290,112137
112363,112166
112377,112186
112428,112174
112399,112219
112383,112159
112451,112224
112501,112242
112553,112235
112525,112250
112499,112238
112603,112272
112664,112315
112718,112331
112716,112306
112747,112336
112795,112410
112895,112420
112918,112429
112962,112442
112931,112437
113024,112502
113082,112517
113122,112559
113129,112529
113078,112523
113134,112547
113199,112588
113197,112578
113170,112552
113108,112535
113175,112557
113212,112590
113209,112594
113145,112565
113160,112530
113161,112560
113243,112607
113224,112568
113187,112567
113160,112569
113230,112579
113301,112615
113265,112613
113238,112593
113213,112564
113278,112606
113306,112621
113316,112639
113257,112596
113268,112576
113318,112611
113372,112673
113353,112657
113348,112640
113306,112628
113410,112677
113431,112694
113482,112708
113450,112715
113464,112680
113536,112707
113633,112787
113598,112747
113634,112743
113621,112729
113753,112794
113782,112849
113772,112809
113793,112830
113807,112805
113884,112840
113958,112905
113909,112880
113907,112855
113879,112847
113933,112918
113973,112922
113938,112876
113897,112898
113883,112879
113927,112890
113918,112899
113925,112869
113859,112858
113857,112853
113928,112892
113932,112908
113878,112860
113882,112876
113854,112864
113921,112873
113962,112903
113976,112921
113944,112844
113973,112863
114049,112933
114083,112969
114095,112956
114060,112918
114080,112952
114160,112993
114167,112997
114212,112986
114134,112975
114184,112988
114248,113018
114298,113042
114270,113055
114271,113019
114268,113032
114334,113082
114416,113102
114377,113106
114383,113076
114415,113097
114500,113161
114540,113183
114554,113122
114538,113141
114598,113169
114699,113202
114715,113247
114708,113190
114706,113221
114770,113217
114834,113271
114818,113309
114827,113249
114826,113264
114860,113277
114904,113313
114925,113352
114921,113312
114861,113329
114920,113332
114954,113363
114987,113389
114968,113336
114902,113310
114976,113360
115039,113390
115033,113398
114965,113393
114937,113343
114994,113361
115020,113385
114996,113368
114986,113358
114892,113307
114847,113294
114826,113253
114634,113189
114446,113112
114169,112915
113924,112802
113788,112753
113603,112679
113417,112543
113195,112466
113146,112461
113085,112424
112958,112340
112882,112312
112747,112238
112725,112239
112730,112278
112652,112223
112562,112147
112508,112129
112515,112161
112538,112175
112543,112180
112458,112142
112443,112102
112475,112136
112533,112196
112482,112167
112485,112162
112420,112124
112466,112127
112540,112201
112520,112175
112508,112155
112436,112141
112509,112207
112537,112176
112541,112194
112475,112168
112445,112133
112519,112161
112518,112192
112522,112201
112444,112150
112383,112094
112457,112148
112466,112194
112451,112152
112389,112093
112319,112077
112368,112123
112370,112128
112318,112106
112272,112056
112216,112033
112280,112063
112256,112050
112255,112045
112199,112041
112120,111964
112201,112038
112207,112023
112217,112029
112145,112018
112135,111977
112185,112018
112248,112063
112182,112022
112193,112004
112135,111987
112251,111994
112282,112027
112264,112042
112243,112004
112224,111992
112289,112038
112316,112039
112280,112058
112256,112000
112259,112011
112299,112061
112293,112060
112285,112047
112235,111999
112256,111993
112274,112042
112272,112068
112235,112027
112217,111996
112157,112005
112267,112031
112261,112059
112222,112008
112206,112019
112180,111966
112233,112031
112305,112058
112225,112046
112228,111996
112240,112011
112334,112045
112332,112078
112347,112065
112321,112053
112338,112050
112443,112087
112447,112117
112484,112115
112465,112097
112489,112135
112590,112137
112613,112197
112625,112159
112635,112179
112685,112199
112780,112219
112832,112296
112803,112245
112808,112250
112882,112285
112938,112356
112992,112355
113014,112338
112990,112354
113042,112366
113151,112430
113137,112450
113197,112464
113176,112411
113220,112492
113298,112521
113354,112530
113364,112531
113363,112499
113448,112583
113471,112583
113510,112644
113541,112611
113531,112610
113603,112640
113694,112729
113708,112716
113736,112738
113708,112671
113803,112738
113798,112792
113835,112765
113852,112789
113780,112765
113849,112802
113892,112820
113854,112792
113866,112772
113821,112766
113824,112790
113873,112825
113872,112839
113821,112804
113807,112730
113793,112797
113835,112795
113824,112781
113795,112777
113764,112737
113803,112803
113812,112779
113805,112805
113786,112764
113753,112687
113813,112745
113795,112782
113786,112757
113770,112738
113700,112713
113715,112733
113768,112748
113720,112720
113671,112669
113554,112619
113580,112645
113559,112683
113514,112604
113495,112605
113401,112569
113426,112585
113423,112602
113422,112575
113395,112555
113335,112513
113430,112538
113453,112597
113451,112571
113441,112576
113405,112540
113472,112585
113514,112636
113554,112609
113524,112621
113469,112591
113599,112629
113593,112667
113594,112642
113612,112658
113585,112619
113649,112678
113707,112691
113708,112719
113631,112688
113640,112664
113716,112715
113775,112735
113788,112727
113743,112751
113772,112716
113859,112775
113945,112807
113956,112804
113906,112806
113957,112790
114026,112865
114084,112871
114094,112870
114063,112847
114077,112859
114198,112927
114236,112934
114213,112954
114204,112897
114214,112937
114287,112954
114365,113029
114321,112988
114285,112953
114227,112925
114222,112954
114159,112909
113935,112811
113753,112661
113552,112589
113439,112512
113320,112484
113155,112396
112984,112306
112888,112260
112817,112261
112731,112221
112672,112169
112551,112097
112465,112055
112456,112078
112398,112046
112355,112011
112241,111948
112234,111957
112235,111974
112260,111963
112214,111930
112189,111919
112175,111909
112240,111984
112284,111975
112266,111969
112281,111914
112300,111979
112412,112034
112448,112045
112477,112050
112491,112064
112544,112103
112655,112154
112643,112156
112700,112199
112689,112142
112712,112174
112805,112237
112798,112221
112750,112231
112744,112178
112776,112217
112787,112235
112810,112240
112806,112229
112729,112195
112774,112232
112813,112247
112795,112243
112796,112237
112733,112204
112766,112233
112802,112254
112847,112231
112828,112246
112796,112212
112829,112226
112897,112264
112925,112288
112930,112280
112847,112252
112930,112317
112996,112343
112968,112338
112994,112316
112930,112286
112972,112311
112999,112338
112977,112328
112966,112292
112918,112239
112919,112265
112956,112298
112903,112258
112829,112230
112771,112208
112796,112197
112786,112219
112779,112223
112752,112167
112645,112127
112714,112159
112753,112187
112689,112153
112688,112152
112632,112116
112718,112154
112744,112177
112717,112157
112717,112166
112699,112137
112740,112170
112828,112224
112788,112216
112805,112206
112784,112160
112822,112204
112850,112244
112851,112254
112799,112225
112810,112194
112845,112253
112900,112290
112847,112262
112863,112224
112828,112217
112924,112290
112904,112308
112900,112293
112903,112272
112906,112253
112932,112275
113007,112342
112986,112316
112960,112291
112958,112289
113018,112328
113073,112336
113060,112364
113029,112300
112999,112328
113041,112329
113117,112374
113084,112347
113100,112333
113039,112334
113108,112366
113142,112397
113154,112361
113146,112369
113081,112317
113134,112361
113211,112435
113183,112382
113145,112383
113126,112337
113197,112393
113212,112410
113208,112395
113180,112357
113173,112374
113210,112387
113286,112453
113267,112402
113238,112395
113279,112392
113322,112473
113336,112453
113352,112459
113325,112409
113319,112409
113388,112457
113461,112495
113439,112478
113412,112461
113422,112447
113487,112504
113505,112529
113507,112486
113445,112488
113478,112515
113566,112524
113591,112536
113580,112556
113551,112524
113537,112527
113612,112562
113689,112603
113637,112571
113630,112578
113665,112542
113735,112601
113785,112630
113750,112630
113732,112606
113797,112621
113837,112702
113870,112709
113888,112675
113874,112672
113914,112700
113995,112745
114062,112773
114100,112768
114053,112743
114117,112793
114232,112846
114242,112835
114302,112879
114301,112859
114336,112869
114426,112937
114468,112942
114442,112925
114465,112928
114513,112963
114545,112983
114583,113013
114609,113004
114564,112991
114569,112994
114656,113054
114651,113035
114572,113008
114547,112989
114538,112986
114479,112974
114419,112903
114203,112822
113911,112673
113780,112596
113602,112525
113436,112416
113275,112340
113037,112234
113012,112222
112947,112177
112846,112137
112757,112096
112631,112022
112589,112019
112622,112019
112548,112007
112493,111959
112408,111937
112439,111919
112449,111957
112451,111967
112433,111947
112357,111891
112434,111943
112484,111966
112477,111974
112465,111970
112452,111935
112541,111999
112604,112024
112569,112021
112583,112021
112589,111998
112639,112056
112739,112103
112728,112077
112749,112090
112748,112069
112793,112128
112850,112140
112864,112159
112851,112136
112785,112112
112871,112166
112909,112171
112860,112172
112834,112151
112771,112113
112822,112159
112870,112176
112814,112138
112787,112115
112720,112103
112815,112164
112855,112153
112810,112150
112815,112147
112811,112133
112859,112175
112926,112214
112947,112226
112877,112166
112907,112185
112999,112228
113006,112262
113015,112248
112949,112211
112947,112177
112957,112219
112987,112210
112937,112184
112883,112164
112825,112142
112862,112151
112871,112157
112825,112135
112760,112078
112666,112073
112738,112094
112745,112082
112662,112073
112637,112034
112576,111992
112623,112029
112654,112030
112619,112012
112540,111991
112539,111957
112557,112006
112645,112030
112565,111996
112572,111971
112549,111994
112634,112028
112651,112042
112643,112030
112592,112007
112604,111989
112690,112026
112687,112048
112667,112071
112641,111978
112648,112060
112729,112065
112757,112096
112729,112075
112720,112032
112738,112065
112803,112104
112889,112137
112851,112138
112833,112088
112855,112100
112956,112157
112978,112188
112942,112124
112942,112132
112954,112159
112987,112173
113018,112182
113011,112218
112936,112165
112947,112139
113017,112216
113083,112245
113030,112193
112990,112186
113052,112227
113082,112236
113133,112246
113134,112282
113110,112224
113136,112264
113243,112309
113286,112303
113298,112316
113299,112314
113313,112326
113368,112347
113424,112353
113367,112383
113354,112348
113353,112362
113427,112380
113463,112398
113400,112364
113364,112340
113408,112398
113436,112394
113486,112413
113465,112433
113426,112380
113472,112401
113584,112481
113614,112469
113602,112448
113554,112445
113643,112484
113736,112537
113760,112557
113770,112517
113762,112502
113829,112592
113883,112621
113901,112583
113905,112583
113873,112582
113984,112657
114040,112659
114090,112697
114058,112641
114038,112654
114116,112720
114162,112740
114172,112707
114155,112741
114131,112700
114243,112760
114270,112796
114263,112785
114253,112758
114208,112747
114296,112814
114342,112835
114330,112792
114348,112819
114284,112779
114364,112802
114420,112844
114450,112854
114416,112845
114402,112839
114489,112863
114544,112910
114572,112907
114573,112886
114559,112888
114641,112947
114720,112988
114729,112975
114696,112975
114704,112957
114773,113005
114817,113031
114827,113021
114816,113015
114752,112999
114832,113032
114880,113036
114886,113059
114845,113029
114765,113000
114812,113034
114802,113016
114701,112981
114602,112922
114451,112830
114269,112757
114125,112685
113847,112542
113600,112404
113402,112325
113283,112250
113188,112206
113028,112114
112871,112023
112729,111984
112692,111969
112642,111948
112548,111916
112464,111856
112376,111824
112428,111866
112385,111831
112338,111796
112287,111768
112233,111774
112302,111799
112315,111783
112259,111786
112237,111737
112195,111750
112298,111788
112318,111795
112249,111757
112240,111749
112267,111767
112282,111801
112345,111814
112354,111810
112263,111777
112278,111809
112354,111815
112312,111827
112344,111816
112280,111778
112273,111778
112320,111816
112317,111824
112321,111761
112227,111758
112230,111738
112292,111785
112254,111763
112239,111757
112208,111697
112140,111702
112200,111763
112213,111730
112161,111719
112112,111712
112124,111686
112139,111737
112172,111726
112166,111719
112116,111693
112148,111717
112163,111741
112241,111753
112196,111736
112152,111690
112200,111719
112232,111772
112232,111777
112225,111737
112192,111697
112194,111735
112236,111760
112212,111746
112189,111705
112128,111684
112169,111708
112195,111725
112173,111711
112154,111717
112078,111661
112065,111667
112139,111691
112136,111680
112090,111659
112011,111615
112041,111643
112057,111679
112077,111672
111988,111644
111957,111598
111980,111633
112026,111682
112022,111643
111983,111637
111960,111615
111990,111636
112042,111675
112036,111653
112059,111672
112025,111630
112068,111670
112112,111727
112144,111717
112152,111693
112165,111690
112251,111741
112330,111793
112361,111807
112381,111829
112410,111796
112475,111846
112584,111912
112596,111937
112605,111904
112615,111934
112676,111947
112766,112001
112763,112006
112771,112005
112730,111979
112776,112037
112847,112020
112795,112025
112800,112014
112782,112009
112775,112013
112831,112066
112810,112037
112796,112015
112765,112017
112798,112051
112841,112057
112856,112064
112822,112024
112792,112015
112872,112050
112900,112090
112906,112081
112859,112044
112830,112032
112903,112078
112914,112065
112884,112056
112865,112039
112807,112021
112883,112079
112907,112068
112830,112033
112831,112043
112788,111992
112808,112017
112857,112069
112801,112028
112753,111980
112756,111996
112829,112034
112824,112055
112821,112039
112782,112014
112790,112006
112793,112041
112892,112081
112882,112069
112837,112026
112821,112012
112893,112079
112917,112104
112930,112068
112871,112073
112897,112089
112966,112099
112998,112123
112978,112107
112982,112078
112982,112100
113023,112153
113105,112165
113067,112174
113067,112107
113096,112119
113108,112170
113176,112176
113194,112215
113123,112172
113170,112177
113255,112218
113300,112253
113264,112232
113291,112241
113330,112256
113364,112298
113445,112320
113435,112295
113442,112334
113473,112315
113560,112339
113639,112411
113613,112422
113625,112385
113657,112421
113780,112462
113820,112518
113820,112493
113825,112458
113885,112508
113929,112570
113974,112568
114026,112573
113958,112554
114033,112607
114145,112657
114148,112635
114160,112682
114173,112635
114228,112680
114283,112706
114343,112734
114341,112729
114292,112679
114309,112727
114299,112709
114297,112683
114203,112677
114011,112516
113863,112464
113689,112400
113440,112305
113284,112160
113003,112056
112900,112001
112803,111952
112640,111877
112539,111819
112359,111713
112343,111720
112283,111745
112228,111693
112153,111651
112034,111607
112036,111631
112050,111617
112026,111600
111997,111570
111894,111526
111954,111563
111987,111592
111984,111609
111941,111554
111930,111532
111957,111572
112022,111607
112026,111630
112006,111565
111978,111573
112017,111633
112075,111643
112089,111620
112103,111648
112041,111590
112113,111638
112142,111674
112167,111655
112146,111657
112097,111609
112164,111666
112205,111690
112188,111693
112182,111656
112135,111652
112211,111679
112239,111696
112216,111702
112163,111658
112114,111596
112169,111662
112181,111704
112140,111670
112144,111628
112114,111654
112161,111668
112199,111685
112211,111662
112218,111709
112200,111656
112259,111723
112298,111766
112305,111726
112316,111723
112305,111730
112349,111748
112382,111774
112366,111773
112331,111731
112288,111686
112343,111751
112383,111768
112316,111705
112293,111716
112213,111654
112265,111700
112305,111706
112220,111704
112156,111637
112138,111624
112189,111668
112186,111658
112159,111658
112082,111611
112050,111605
112089,111638
112120,111670
112117,111639
112073,111611
112080,111601
112128,111652
112124,111695
112159,111648
112128,111637
112126,111633
112202,111674
112237,111721
112227,111676
112258,111694
112249,111665
112333,111735
112396,111769
112376,111735
112343,111723
112356,111714
112416,111781
112462,111819
112438,111812
112437,111763
112445,111792
112542,111839
112529,111833
112551,111816
112525,111820
112556,111808
112650,111887
112611,111880
112651,111855
112601,111867
112641,111857
112725,111922
112746,111904
112746,111936
112713,111866
112747,111938
112828,111978
112880,112008
112893,111984
112891,111973
112910,112006
112967,112037
113012,112075
113025,112059
113005,112030
113041,112053
113116,112114
113171,112127
113195,112140
113164,112098
113227,112163
113342,112213
113358,112223
113394,112218
113367,112226
113438,112260
113520,112313
113576,112338
113557,112334
113542,112272
113577,112329
113645,112364
113603,112367
113632,112330
113584,112346
113644,112369
113664,112402
113646,112386
113615,112346
113610,112352
113647,112380
113700,112392
113736,112423
113729,112381
113701,112373
113774,112423
113799,112456
113825,112445
113846,112456
113835,112412
113872,112451
113958,112516
113926,112494
113941,112492
113907,112457
113961,112497
113985,112537
114029,112553
114029,112560
113982,112479
114060,112535
114138,112592
114118,112599
114135,112552
114120,112573
114187,112606
114226,112624
114230,112657
114223,112620
114223,112627
114320,112658
114328,112696
114345,112692
114315,112654
114314,112653
114332,112657
114414,112687
114360,112722
114376,112720
114341,112675
114404,112735
114449,112740
114429,112751
114391,112734
114377,112695
114447,112717
114498,112784
114487,112715
114453,112735
114435,112697
114461,112765
114516,112774
114431,112724
114377,112689
114252,112628
114142,112588
113948,112479
113711,112342
113417,112206
113259,112099
113150,112085
113024,112035
112841,111901
112714,111838
112566,111757
112500,111751
112465,111742
112372,111688
112252,111629
112163,111617
112151,111589
112191,111612
112098,111584
112080,111534
112000,111510
112068,111570
112041,111544
112045,111558
112004,111509
111952,111509
112033,111546
112081,111559
112067,111556
112018,111567
112021,111556
112117,111602
112110,111614
112099,111601
112071,111538
112051,111566
112115,111579
112189,111637
112122,111595
112083,111589
112077,111593
112112,111606
112156,111620
112110,111557
112031,111557
112068,111564
112086,111597
112075,111578
112047,111570
112006,111541
111982,111541
111982,111551
112026,111554
112003,111547
111947,111529
111949,111495
112009,111568
112013,111570
111993,111547
111977,111530
112001,111551
112049,111583
112063,111591
112103,111566
112046,111533
112054,111592
112114,111600
112102,111595
112091,111585
112052,111538
112033,111566
112070,111601
112071,111575
112032,111542
111914,111515
111995,111521
111974,111547
111952,111521
111928,111507
111808,111457
111877,111483
111854,111479
111825,111494
111798,111426
111714,111399
111724,111398
111766,111434
111729,111427
111685,111401
111632,111347
111624,111407
111677,111378
111697,111423
111626,111371
111584,111311
111662,111382
111685,111416
111688,111412
111692,111381
111628,111331
111663,111392
111776,111428
111762,111425
111791,111418
111765,111384
111787,111430
111899,111468
111853,111479
111871,111464
111832,111440
111904,111490
111929,111492
111968,111508
111957,111509
111901,111477
111979,111491
111996,111548
112004,111501
111996,111504
111910,111498
112024,111526
112046,111570
112063,111555
112079,111530
112022,111526
112031,111535
112103,111605
112103,111555
112145,111565
112084,111565
112146,111580
112235,111608
112222,111627
112232,111638
112179,111598
112305,111628
112354,111712
112330,111639
112319,111631
112300,111667
112359,111667
112421,111690
112422,111728
112403,111685
112393,111653
112465,111718
112538,111744
112528,111762
112507,111734
112528,111725
112581,111750
112619,111812
112676,111795
112659,111793
112656,111774
112664,111800
112759,111838
112738,111839
112717,111825
112689,111796
112793,111849
112851,111898
112821,111848
112822,111856
112822,111873
112930,111926
112967,111938
112975,111924
113000,111925
112989,111960
113091,111987
113162,112061
113156,112011
113153,112012
113198,112008
113250,112096
113281,112090
113329,112096
113306,112079
113282,112092
113375,112137
113461,112162
113414,112155
113374,112141
113474,112151
113513,112231
113522,112212
113564,112219
113563,112219
113567,112245
113665,112269
113715,112278
113748,112331
113731,112307
113746,112302
113872,112362
113967,112420
113945,112404
113921,112387
113990,112415
114087,112465
114145,112473
114145,112509
114137,112466
114169,112492
114238,112537
114308,112548
114267,112581
114233,112529
114318,112550
114358,112605
114378,112578
114412,112628
114352,112577
114413,112597
114489,112670
114484,112653
114505,112662
114473,112624
114520,112636
114594,112711
114614,112742
114618,112670
114614,112682
114628,112729
114686,112749
114699,112788
114682,112747
114718,112733
114745,112772
114761,112826
114798,112769
114822,112812
114747,112750
114768,112755
114853,112825
114813,112816
114810,112792
114668,112734
114633,112729
114603,112703
114492,112615
114295,112555
113967,112378
113714,112245
113519,112176
113279,112082
113102,111958
112918,111879
112851,111847
112752,111794
112611,111727
112550,111691
112403,111644
112377,111621
112386,111637
112304,111608
112297,111589
112210,111549
112221,111558
112250,111609
112174,111574
112219,111561
112143,111547
112211,111582
112253,111625
112249,111588
112245,111613
112231,111586
112324,111611
112391,111682
112390,111676
112436,111689
112389,111668
112474,111691
112515,111735
112477,111742
112500,111724
112428,111688
112510,111755
112541,111746
112514,111756
112492,111694
112441,111674
112466,111693
112488,111723
112465,111726
112425,111644
112408,111667
112398,111660
112451,111709
112390,111653
112389,111676
112315,111623
112356,111645
112391,111662
112399,111671
112352,111646
112327,111644
112427,111679
112439,111726
112419,111664
112432,111685
112462,111694
112499,111737
112505,111739
112532,111726
112498,111725
112491,111710
112554,111722
112560,111746
112529,111763
112470,111688
112464,111708
112456,111690
112490,111715
112431,111703
112387,111669
112316,111628
112390,111651
112406,111689
112318,111625
112245,111608
112216,111573
112260,111592
112287,111634
112246,111581
112210,111590
112201,111546
112237,111609
112254,111615
112257,111620
112221,111568
112195,111585
112307,111619
112361,111675
112317,111629
112325,111617
112372,111639
112442,111705
112467,111732
112486,111705
112444,111689
112498,111711
112547,111749
112584,111747
112615,111778
112571,111724
112599,111791
112666,111827
112722,111818
112737,111868
112755,111825
112765,111855
112881,111909
112916,111930
112910,111901
112932,111907
112978,111962
113027,111959
113129,112005
113095,112038
113087,112024
113130,112040
113245,112079
113255,112109
113267,112078
113246,112086
113295,112098
113362,112178
113341,112160
113390,112133
113325,112125
113358,112133
113383,112181
113392,112142
113353,112154
113304,112113
113320,112119
113357,112135
113300,112119
113304,112113
113204,112049
113234,112123
113235,112088
113231,112087
113161,112065
113087,112017
113156,112044
113182,112047
113157,112049
113126,112026
113079,111994
113110,112023
113130,112033
113161,112012
113113,112041
113078,111990
113102,112006
113107,112037
113136,112006
113107,112040
113083,111981
113084,112012
113161,112044
113143,112031
113136,112001
113070,111980
113154,112026
113172,112072
113149,112035
113170,112045
113121,111985
113162,112059
113222,112069
113210,112046
113225,112060
113181,112032
113261,112072
113338,112141
113316,112107
113367,112104
113345,112098
113421,112163
113430,112177
