11111,11111
0,0
82307,82196
111502,112134
111472,112135
111570,112211
111624,112253
111610,112228
111540,112202
111502,112146
111595,112229
111652,112294
111629,112266
111582,112186
111515,112172
111624,112252
111699,112291
111692,112287
111658,112211
111595,112206
111783,112281
111834,112342
111810,112319
111816,112270
111778,112258
111941,112358
112026,112413
112016,112383
111929,112314
111937,112322
112029,112388
112124,112453
112058,112405
112024,112323
111974,112348
112098,112413
112134,112476
112103,112409
111996,112331
112041,112406
112132,112469
112159,112492
112128,112419
112101,112340
112109,112434
112228,112507
112271,112507
112219,112472
112168,112421
112218,112427
112346,112523
112343,112516
112321,112470
112240,112425
112272,112474
112396,112534
112418,112561
112395,112516
112304,112446
112343,112514
112407,112551
112469,112604
112424,112552
112278,112458
112366,112541
112414,112582
112486,112626
112393,112570
112329,112464
112307,112498
112395,112556
112409,112558
112377,112558
112197,112451
112257,112502
112327,112569
112364,112578
112283,112506
112155,112429
112199,112473
112287,112546
112325,112547
112252,112534
112126,112393
112281,112498
112344,112573
112309,112545
112307,112527
112225,112483
112352,112521
112492,112622
112440,112567
112444,112522
112376,112497
112476,112544
112598,112620
112548,112614
112540,112563
112431,112519
112543,112622
112626,112654
112617,112666
112591,112581
112526,112572
112577,112626
112664,112640
112659,112655
112591,112612
112507,112502
112612,112606
112679,112646
112581,112599
112536,112538
112385,112441
112421,112516
112348,112502
112177,112371
112013,112271
111813,112131
111773,112194
111683,112142
111574,112012
111370,111939
111221,111821
111214,111868
111194,111861
111764,112102
111707,112119
111738,112112
111489,111969
111573,112019
111609,112030
111911,112144
112007,112187
112147,112277
112079,112263
112349,112373
112260,112289
112216,112270
112279,112307
112368,112385
112324,112374
112330,112318
112230,112287
112346,112350
112431,112406
112383,112373
112371,112318
112309,112282
112436,112347
112520,112425
112443,112394
112402,112348
112374,112350
112478,112372
112512,112428
112486,112382
112428,112358
112384,112348
112501,112387
112534,112432
112488,112416
112418,112368
112409,112326
112472,112450
112509,112440
112523,112414
112425,112314
112418,112326
112518,112440
112531,112422
112522,112383
112439,112353
112448,112348
112540,112432
112572,112461
112564,112424
112420,112344
112416,112346
112543,112441
112597,112465
112510,112410
112444,112328
112473,112369
112570,112432
112610,112449
112541,112406
112488,112341
112550,112378
112615,112440
112645,112435
112631,112430
112573,112372
112549,112434
112671,112444
112715,112474
112631,112424
112562,112327
112606,112399
112679,112445
112670,112446
112595,112432
112448,112303
112513,112345
112506,112401
112409,112297
112282,112224
112033,112086
111932,112072
111910,112037
111769,111963
111587,111899
111382,111733
111364,111725
111308,111765
111249,111718
111141,111645
110983,111527
111035,111576
111066,111603
111065,111597
110989,111555
110920,111515
110991,111563
111083,111616
111063,111612
111085,111583
111002,111565
111116,111641
111158,111673
111215,111677
111210,111666
111127,111629
111232,111693
111328,111745
111365,111757
111307,111745
111224,111664
111380,111739
111465,111832
111441,111795
111403,111791
111313,111729
111435,111781
111492,111869
111469,111844
111448,111791
111403,111738
111487,111808
111588,111913
111537,111874
111509,111815
111478,111823
111587,111846
111682,111956
111713,111930
111696,111858
111694,111886
111820,111990
111918,112039
111952,112039
111917,111995
111905,111972
112044,112080
112121,112124
112084,112101
112022,112071
111947,112017
112040,112066
112073,112134
112001,112038
111867,111996
111780,111930
111844,112005
111831,112000
111774,111949
111667,111878
111640,111852
111672,111939
111736,111925
111729,111950
111606,111863
111598,111856
111727,111960
111771,111942
111744,111951
111689,111859
111704,111888
111832,111992
111897,112034
111839,112019
111803,111912
111854,111965
111969,112077
112003,112053
111988,112064
111923,112012
111957,112020
112061,112125
112167,112164
112103,112113
112021,112031
112090,112096
112148,112200
112184,112167
112187,112166
112095,112119
112135,112171
112244,112193
112272,112264
112220,112193
112181,112138
112210,112193
112344,112279
112360,112254
112376,112254
112284,112162
112362,112253
112424,112307
112472,112350
112436,112256
112407,112247
112413,112286
112538,112371
112557,112327
112515,112336
112442,112233
112492,112286
112600,112407
112584,112363
112599,112329
112460,112237
112577,112367
112618,112399
112628,112389
112613,112361
112503,112284
112551,112354
112674,112397
112628,112415
112590,112347
112526,112293
112594,112370
112622,112419
112622,112369
112568,112375
112441,112242
112515,112322
112601,112395
112581,112364
112507,112327
112420,112255
112513,112303
112595,112369
112546,112367
112509,112295
112465,112267
112541,112362
112632,112358
112581,112340
112577,112326
112463,112260
112608,112365
112628,112422
112633,112368
112553,112350
112469,112288
112606,112395
112672,112378
112662,112416
112592,112319
112553,112314
112634,112385
112724,112422
112715,112402
112639,112341
112644,112308
112689,112392
112813,112429
112746,112411
112725,112391
112678,112330
112772,112441
112817,112462
112754,112402
112671,112377
112619,112318
112684,112412
112606,112380
112493,112308
112299,112148
112092,112101
111991,112035
111944,112034
111720,111879
111501,111765
111355,111684
111306,111680
111311,111657
111168,111568
111032,111472
110938,111435
110994,111489
111000,111519
110915,111458
110819,111349
110748,111397
110807,111409
110848,111469
110784,111410
110731,111337
110710,111377
110792,111423
110843,111471
110808,111441
110775,111393
110787,111428
110936,111504
111029,111580
111005,111530
110987,111459
111028,111567
111139,111620
111228,111663
111222,111635
111141,111571
111199,111608
111281,111712
111295,111663
111299,111667
111153,111612
111190,111603
111262,111691
111276,111684
111176,111646
111114,111532
111144,111616
111209,111665
111202,111666
111216,111631
111128,111563
111235,111630
111331,111749
111407,111735
111392,111733
111334,111658
111490,111765
111564,111854
111646,111846
111635,111844
111521,111774
111643,111833
111707,111878
111696,111896
111622,111837
111506,111770
111585,111794
111608,111867
111601,111786
111509,111814
111382,111664
111445,111721
111520,111802
111440,111709
111439,111702
111291,111659
111373,111678
111389,111727
111417,111702
111310,111650
111234,111590
111291,111676
111357,111701
111333,111666
111295,111641
111216,111618
111281,111657
111403,111704
111346,111692
111298,111648
111260,111591
111395,111668
111443,111748
111457,111710
111414,111706
111395,111693
111462,111738
111600,111834
111544,111779
111549,111762
111519,111744
111622,111811
111741,111904
111715,111870
111677,111807
111669,111804
111786,111888
111865,111973
111904,111949
111830,111902
111829,111910
111904,111960
112010,112015
111954,111981
111924,111949
111908,111911
112024,112046
112030,112032
112029,112015
111987,111962
111914,111937
112031,112050
112091,112048
112044,112010
111974,111976
111991,111958
112052,112025
112106,112081
112088,112033
112009,111982
112008,111995
112100,112059
112128,112069
112065,112034
112025,111970
112018,111994
112139,112080
112195,112085
112138,112056
112077,112009
112090,112021
112189,112083
112246,112111
112168,112103
112107,112022
112132,112020
112239,112139
112212,112106
112198,112083
112121,112033
112118,112048
112272,112110
112253,112141
112212,112050
112118,112002
112175,112052
112249,112156
112190,112103
112234,112113
112128,112017
112178,112049
112298,112161
112298,112079
112289,112109
112190,112051
112272,112102
112384,112173
112412,112147
112390,112173
112315,112094
112370,112105
112496,112191
112541,112212
112478,112153
112372,112122
112426,112163
112498,112196
112567,112208
112481,112168
112387,112102
112444,112155
112425,112195
112358,112113
112231,112073
111991,111892
111911,111881
111809,111832
111627,111758
111423,111573
111159,111467
111100,111428
111026,111440
110849,111278
110767,111256
110559,111121
110573,111188
110577,111174
110478,111084
110386,111071
110292,110965
110313,111041
110358,111096
110300,111003
110203,111002
110171,110938
110255,111033
110279,111071
110275,110989
110237,110987
110160,110961
110271,111039
110341,111095
110361,111027
110302,111063
110229,110975
110319,111072
110426,111142
110364,111097
110368,111085
110280,111035
110408,111089
110481,111148
110416,111123
110374,111070
110315,111036
110396,111132
110473,111178
110399,111111
110389,111071
110309,111065
110432,111080
110477,111136
110446,111125
110361,111040
110308,111041
110406,111112
110499,111131
110477,111135
110387,111090
110397,111094
110528,111179
110624,111228
110651,111211
110602,111207
110630,111187
110811,111321
110926,111361
110886,111325
110885,111346
110876,111327
111033,111422
111097,111443
111036,111430
110996,111370
110942,111379
111055,111436
111049,111459
111035,111410
110862,111304
110878,111333
110926,111358
110968,111368
110932,111329
110779,111282
110822,111313
110882,111360
110922,111340
110910,111343
110796,111279
110814,111305
110873,111360
110894,111325
110865,111336
110739,111254
110785,111292
110889,111358
110850,111315
110847,111326
110748,111210
110800,111280
110871,111336
110938,111344
110903,111333
110819,111249
110865,111308
110974,111411
111055,111438
111000,111416
110942,111369
111029,111415
111186,111505
111191,111518
111192,111507
111154,111423
111204,111487
111365,111635
111361,111584
111393,111569
111290,111536
111379,111600
111471,111627
111488,111633
111445,111616
111374,111542
111412,111606
111535,111681
111489,111646
111513,111646
111441,111569
111522,111656
111646,111715
111612,111713
111611,111641
111516,111625
111593,111719
111662,111741
111623,111713
111597,111679
111546,111632
111607,111729
111724,111746
111705,111759
111640,111708
111579,111653
111676,111739
111715,111754
111744,111763
111658,111724
111602,111680
111723,111761
111779,111799
111734,111750
111683,111743
111617,111706
111716,111744
111749,111803
111726,111762
111630,111671
111599,111667
111677,111766
111772,111805
111690,111751
111633,111676
111601,111644
111708,111776
111766,111743
111738,111738
111676,111712
111643,111664
111791,111784
111833,111830
111804,111767
111750,111761
111729,111728
111854,111814
111920,111842
111943,111858
111853,111788
111854,111752
111986,111892
112015,111924
112035,111870
111918,111857
111930,111821
112047,111927
112127,111945
112114,111924
112031,111867
112005,111878
112115,111927
112210,111996
112145,111948
112055,111840
112085,111911
112115,111957
112167,111953
112074,111889
111923,111770
111823,111790
111751,111733
111698,111725
111476,111593
111205,111416
111096,111348
111008,111330
110907,111292
110719,111168
110530,111031
110490,111049
110469,111058
110427,111016
110272,110967
110122,110803
110124,110856
110162,110896
110129,110883
110021,110797
109919,110739
109893,110793
110027,110816
109992,110812
109958,110812
109879,110703
109872,110755
109974,110785
110011,110819
109948,110763
109845,110748
109936,110757
109979,110834
110018,110806
110033,110822
109938,110745
110006,110808
110081,110872
110077,110843
110085,110841
109964,110770
110051,110824
110114,110889
110104,110854
110128,110870
109968,110745
110062,110826
110086,110878
110102,110842
110069,110841
109934,110710
110018,110834
110052,110845
110042,110817
110035,110808
109927,110712
109975,110804
110087,110865
110047,110827
110047,110816
109984,110752
110090,110862
110167,110911
110217,110911
110154,110894
110165,110863
110280,110970
110319,111026
110359,110981
110364,110999
110286,110937
110404,111037
110467,111065
110470,111041
110465,111031
110361,110966
110464,111072
110508,111114
110469,111055
110444,110994
110341,110974
110442,111030
110456,111098
110425,111044
110352,110979
110303,110944
110421,111031
110439,111010
110386,111035
110348,110957
110285,110921
110407,111002
110474,111069
110394,111019
110333,110964
110319,110979
110413,111040
110497,111099
110447,111027
110433,110980
110394,111027
110526,111081
110617,111136
110561,111117
110521,111037
110546,111101
110676,111161
110709,111194
110716,111173
110661,111121
110694,111133
110788,111198
110856,111266
110828,111230
110776,111151
110774,111199
110840,111269
110937,111268
110878,111253
110827,111206
110832,111256
110931,111295
111019,111365
110966,111291
110899,111250
110938,111283
111068,111368
111111,111367
111090,111370
110973,111298
111049,111361
111166,111426
111191,111410
111124,111423
111057,111319
111141,111395
111211,111463
111223,111441
111210,111428
111155,111361
111172,111402
111317,111484
111314,111502
111312,111455
111218,111380
111301,111481
111378,111507
111418,111570
111395,111482
111299,111431
111376,111479
111463,111560
111445,111543
111462,111523
111349,111479
111426,111508
111463,111546
111523,111561
111470,111533
111395,111452
111429,111522
111537,111555
111532,111584
111497,111521
111484,111507
111508,111572
111603,111628
111599,111595
111567,111604
111506,111492
111617,111618
111667,111652
111624,111613
111594,111577
111576,111563
111634,111604
111754,111657
111748,111671
111716,111604
111693,111590
111791,111674
111901,111730
111883,111698
111844,111673
111834,111657
111907,111727
112044,111794
112027,111771
112005,111745
111920,111730
112034,111777
112120,111864
112081,111839
112050,111765
112034,111763
112110,111840
112177,111893
112174,111841
112128,111825
112106,111750
112209,111895
112260,111896
112244,111882
112218,111830
112178,111807
112269,111863
112344,111946
112320,111895
112217,111845
112137,111792
112151,111842
112154,111820
111984,111738
111685,111580
111462,111463
111363,111429
111219,111338
110974,111225
110733,111041
110564,110964
110519,110976
110511,110963
110382,110904
110223,110801
110155,110750
110149,110789
110177,110808
110086,110767
109966,110665
109963,110668
109990,110742
110034,110761
109994,110714
109878,110648
109856,110697
109946,110728
110044,110747
109927,110740
109852,110646
109916,110692
110024,110768
110019,110794
110013,110747
109928,110668
109941,110700
110095,110792
110077,110815
110068,110740
109976,110711
110040,110741
110099,110780
110176,110846
110074,110768
110006,110695
110057,110740
110096,110833
110120,110812
110031,110755
109952,110668
109981,110756
110034,110772
110072,110795
109988,110757
109873,110648
109964,110715
110060,110802
110029,110768
110032,110764
109934,110717
110025,110767
110142,110816
110207,110857
110173,110820
110146,110776
110251,110896
110362,110943
110397,110945
110399,110954
110379,110914
110457,110997
110520,111033
110510,111038
110504,110964
110350,110915
110442,110963
110476,111018
110383,110952
110365,110928
110244,110834
110264,110904
110311,110899
110285,110888
110196,110799
110138,110783
110190,110862
110216,110890
110211,110842
110139,110828
110088,110761
110163,110837
110250,110911
110201,110871
110198,110858
110112,110817
110260,110898
110319,110924
110343,110944
110278,110879
110283,110853
110341,110945
110426,111016
110430,110946
110389,110940
110379,110902
110467,110986
110559,111063
110502,110967
110469,110972
110459,110977
110548,111053
110636,111076
110649,111080
110613,111031
110581,111018
110709,111124
110764,111130
110759,111152
110715,111093
110738,111071
110805,111192
110904,111236
110918,111235
110841,111144
110859,111172
110947,111243
111003,111286
110998,111237
110937,111232
110898,111209
111010,111278
111072,111341
111058,111283
110989,111212
111009,111273
111072,111283
111158,111354
111146,111303
111064,111283
111059,111275
111270,111410
111248,111399
111256,111364
111177,111330
111247,111363
111366,111425
111439,111443
111372,111394
111343,111403
111375,111425
111500,111482
111493,111510
111511,111478
111364,111423
111415,111445
111509,111517
111523,111519
111473,111478
111400,111389
111435,111461
111479,111488
111563,111541
111537,111490
111414,111451
111457,111464
111603,111534
111607,111574
111570,111536
111541,111451
111562,111541
111668,111566
111708,111582
111647,111564
111559,111501
111667,111558
111745,111606
111700,111585
111703,111615
111589,111527
111679,111549
111805,111690
111775,111632
111747,111631
111657,111527
111761,111618
111820,111657
111899,111694
111872,111675
111748,111616
111889,111646
111956,111733
112014,111720
112018,111730
111902,111667
112005,111712
112062,111818
112112,111783
112053,111736
111980,111712
112108,111770
112166,111825
112166,111816
112118,111773
112030,111739
112093,111810
112171,111809
112071,111781
111927,111642
111773,111579
111739,111578
111643,111560
111450,111418
111258,111283
110975,111166
110935,111134
110803,111063
110668,111002
110530,110911
110382,110831
110363,110879
110347,110861
110236,110777
110202,110732
110037,110668
110118,110733
110105,110796
110061,110696
109989,110690
109929,110637
110031,110687
110078,110750
110055,110688
110009,110674
109979,110657
110085,110724
110203,110796
110151,110782
110100,110696
110094,110724
110252,110797
110311,110818
110344,110845
110228,110801
110266,110805
110386,110907
110467,110933
110421,110894
110367,110832
110324,110843
110423,110936
110479,110898
110450,110930
110334,110803
110355,110844
110404,110910
110436,110890
110424,110883
110290,110796
110328,110829
110424,110900
110414,110891
110422,110853
110326,110825
110355,110870
110464,110945
110482,110943
110479,110903
110388,110905
110460,110925
110597,111002
110614,111014
110624,111029
110525,110929
110549,110976
110673,111044
110736,111058
110712,111045
110581,110937
110667,111015
110721,111080
110764,111072
110703,111043
110611,110955
110677,111035
110713,111106
110733,111043
110681,111042
110555,110942
110597,110980
110680,111036
110637,111021
110620,110963
110485,110908
110526,110942
110648,111034
110605,110996
110559,110971
110490,110928
110540,110971
110680,111044
110633,111002
110677,111035
110550,110948
110699,111028
110826,111113
110816,111098
110832,111109
110808,111065
110916,111170
111027,111211
111033,111196
111057,111206
111027,111192
111121,111279
111264,111315
111265,111326
111249,111307
111190,111273
111354,111358
111410,111439
111411,111394
111403,111405
111337,111390
111471,111440
111567,111478
111517,111449
111529,111426
111488,111428
111605,111516
111691,111529
111698,111534
111717,111503
111619,111485
111783,111561
111857,111644
111868,111626
111799,111593
111783,111572
111868,111655
111934,111666
111928,111644
111899,111627
111843,111565
111923,111666
111939,111688
111954,111675
111853,111586
111844,111614
111902,111659
111996,111685
111941,111686
111839,111584
111806,111601
111898,111654
111923,111689
111871,111622
111838,111594
111726,111559
111824,111652
111855,111630
111790,111612
111718,111508
111636,111543
111733,111557
111755,111590
111709,111541
111659,111497
111685,111526
111711,111597
111794,111592
111741,111554
111698,111528
111714,111538
111803,111611
111814,111589
111803,111588
111705,111514
111784,111566
111863,111612
111863,111608
111864,111597
111770,111569
111819,111562
111856,111628
111904,111644
111872,111605
111806,111588
111835,111571
111947,111638
111973,111672
111911,111624
111835,111533
111853,111615
111963,111671
111998,111686
111962,111656
111845,111567
111906,111628
112006,111697
111993,111675
111997,111680
111893,111616
111981,111639
112091,111746
112078,111679
112108,111713
112012,111651
112071,111682
112218,111779
112220,111789
112244,111764
112107,111733
112248,111775
112280,111830
112331,111846
112260,111803
112200,111717
112265,111821
112384,111875
112313,111828
112326,111799
112162,111755
112222,111813
112281,111862
112268,111808
112165,111749
112049,111667
112024,111666
112018,111688
111870,111552
111664,111455
111392,111305
111296,111272
111193,111240
111004,111091
110823,111015
110602,110895
110593,110886
110584,110916
110457,110823
110351,110766
110189,110676
110210,110704
110240,110737
110158,110704
110084,110637
109983,110578
110053,110650
110072,110662
110049,110632
110017,110579
109885,110575
110014,110645
110052,110666
110031,110656
109965,110567
109965,110569
110024,110637
110124,110709
110075,110679
110007,110586
109972,110607
110054,110645
110142,110729
110079,110649
110047,110633
109981,110628
110095,110691
110142,110697
110091,110689
110018,110606
109979,110632
110055,110677
110139,110708
110040,110675
110010,110591
109970,110595
110063,110647
110096,110684
110031,110664
109941,110545
109977,110577
110033,110643
110081,110671
110013,110626
109937,110536
109962,110613
110068,110664
110102,110676
110072,110661
109997,110575
109984,110644
110118,110704
110164,110710
110101,110689
110054,110626
110130,110697
110227,110725
110237,110765
110192,110719
110129,110648
110181,110720
110279,110774
110272,110762
110231,110738
110161,110645
110218,110734
110314,110758
110324,110774
110328,110767
110195,110696
110239,110688
110319,110800
110350,110792
110295,110779
110189,110668
110266,110737
110313,110793
110304,110773
110278,110731
110172,110673
110215,110765
110301,110805
110354,110775
110296,110748
110222,110692
110302,110755
110409,110811
110378,110855
110364,110762
110300,110749
110412,110807
110525,110873
110470,110889
110513,110868
110428,110841
110552,110861
110636,110968
110686,110965
110659,110908
110623,110891
110728,111022
110831,111041
110825,111060
110858,111038
110779,110989
110882,111072
110964,111127
110991,111133
110974,111087
110891,111051
110986,111129
111077,111188
111033,111131
110987,111128
110945,111079
111050,111148
111172,111245
111117,111196
111142,111155
111091,111167
111230,111209
111328,111280
111347,111316
111385,111270
111386,111280
111501,111340
111614,111436
111651,111398
111643,111403
111642,111420
111747,111471
111839,111542
111841,111487
111767,111486
111760,111451
111885,111544
111947,111596
111877,111520
111856,111497
111841,111518
111964,111600
111994,111634
111932,111567
111947,111562
111885,111545
111998,111600
112020,111621
112055,111611
111937,111577
111948,111556
112075,111603
112113,111678
112052,111656
111983,111571
111980,111565
112085,111661
112119,111669
112125,111659
112067,111605
112078,111619
112139,111649
112238,111718
112182,111698
112137,111651
112112,111661
112224,111726
112284,111741
112310,111748
112221,111666
112235,111725
112358,111754
112369,111796
112311,111747
112263,111673
112281,111722
112402,111803
112396,111784
112347,111787
112266,111689
112355,111767
112465,111820
112435,111842
112422,111781
112334,111742
112404,111814
112475,111811
112510,111836
112477,111851
112416,111767
112456,111791
112569,111872
112579,111919
112532,111866
112434,111801
112478,111824
112606,111909
112593,111887
112623,111876
112474,111813
112542,111846
112660,111922
112644,111871
112616,111891
112525,111819
112645,111895
112708,111957
112710,111903
112653,111910
112589,111851
112644,111923
112717,111948
112701,111949
112687,111919
112580,111846
112696,111908
112733,111982
112737,111949
112708,111909
112571,111872
112655,111872
112682,111953
112580,111868
112460,111778
112247,111684
112196,111672
112027,111598
111811,111473
111540,111362
111282,111206
111217,111156
111134,111134
110950,111028
110805,110928
110606,110869
110629,110838
110608,110887
110490,110789
110422,110771
110254,110676
110343,110743
110359,110761
110326,110725
110263,110679
110160,110661
110245,110679
110321,110769
110287,110715
110238,110677
110226,110650
110272,110756
110373,110779
110358,110756
110294,110693
110269,110705
110419,110802
110455,110836
110411,110813
110337,110752
110336,110734
110424,110805
110502,110857
110418,110792
110412,110772
110343,110738
110483,110820
110503,110840
110420,110789
110385,110731
110314,110735
110439,110777
110437,110768
110413,110776
110330,110715
110239,110705
110383,110757
110385,110801
110343,110736
110277,110676
110270,110704
110333,110730
110411,110817
110357,110766
110271,110666
110360,110751
110459,110812
110500,110859
110508,110835
110386,110760
110423,110779
110536,110869
110565,110866
110516,110829
110415,110774
110405,110785
110511,110838
110496,110820
110456,110796
110319,110708
110397,110767
110423,110825
110386,110834
110365,110774
110277,110661
110305,110723
110385,110824
110405,110766
110358,110750
110256,110702
110337,110738
110396,110770
110436,110794
110389,110773
110294,110657
110375,110727
110479,110827
110431,110787
110462,110763
110337,110737
110421,110771
110540,110840
110533,110856
110504,110799
110462,110786
110523,110824
110634,110897
110690,110904
110633,110921
110583,110818
110708,110923
110803,110981
110826,110986
110825,110974
110752,110912
110851,111012
110931,111023
110937,111055
110870,110993
110827,110999
110894,111048
111008,111106
110971,111070
110934,111015
110888,110994
110960,111061
111044,111097
111035,111078
110980,111081
110897,111016
111045,111109
111130,111166
111076,111117
111070,111089
111003,111090
111128,111137
111197,111176
111162,111174
111137,111116
111044,111101
111189,111192
111226,111226
111198,111178
111153,111117
111111,111127
111169,111189
111258,111230
111213,111208
111140,111148
111111,111116
111223,111190
111231,111239
111207,111174
111114,111127
111051,111138
111154,111157
111190,111195
111128,111195
111026,111088
110985,111075
111114,111148
111187,111220
111092,111162
111046,111108
111049,111096
111151,111142
111250,111222
111186,111209
111169,111105
111188,111155
111287,111230
111378,111255
111385,111238
111337,111217
111331,111234
111478,111300
111515,111357
111476,111306
111448,111263
111445,111312
111516,111348
111614,111363
111543,111350
111452,111282
111502,111286
111566,111353
111619,111387
111536,111358
111458,111285
111464,111304
111607,111370
111610,111343
111626,111352
111472,111322
111555,111317
111665,111404
111656,111420
111649,111422
111590,111302
111649,111425
111735,111429
111774,111448
111784,111432
111758,111368
111809,111475
111902,111533
111958,111496
111964,111513
111845,111443
111927,111527
112072,111564
112037,111584
112004,111534
111949,111520
112015,111535
112067,111618
112011,111563
111898,111521
111734,111378
111662,111366
111592,111332
111400,111234
111183,111096
110927,110967
110845,110934
110806,110915
110678,110848
110559,110773
110380,110670
110377,110653
110386,110712
110317,110643
110251,110582
110080,110502
110090,110567
110178,110599
110130,110556
110068,110527
109952,110474
110050,110518
110083,110566
110085,110534
110053,110521
109990,110477
110072,110558
110181,110575
110129,110596
110079,110553
110084,110504
110205,110604
110254,110650
110294,110640
110268,110636
110160,110609
110280,110634
110350,110732
110332,110669
110279,110645
110239,110607
110322,110678
110417,110691
110381,110686
110331,110630
110243,110605
110378,110700
110420,110728
110399,110679
110308,110665
110282,110620
110396,110692
110474,110754
110438,110713
110461,110715
110408,110692
110553,110802
110642,110819
110613,110837
110567,110765
110602,110801
110735,110861
110800,110940
110766,110859
110728,110845
110676,110844
110772,110917
110823,110942
110775,110868
110693,110836
110663,110799
110733,110882
110778,110885
110685,110797
110564,110732
110579,110799
110659,110826
110638,110835
110597,110783
110480,110677
110467,110745
110553,110787
110567,110764
110500,110781
110375,110627
110416,110698
110483,110757
110536,110789
110492,110727
110408,110682
110423,110725
110512,110769
110568,110747
110523,110777
110415,110683
110470,110751
110587,110797
110571,110826
110564,110770
110493,110727
110526,110773
110609,110833
110671,110842
110599,110787
110540,110733
110593,110815
110684,110883
110725,110851
110718,110854
110614,110792
110743,110867
110818,110945
110829,110940
110847,110912
110771,110872
110839,110928
110937,110997
111010,111016
111000,110987
110876,110936
110979,111024
111105,111074
111069,111066
111064,111025
110980,110997
111099,111038
111188,111109
111224,111104
111151,111081
111047,110992
111205,111116
111259,111176
111229,111134
111194,111109
111089,111028
111223,111136
111299,111171
111215,111164
111196,111082
111116,111073
111244,111123
111294,111191
111236,111134
111209,111097
111093,111045
111149,111110
111237,111141
111231,111116
111130,111071
111093,111007
111198,111114
111234,111143
111192,111096
111169,111088
111072,111044
111210,111095
111296,111172
111240,111145
111186,111056
111207,111065
111265,111180
111332,111188
111355,111169
111309,111136
111265,111153
111383,111178
111439,111230
111412,111213
111339,111130
111337,111159
111429,111192
111501,111238
111464,111240
111368,111209
111367,111187
111485,111250
111553,111287
111501,111246
111466,111187
111493,111237
111574,111277
111701,111318
111661,111311
111625,111252
111672,111298
111780,111361
111891,111413
111876,111406
111830,111356
111883,111383
112000,111494
112081,111503
112089,111482
111992,111426
112053,111462
112175,111586
112227,111578
112226,111560
112139,111521
112176,111570
112325,111611
112316,111634
112305,111622
112201,111523
112309,111590
112361,111655
112395,111661
112390,111642
112271,111601
112315,111585
112447,111691
112379,111655
112331,111642
112245,111544
112275,111606
112282,111601
112159,111517
111981,111447
111704,111276
111550,111221
111502,111183
111257,111056
111043,110957
110781,110792
110746,110736
110737,110774
110601,110734
110468,110618
110352,110553
110300,110558
110326,110576
110327,110536
110236,110539
110102,110406
110145,110507
110235,110513
110196,110530
110160,110472
110068,110394
110168,110524
110218,110516
110265,110546
110187,110521
110097,110445
110216,110518
110245,110547
110285,110573
110256,110534
110160,110465
110279,110567
110351,110587
110331,110605
110302,110556
110213,110520
110276,110598
110368,110602
110365,110597
110275,110573
110200,110515
110331,110606
110394,110618
110310,110620
110275,110530
110208,110526
110263,110549
110313,110604
110298,110562
110216,110519
110153,110508
110203,110520
110294,110593
110234,110543
110182,110502
110114,110461
110246,110570
110282,110589
110278,110589
110201,110520
110202,110525
110289,110593
110414,110642
110381,110646
110293,110586
110280,110559
110438,110628
110444,110659
110437,110638
110331,110622
110315,110562
110394,110625
110443,110683
110354,110602
110334,110587
110245,110545
110336,110626
110380,110626
110318,110582
110265,110486
110182,110558
110284,110574
110340,110580
110276,110551
110186,110472
110217,110510
110267,110601
110318,110574
110271,110567
110171,110512
110185,110503
110302,110602
110310,110571
110273,110564
110183,110540
110213,110545
110325,110578
110403,110612
110326,110625
110262,110527
110287,110555
110431,110663
110463,110663
110379,110623
110333,110569
110372,110646
110456,110697
110495,110710
110441,110664
110375,110605
110416,110653
110494,110680
110512,110732
110493,110668
110381,110578
110486,110659
110534,110748
110577,110703
110497,110715
110424,110625
110514,110681
110591,110783
110601,110720
110617,110749
110499,110634
110590,110724
110708,110810
110666,110778
110670,110770
110600,110700
110674,110777
110785,110850
110781,110801
110763,110809
110652,110734
110798,110821
110873,110893
110879,110880
110852,110851
110781,110790
110899,110908
110969,110927
110961,110921
110972,110866
110871,110871
110946,110918
111052,110969
111007,110948
111012,110925
110875,110878
111024,110979
111091,110965
111078,110968
111032,110952
110959,110922
111032,110959
111153,111031
111108,110999
111071,110939
111010,110928
111152,111003
111206,111036
111170,111008
111186,110982
111097,111003
111208,111012
111282,111108
111274,111066
111239,111045
111174,110961
111327,111076
111356,111150
111353,111104
111292,111041
111270,111017
111324,111146
111411,111153
111375,111121
111326,111056
111309,111074
111381,111132
111483,111199
111454,111131
111434,111116
111392,111126
111519,111201
111592,111232
111609,111205
111523,111184
111506,111160
111635,111235
111714,111303
111648,111253
111622,111209
111593,111232
111726,111277
111751,111328
111722,111300
111623,111233
111664,111252
111775,111351
111799,111315
111762,111301
111722,111282
111741,111292
111850,111377
111939,111379
111905,111395
111847,111312
111925,111386
112030,111430
112063,111446
112065,111452
111997,111365
112038,111422
112127,111490
112178,111518
112141,111470
112040,111430
112055,111430
112079,111462
112071,111457
111928,111362
111678,111199
111579,111187
111518,111154
111324,111073
111122,110935
110816,110742
110767,110759
110768,110749
110630,110692
110528,110615
110356,110491
110320,110522
110324,110538
110264,110516
110173,110434
110083,110379
110112,110383
110165,110464
110126,110392
110099,110390
109969,110331
110084,110422
110161,110434
110146,110414
110147,110437
110017,110355
110128,110448
110212,110489
110204,110496
110203,110478
110138,110423
110266,110477
110332,110551
110312,110510
110321,110515
110197,110460
110346,110515
110411,110614
110359,110540
110324,110539
110210,110482
110285,110500
110419,110587
110333,110563
110288,110512
110179,110450
110284,110498
110374,110556
110279,110495
110259,110492
110193,110455
110263,110475
110341,110560
110276,110492
110256,110480
110166,110460
110260,110522
110354,110525
110315,110525
110232,110506
110226,110452
110322,110518
110440,110612
110388,110579
110334,110506
110348,110535
110435,110586
110481,110629
110440,110589
110416,110569
110338,110519
110419,110603
110521,110639
110428,110576
110382,110528
110345,110551
110446,110582
110484,110639
110438,110556
110365,110538
110385,110517
110431,110576
110501,110610
110456,110578
110411,110554
110337,110544
110467,110600
110501,110637
110451,110578
110406,110512
110415,110570
110489,110607
110533,110629
110507,110629
110404,110547
110459,110571
110553,110644
110578,110668
110561,110617
110508,110587
110502,110649
110602,110668
110700,110690
110616,110704
110562,110605
110634,110658
110696,110742
110760,110723
110723,110745
110650,110671
110695,110746
110788,110800
110866,110801
110840,110805
110749,110725
110848,110787
110955,110856
110981,110893
110963,110864
110917,110785
110983,110867
111075,110891
111108,110939
111097,110904
111002,110841
111054,110884
111147,110974
111129,110940
111117,110940
111018,110835
111156,110919
111188,110996
111243,110982
111167,110933
111086,110873
111166,110964
111261,111026
111296,110988
111319,111000
111207,110967
111286,111010
111391,111113
111409,111049
111413,111053
111278,110988
111413,111045
111494,111141
111491,111095
111446,111068
111323,111027
111438,111070
111496,111155
111484,111082
111446,111039
111373,111040
111435,111079
111559,111127
111510,111143
111496,111116
111420,111029
111531,111152
111600,111159
111613,111124
111555,111132
111530,111079
111626,111187
111700,111220
111672,111150
111639,111179
111566,111107
111684,111194
111727,111258
111710,111249
111680,111146
111587,111168
111673,111191
111780,111237
111731,111220
111658,111154
111640,111169
111759,111251
111805,111278
111818,111271
111759,111236
111715,111216
111867,111310
111952,111329
111979,111307
111886,111267
111911,111293
112032,111332
112142,111402
112057,111375
112051,111344
111992,111340
112127,111414
112146,111436
112172,111415
112102,111368
112094,111339
112202,111486
112231,111483
112215,111469
112130,111371
112138,111419
112288,111498
112325,111490
112268,111463
112242,111405
112210,111455
112310,111473
112372,111508
112267,111499
112178,111420
112154,111380
112236,111459
112195,111454
112028,111322
111814,111208
111649,111144
111581,111135
111433,111034
111229,110894
110942,110763
110833,110717
110774,110686
110756,110689
110580,110563
110414,110485
110353,110448
110394,110481
110367,110472
110258,110441
110143,110313
110167,110371
110201,110387
110183,110379
110149,110388
110029,110281
110051,110336
110156,110447
110134,110357
110165,110378
110039,110292
110094,110353
110236,110423
110214,110425
110197,110374
110134,110358
110175,110401
110317,110459
110307,110445
110263,110394
110199,110390
110287,110450
110366,110503
110345,110465
110353,110487
110226,110399
110331,110444
110394,110507
110405,110519
110369,110493
110240,110435
110343,110441
110413,110549
110379,110489
110290,110466
110219,110365
110335,110497
110378,110489
110362,110484
110278,110469
110213,110399
110338,110467
110410,110530
110366,110501
110379,110481
110272,110459
110428,110516
110475,110582
110440,110532
110445,110534
110322,110451
110453,110584
110557,110592
110473,110558
110408,110520
110341,110439
110427,110529
110467,110580
110434,110530
110369,110520
110280,110432
110422,110497
110428,110539
110431,110538
110336,110474
110306,110412
110385,110495
110434,110502
110434,110518
110323,110437
110314,110433
110390,110504
110470,110576
110424,110522
110362,110456
110368,110490
110460,110518
110574,110588
110513,110572
110460,110494
110461,110539
110578,110583
110627,110650
110586,110588
110580,110593
110561,110608
110670,110655
110730,110692
110717,110677
110661,110602
110684,110673
110794,110691
110828,110773
110822,110736
110740,110702
110774,110685
110898,110799
110922,110777
110906,110802
110855,110738
110881,110739
110997,110843
111054,110801
111017,110843
110937,110759
110980,110805
111066,110895
111104,110880
111114,110870
111009,110834
111061,110852
111177,110929
111170,110914
111193,110924
111061,110815
111125,110895
111178,110968
111179,110933
111128,110914
111019,110796
111116,110879
111140,110916
111112,110909
111060,110875
110974,110796
111006,110854
111112,110897
111092,110900
111065,110852
110942,110801
111030,110864
111145,110891
111134,110891
111108,110896
111036,110815
111101,110899
111183,110950
111186,110904
111178,110902
111055,110823
111171,110920
111233,110976
111193,110937
111202,110877
111058,110861
111157,110887
111251,110977
111207,110969
111218,110920
111117,110865
111171,110920
111307,110995
111256,110956
111211,110919
111166,110910
111259,110960
111341,110968
111317,110987
111244,110969
111196,110882
111305,111002
111355,111012
111278,110983
111283,110932
111179,110912
111292,110991
111384,111015
111309,110996
111262,110949
111259,110965
111349,111003
111419,111079
111375,111021
111334,110975
111268,110958
111424,111016
111499,111123
111490,111078
111477,111030
111403,111026
111536,111073
111613,111157
111601,111107
111549,111076
111531,111111
111634,111173
111738,111200
111698,111188
111651,111149
111655,111125
111753,111194
111791,111239
111805,111193
111756,111203
111725,111170
111869,111259
111920,111311
111922,111259
111832,111214
111854,111249
111987,111319
112033,111347
111994,111300
111975,111270
111979,111285
112054,111370
112143,111377
112116,111356
112073,111297
112029,111291
112135,111365
112115,111353
111996,111295
111780,111145
111657,111098
111590,111080
111463,111017
111214,110862
110968,110729
110805,110663
110818,110663
110708,110614
110591,110509
110397,110403
110371,110391
110394,110460
110335,110367
110268,110352
110088,110263
110153,110280
110183,110369
110182,110293
110131,110270
110000,110224
110078,110300
110123,110334
110143,110284
110136,110277
110062,110197
110128,110320
110193,110370
110228,110357
110182,110340
110098,110305
110195,110319
110326,110415
110281,110360
110287,110395
110197,110349
110325,110402
110407,110497
110407,110443
110401,110451
110326,110395
110386,110437
110511,110496
110449,110502
110435,110481
110370,110374
110447,110485
110489,110507
110465,110512
110423,110444
110334,110381
110405,110420
110509,110528
110460,110463
110413,110447
110312,110415
110399,110454
110542,110523
110477,110492
110442,110481
110390,110429
110513,110530
110592,110589
110595,110541
110579,110531
110509,110513
110626,110566
110731,110617
110629,110565
110623,110544
110538,110492
110620,110570
110617,110584
110617,110571
110545,110514
110442,110466
110566,110509
110606,110571
110539,110484
110492,110484
110403,110419
110524,110487
110510,110531
110486,110467
110396,110433
110327,110418
110460,110483
110482,110480
110440,110489
110401,110382
110363,110416
110488,110492
110503,110535
110502,110462
110469,110483
110458,110469
110568,110537
110624,110556
110623,110556
110548,110543
110567,110504
110693,110612
110759,110635
110715,110673
110648,110558
110720,110615
110799,110707
110882,110688
110840,110676
110790,110630
110829,110682
110907,110738
110955,110727
110947,110720
110879,110655
110901,110705
111035,110824
111030,110790
111038,110793
110962,110717
110980,110782
111094,110805
111189,110847
111094,110828
111045,110755
111102,110815
111199,110897
111272,110889
111207,110878
111165,110802
111223,110897
111326,110933
111334,110928
111338,110915
111242,110861
111314,110888
111433,111026
111405,110947
111384,110927
111323,110921
111338,110902
111472,111014
111395,110990
111390,110946
111244,110875
111345,110933
111430,110982
111383,110998
111395,110915
111297,110884
111368,110969
111417,110964
111406,110947
111389,110962
111290,110870
111370,110982
111426,111002
111461,110982
111422,110958
111345,110920
111458,110977
111520,111006
111499,111009
111478,110992
111372,110909
111490,111018
111553,111034
111537,111030
111487,111021
111400,110914
111524,111029
111587,111068
111589,111024
111542,111031
111485,110977
111596,111041
111688,111114
111650,111050
111631,111057
111557,110998
111696,111099
111802,111142
111730,111140
111712,111105
111658,111071
111801,111166
111863,111150
111893,111194
111814,111132
111809,111117
111920,111223
112004,111247
112007,111213
111985,111235
111933,111201
112113,111261
112148,111342
112135,111296
112153,111257
112099,111284
112251,111309
112330,111425
112290,111356
112277,111357
112269,111331
112335,111390
112430,111418
112385,111448
112332,111367
112355,111371
112449,111443
112528,111465
112478,111466
112399,111408
112386,111359
112477,111489
112504,111492
112488,111445
112407,111407
112372,111405
112426,111407
112346,111394
112168,111317
111990,111138
111787,111092
111681,111059
111556,110988
111312,110845
111074,110710
110962,110641
110888,110671
110810,110576
110704,110553
110520,110433
110520,110435
110566,110485
110538,110429
110450,110444
110325,110345
110304,110338
110430,110427
110400,110381
110380,110362
110295,110313
110314,110354
110408,110441
110419,110401
110382,110383
110330,110330
110412,110398
110535,110483
110496,110476
110490,110452
110444,110396
110524,110496
110630,110513
110642,110541
110625,110511
110587,110482
110678,110532
110770,110607
110764,110624
110756,110568
110669,110518
110784,110610
110824,110680
110827,110646
110856,110634
110708,110573
110810,110601
110860,110647
110865,110663
110828,110582
110723,110548
110801,110621
110888,110662
110840,110671
110840,110674
110756,110562
110890,110682
110968,110729
110958,110693
110915,110685
110858,110626
110957,110722
111080,110771
111039,110734
111007,110712
110894,110616
110957,110690
111026,110746
110976,110693
110903,110672
110826,110593
110909,110654
110938,110675
110897,110623
110799,110624
110694,110562
110775,110583
110854,110652
110747,110602
110731,110552
110628,110506
110700,110597
110778,110626
110707,110561
110670,110539
110568,110502
110720,110577
110786,110620
110726,110561
110676,110539
110623,110519
110727,110567
110794,110630
110787,110604
110734,110585
110740,110556
110800,110633
110886,110669
110865,110659
110830,110589
110809,110609
110939,110717
110968,110720
110945,110670
110903,110679
110871,110661
111000,110739
111058,110740
111058,110780
110975,110675
110986,110700
111077,110763
111116,110787
111109,110801
111034,110755
111048,110712
111187,110857
111220,110873
111214,110816
111156,110792
111185,110826
111331,110866
111404,110938
111343,110880
111279,110864
111316,110871
111405,110919
111472,110973
111415,110964
111330,110877
111345,110914
111441,110959
111453,111007
111361,110914
111304,110888
111314,110875
111369,110919
111371,110950
111367,110935
111255,110869
111251,110869
111386,110921
111396,110955
111380,110942
111285,110830
111327,110908
111402,110967
111435,110963
111402,110930
111360,110887
111402,110953
111484,110979
111484,110980
111452,111004
111364,110886
111429,110982
111548,110987
111518,111024
111495,110956
111407,110893
111501,110990
111573,111066
111610,111055
111544,111040
111512,110946
111568,111059
111638,111065
111677,111072
111624,111050
111501,110992
111587,111032
111680,111113
111648,111095
111610,111026
111508,111004
111566,111040
111671,111104
111625,111045
111568,111054
111491,110945
111632,111049
111675,111131
111654,111062
111609,111040
111583,110999
111683,111081
111766,111146
111773,111133
111712,111084
111664,111068
111780,111120
111883,111168
111889,111165
111819,111143
111771,111102
111896,111159
111997,111239
111913,111211
111911,111141
111852,111177
111949,111196
112049,111274
112021,111247
111970,111202
111887,111170
112004,111241
112057,111301
112032,111228
111964,111215
111948,111198
112055,111248
112135,111328
112085,111262
112040,111235
112006,111221
112109,111278
112192,111314
112168,111292
112104,111243
112079,111244
112155,111311
112212,111347
112106,111268
111997,111186
111893,111130
111837,111138
111782,111100
111553,110960
111294,110816
111108,110750
111028,110682
110950,110672
110768,110534
110626,110429
110452,110406
110491,110441
110486,110413
110328,110332
110233,110266
110125,110258
110181,110250
110230,110294
110102,110222
109975,110175
109989,110156
110085,110214
110091,110254
110004,110207
109949,110140
109972,110165
110049,110260
110065,110203
110036,110210
109935,110183
109989,110196
110100,110261
110111,110283
110067,110251
110029,110169
110052,110259
110140,110297
110178,110283
110149,110282
110049,110199
110154,110267
110197,110346
110208,110291
110195,110303
110080,110242
110113,110276
110191,110299
110163,110320
110127,110254
110004,110173
110098,110236
110161,110311
110084,110231
110094,110218
109967,110160
110045,110258
110098,110262
110103,110277
110035,110222
109939,110166
110066,110233
110136,110306
110124,110298
110143,110251
110052,110188
110155,110297
110239,110349
110247,110331
110244,110310
110165,110271
110212,110319
110324,110362
110313,110355
110252,110301
110180,110273
110250,110346
110291,110373
110325,110338
110214,110286
110086,110240
110164,110299
110266,110335
110207,110287
110151,110281
110031,110233
110136,110258
110183,110318
110154,110306
110095,110238
110013,110183
110136,110299
110149,110298
110149,110305
110090,110238
110053,110217
110155,110297
110202,110359
110191,110327
110130,110290
110115,110276
110224,110303
110300,110398
110285,110348
110214,110306
110196,110298
110331,110366
110417,110461
110421,110393
110359,110382
110306,110366
110433,110472
110508,110458
110511,110487
110463,110405
110435,110447
110539,110493
110627,110527
110592,110500
110561,110501
110545,110452
110654,110567
110761,110606
110694,110570
110689,110530
110642,110529
110806,110620
110889,110653
110851,110615
110791,110577
110842,110634
110922,110698
110986,110713
110973,110683
110846,110639
110888,110680
110958,110696
111069,110756
110991,110700
110895,110641
110903,110679
111010,110738
111039,110740
110970,110728
110893,110611
110923,110676
111027,110749
111059,110749
110985,110705
110929,110643
110939,110691
111081,110737
111079,110756
111020,110717
110971,110632
110999,110749
111100,110755
111143,110765
111094,110751
111044,110687
111052,110736
111152,110790
111153,110808
111112,110779
111023,110689
111088,110752
111158,110811
111138,110790
111123,110750
111019,110693
111071,110729
111180,110822
111156,110789
111154,110749
111030,110724
111128,110743
111205,110818
111204,110835
111146,110781
111073,110689
111161,110817
111236,110839
111244,110825
111177,110767
111119,110729
111146,110777
111273,110860
111217,110834
111195,110835
111099,110710
111194,110819
111300,110889
111292,110839
111223,110811
111137,110777
111271,110830
111366,110892
111297,110863
111277,110814
111194,110770
111340,110887
111381,110875
111338,110892
111277,110837
111260,110781
111355,110892
111398,110921
111381,110893
111334,110864
111270,110794
111384,110900
111485,110926
111488,110952
111420,110880
111412,110906
111548,110947
111666,111059
111644,111008
111614,110944
111562,110963
111724,111032
111802,111094
111754,111042
111710,111041
111703,111005
111827,111120
111878,111124
111915,111125
111820,111063
111802,111064
111961,111157
112030,111184
112063,111169
111981,111167
111983,111113
112110,111222
112198,111242
112190,111238
112090,111186
112119,111203
112224,111251
112267,111251
112177,111259
112040,111151
111975,111130
111936,111130
111816,111067
111603,110934
111353,110769
111161,110754
111089,110657
111008,110638
110788,110495
110636,110410
110480,110395
110513,110380
110502,110374
110346,110338
110189,110209
110144,110219
110239,110273
110163,110217
110104,110207
109990,110134
109979,110158
110078,110202
110079,110200
110046,110159
109941,110151
109985,110132
110077,110255
110125,110243
110070,110209
110043,110159
110076,110228
110206,110279
110206,110267
110217,110290
110105,110203
110176,110237
110321,110341
110321,110361
110286,110295
110226,110248
110260,110298
110353,110379
110347,110349
110353,110331
110230,110240
110275,110333
110404,110376
110335,110348
110353,110365
110232,110287
110350,110332
110417,110408
110407,110399
110348,110323
110300,110291
110370,110397
110464,110412
110452,110415
110426,110405
110328,110325
110457,110401
110539,110467
110544,110422
110507,110430
110468,110388
110598,110478
110650,110541
110639,110469
110610,110489
110567,110434
110605,110500
110718,110564
110683,110478
110639,110496
110536,110403
110645,110473
110687,110541
110612,110462
110605,110455
110473,110400
110586,110459
110614,110470
110561,110447
110534,110408
110435,110382
110529,110408
110602,110484
110569,110444
110552,110408
110451,110399
110582,110429
110639,110524
110624,110430
110560,110445
110569,110428
110734,110512
110790,110571
110789,110538
110764,110539
110750,110516
110932,110607
111009,110670
110975,110648
110998,110618
111000,110626
111156,110735
111238,110793
111168,110784
111159,110727
111194,110761
111298,110789
111380,110864
111392,110853
111361,110777
111374,110845
111494,110894
111619,110958
111588,110950
111532,110870
111607,110939
111730,111005
111784,111052
111774,110996
111657,110929
111749,110998
111820,111041
111854,111067
111819,111083
111747,110990
111763,111052
111855,111130
111883,111126
111878,111074
111790,111044
111829,111064
111934,111134
111956,111133
111886,111108
111799,111048
111870,111092
111956,111150
111930,111111
111931,111110
111822,111038
111863,111088
111977,111143
111923,111145
111867,111090
111768,111031
111838,111054
111927,111156
111873,111082
111871,111112
111739,110980
111831,111074
111929,111106
111905,111121
111858,111122
111751,111002
111882,111099
111970,111169
111916,111137
111905,111079
111814,111067
111894,111092
111964,111164
111976,111137
111959,111153
111858,111052
111941,111127
112023,111182
112044,111171
112022,111166
111941,111054
112064,111166
112096,111220
112147,111205
112082,111175
112037,111130
112135,111191
112188,111264
112198,111211
112173,111196
112088,111145
112221,111227
112325,111290
112278,111252
112219,111236
112210,111216
112317,111278
112396,111321
112362,111299
112373,111303
112343,111256
112402,111338
112482,111392
112488,111341
112406,111292
112391,111287
112534,111361
112570,111407
112570,111377
112483,111347
112473,111313
112613,111401
112653,111409
112607,111399
112574,111370
112539,111347
112622,111408
112715,111460
112666,111415
112643,111390
112582,111336
112655,111435
112735,111472
112712,111435
112649,111389
112572,111401
112676,111431
112703,111457
112660,111411
112567,111358
112486,111322
112495,111345
112488,111356
112315,111228
112055,111102
111887,111034
111788,110999
111654,110889
111423,110771
111227,110679
111092,110630
111066,110625
110973,110585
110867,110512
110705,110404
110670,110425
110707,110449
110701,110452
110656,110400
110497,110326
110525,110327
110569,110399
110622,110411
110559,110394
110468,110321
110529,110362
110650,110423
110666,110431
110654,110423
110596,110380
110652,110430
110760,110521
110789,110511
110799,110494
110707,110453
110825,110519
110904,110594
110954,110594
110937,110591
110854,110493
110936,110590
111034,110644
111067,110640
111020,110600
110861,110555
110937,110597
111040,110646
111000,110612
110939,110573
110805,110496
110852,110560
110948,110605
110872,110595
110856,110523
110761,110506
110844,110516
110930,110622
110903,110575
110919,110541
110821,110550
110954,110605
111065,110653
111101,110704
111062,110645
111068,110633
111152,110722
111245,110794
111247,110780
111231,110749
111198,110705
111318,110799
111345,110824
111306,110776
111249,110764
111160,110690
111247,110773
111279,110807
111280,110758
111168,110715
111094,110659
111180,110690
111206,110788
111181,110715
111100,110671
111065,110653
111163,110734
111161,110699
111203,110742
111155,110695
111113,110671
111237,110760
111317,110785
111264,110770
111272,110749
111239,110703
111308,110782
111421,110847
111435,110822
111370,110815
111297,110746
111404,110844
111503,110911
111439,110868
111397,110801
111378,110838
111489,110896
111583,110906
111524,110886
111441,110862
111461,110854
111548,110909
111580,110984
111573,110893
111574,110900
111522,110881
111682,110967
111696,111023
111684,110934
111670,110919
111648,110960
111771,111031
111874,111081
111815,111028
111790,110994
111803,111031
111881,111079
111943,111100
111924,111070
111833,111008
111844,111046
111930,111101
111996,111121
111938,111110
111847,111054
111884,111062
111957,111119
111997,111127
111971,111115
111882,111054
111893,111078
112022,111144
112050,111154
112046,111143
111900,111067
111970,111133
112052,111152
112035,111178
112016,111146
111932,111081
111938,111077
112036,111154
112032,111174
112013,111136
111897,111049
111906,111089
112032,111167
112043,111160
111954,111131
111890,111053
111965,111114
112031,111168
112056,111185
112038,111124
111926,111102
112009,111133
112086,111190
112097,111203
112088,111150
111958,111108
112039,111150
112122,111203
112102,111178
112100,111193
111995,111111
112055,111149
112166,111224
112142,111199
112099,111148
112015,111108
112103,111183
112187,111260
112172,111200
112121,111158
112071,111128
112186,111225
112251,111254
112256,111254
112222,111219
112129,111172
112250,111238
112340,111291
112334,111285
112283,111259
112227,111206
112312,111291
112403,111320
112398,111316
112362,111278
112272,111235
112411,111307
112470,111361
112465,111338
112412,111299
112383,111280
112475,111344
112563,111396
112557,111313
112505,111321
112422,111298
112546,111353
112609,111435
112613,111421
112548,111351
112496,111317
112604,111383
112672,111445
112615,111405
112542,111358
112541,111369
112655,111413
112690,111443
112652,111399
112596,111364
112584,111372
112684,111427
112731,111444
112666,111427
112596,111365
112559,111337
112586,111398
112547,111375
112412,111300
112175,111147
111953,111037
111865,111024
111710,110950
111503,110800
111191,110656
111049,110569
111012,110576
110949,110576
110759,110459
110631,110394
110545,110338
110567,110398
110559,110357
110429,110322
110337,110223
110318,110253
110360,110264
110388,110334
110317,110223
110207,110175
110241,110194
110356,110290
110347,110318
110334,110242
110251,110200
110298,110246
110366,110319
110400,110309
110380,110310
110315,110241
110329,110301
110447,110351
110438,110358
110459,110342
110342,110259
110396,110323
110474,110377
110505,110379
110479,110350
110358,110252
110429,110334
110520,110348
110507,110354
110457,110327
110358,110260
110419,110315
110501,110394
110441,110341
110470,110320
110304,110232
110432,110309
110457,110364
110449,110288
110407,110350
110304,110256
110433,110294
110511,110385
110500,110368
110531,110351
110414,110304
110500,110376
110577,110429
110575,110424
110586,110357
110499,110335
110573,110386
110678,110497
110651,110423
110621,110415
110498,110350
110605,110394
110693,110468
110637,110464
110631,110392
110486,110352
110583,110405
110656,110411
110617,110408
110534,110360
110462,110317
110569,110383
110654,110433
110593,110428
110563,110358
110486,110339
110569,110388
110621,110462
110601,110393
110534,110377
110500,110344
110585,110401
110683,110476
110633,110438
110599,110367
110529,110356
110628,110455
110684,110489
110685,110456
110627,110434
110588,110405
110754,110471
110821,110564
110768,110508
110771,110486
110704,110454
110862,110542
110923,110574
110876,110548
110829,110529
110797,110505
110921,110576
110987,110619
110973,110588
110920,110548
110907,110555
110986,110597
111040,110656
111051,110636
110962,110585
110983,110613
111106,110662
111146,110740
111142,110698
111089,110617
111064,110656
111204,110726
111190,110744
111185,110701
111084,110650
111108,110690
111204,110741
111154,110723
111113,110674
110967,110575
110962,110623
111035,110675
110998,110643
110952,110617
110784,110538
110827,110558
110888,110586
110894,110618
110858,110582
110737,110489
110774,110543
110863,110581
110841,110587
110807,110576
110736,110483
110730,110535
110833,110592
110894,110612
110833,110564
110775,110515
110822,110552
110883,110577
110952,110614
110911,110562
110777,110500
110866,110569
110940,110623
110970,110627
110914,110595
110779,110527
110888,110595
110996,110637
110913,110599
110927,110599
110835,110549
110903,110593
111011,110642
110962,110642
110983,110654
110912,110577
110987,110620
111110,110707
111106,110685
111074,110674
111000,110619
111114,110683
111220,110792
111247,110753
111179,110717
111118,110676
111220,110742
111321,110836
111324,110803
111250,110766
111212,110745
111334,110817
111473,110893
111418,110890
111406,110829
111382,110815
111497,110887
111621,110958
111598,110946
111620,110928
111570,110894
111755,111018
111829,111045
111799,111031
111812,111014
111783,110996
111932,111095
112009,111148
111967,111086
111957,111069
111864,111036
111965,111099
111953,111108
111835,111034
111673,110926
111473,110825
111444,110835
111307,110775
111120,110679
110923,110530
110772,110495
110773,110501
110741,110485
110645,110389
110490,110337
110452,110296
110475,110329
110477,110354
110455,110289
110322,110220
110291,110240
110352,110306
110415,110306
110362,110311
110278,110231
110274,110256
110368,110284
110392,110323
110403,110258
110305,110262
110292,110274
110446,110351
110448,110352
110441,110335
110392,110281
110372,110307
110493,110380
110554,110386
110504,110356
110391,110296
110450,110345
110544,110394
110576,110420
110528,110379
110445,110320
110501,110361
110600,110416
110585,110397
110581,110409
110496,110337
110544,110377
110604,110428
110626,110428
110632,110420
110547,110346
110570,110380
110657,110461
110699,110471
110664,110439
110588,110354
110614,110412
110719,110488
110744,110499
110697,110466
110633,110407
110695,110441
110748,110513
110796,110527
110738,110485
110644,110416
110700,110455
110780,110507
110799,110508
110737,110464
110632,110393
110662,110456
110743,110465
110713,110485
110655,110441
110558,110352
110620,110383
110657,110414
110620,110409
110563,110387
110485,110300
110550,110346
110562,110402
110568,110371
110547,110390
110419,110268
110487,110345
110611,110415
110567,110400
110500,110356
110465,110296
110569,110373
110613,110446
110590,110402
110601,110359
110470,110358
110568,110401
110701,110481
110631,110443
110608,110379
110561,110338
110660,110440
110692,110483
110664,110457
110623,110410
110608,110398
110699,110457
110765,110521
110732,110469
110707,110430
110657,110440
110793,110506
110871,110541
110878,110536
110808,110520
110804,110485
110903,110568
110923,110620
110924,110539
110857,110516
110793,110465
110911,110553
110969,110605
110874,110565
110814,110515
110790,110491
110864,110575
110971,110582
110947,110585
110878,110543
110853,110512
110931,110592
110997,110616
110997,110593
110901,110557
110918,110527
110995,110590
111080,110652
111069,110604
110999,110578
111003,110585
111158,110676
111198,110708
111150,110666
111152,110645
111110,110652
111220,110714
111294,110730
111254,110697
111167,110657
111168,110662
111273,110722
111272,110765
111211,110702
111132,110666
111159,110638
111253,110715
111249,110727
111203,110696
111108,110624
111132,110667
111196,110724
111247,110704
111215,110681
111132,110672
111184,110674
111273,110761
111313,110726
111309,110727
111189,110667
111290,110726
111397,110815
111419,110818
111434,110796
111357,110729
111439,110789
111514,110859
111572,110864
111524,110848
111442,110763
111526,110853
111655,110922
111652,110908
111667,110898
111564,110843
111708,110890
111771,110959
111762,110941
111787,110935
111661,110914
111767,110939
111837,110996
111860,111010
111784,110977
111740,110901
111826,111011
111916,111057
111899,111061
111899,110994
111861,110997
111967,111024
112057,111121
112094,111104
112048,111094
112006,111008
112104,111135
112228,111187
112222,111140
112190,111143
112094,111072
112213,111175
112271,111205
112205,111132
112084,111082
111863,111002
111835,110964
111696,110917
111504,110812
111221,110654
110972,110523
110856,110501
110839,110455
110676,110369
110529,110333
110353,110185
110384,110261
110385,110236
110239,110173
110188,110117
110069,110036
110107,110124
110150,110146
110108,110112
109954,110052
109935,109977
110000,110065
110074,110095
110013,110045
109904,110012
109889,109967
109962,110076
110044,110120
110033,110103
109925,110016
109922,110016
110003,110080
110087,110122
110032,110085
110019,110051
109964,110044
110071,110084
110141,110153
110057,110120
110040,110039
109981,110072
110107,110110
110134,110142
110049,110083
109992,109991
109966,110077
110039,110087
110070,110114
110003,110065
109915,109970
109934,110030
109999,110033
110040,110065
109975,110039
109859,109989
109887,109975
109960,110042
110000,110078
109928,110007
109888,110010
109871,110022
110014,110098
110022,110089
110030,110053
109906,110012
109979,110039
110068,110107
110102,110110
110061,110072
110022,110024
110005,110104
110105,110127
110116,110125
110072,110071
109971,110007
110017,110087
110101,110126
110089,110084
110024,110069
109906,109958
109967,110043
110040,110077
109985,110048
109956,110064
109816,109945
109953,110037
110044,110074
109972,110046
109950,110011
109855,109933
109900,110018
109974,110063
109976,110023
109938,110042
109831,109945
109968,110027
110045,110107
110046,110039
110053,110066
109907,109988
110048,110055
110117,110131
110124,110098
110111,110066
110059,110060
110166,110115
110231,110178
110255,110153
110189,110124
110135,110093
110212,110174
110303,110216
110321,110209
110289,110172
110193,110111
110303,110245
110384,110268
110339,110236
110347,110219
110254,110153
110337,110250
110451,110310
110445,110261
110383,110251
110286,110223
110382,110283
110433,110324
110374,110288
110326,110191
110292,110191
110328,110238
110360,110280
110364,110241
110268,110179
110228,110159
110332,110253
110350,110266
110304,110242
110270,110167
110240,110155
110308,110218
110395,110270
110351,110254
110288,110187
110266,110173
110362,110198
110454,110266
110368,110281
110301,110164
110260,110173
110357,110221
110432,110255
110369,110268
110320,110192
110251,110186
110348,110259
110410,110250
110345,110254
110288,110147
110275,110165
110370,110240
110410,110277
110322,110201
110306,110172
110260,110210
110388,110244
110435,110275
110337,110229
110270,110175
110299,110213
110349,110229
110414,110281
110379,110211
110271,110167
110325,110195
110379,110307
110397,110282
110427,110259
110299,110212
110352,110232
110399,110266
110467,110296
110405,110271
110342,110205
110392,110271
110450,110300
110491,110324
110431,110300
110336,110210
110389,110274
110448,110330
110486,110298
110461,110267
110367,110217
110452,110294
110559,110346
110559,110344
110550,110323
110439,110220
110560,110367
110612,110394
110657,110372
110644,110402
110547,110309
110669,110387
110733,110460
110751,110409
110758,110445
110682,110359
110738,110412
110831,110490
110820,110476
110809,110449
110691,110390
110765,110439
110852,110496
110810,110474
110750,110423
110588,110362
110655,110372
110676,110399
110544,110325
110423,110219
110219,110115
110215,110122
110187,110109
110066,110071
109924,109965
109758,109899
109773,109913
109745,109921
109631,109838
109539,109781
109356,109726
109364,109736
109382,109782
109324,109708
109170,109648
109089,109577
109141,109603
109205,109657
109124,109645
109030,109544
108969,109517
109047,109600
109116,109631
109052,109571
109041,109554
108984,109498
109034,109605
109130,109620
109056,109605
108980,109508
108959,109519
109061,109602
109117,109636
109066,109557
109003,109537
108964,109517
109082,109576
109136,109643
109100,109577
108979,109496
108967,109491
109055,109580
109118,109595
109039,109569
108974,109477
108954,109499
109053,109558
109061,109561
109040,109526
108945,109463
108913,109476
109012,109537
109027,109547
108996,109528
108961,109466
108929,109490
109034,109585
109074,109561
109078,109538
108958,109497
108979,109507
109155,109581
109135,109582
109123,109547
108996,109479
109061,109545
109150,109597
109153,109548
109136,109542
109016,109500
109050,109498
109109,109576
109096,109542
109084,109495
108932,109469
108954,109473
109043,109545
109042,109537
108998,109469
108903,109429
108908,109464
108970,109513
109028,109511
108936,109484
108822,109346
108881,109429
108914,109468
108942,109481
108918,109447
108780,109362
108887,109429
108909,109488
108963,109475
108915,109445
108793,109410
108883,109451
108945,109499
108975,109469
108974,109490
108854,109376
109009,109511
109039,109539
109042,109485
109071,109510
108949,109439
109085,109525
109198,109590
109199,109574
109156,109545
109122,109507
109226,109585
109292,109651
109273,109620
109252,109586
109191,109544
109262,109611
109339,109637
109354,109659
109286,109603
109156,109590
109233,109612
109362,109667
109341,109662
109285,109586
109231,109580
109317,109639
109383,109694
109344,109646
109319,109618
109236,109580
109357,109651
109413,109713
109344,109660
109332,109597
109248,109615
109331,109668
109400,109709
109388,109630
109287,109598
109245,109612
109357,109671
109401,109711
109341,109662
109284,109570
109279,109599
109341,109672
109422,109703
109383,109658
109333,109619
109259,109567
109395,109660
109443,109729
109354,109666
109307,109588
109250,109626
109395,109650
109440,109689
109388,109692
109269,109612
109270,109608
109371,109675
109432,109693
109396,109658
109327,109598
109306,109626
109392,109675
109467,109695
109440,109652
109360,109648
109386,109626
109492,109760
109570,109752
109534,109716
109429,109636
109513,109726
109590,109773
109642,109791
109613,109760
109527,109727
109570,109758
109658,109823
109696,109835
109666,109772
109596,109749
109619,109762
109767,109840
109759,109861
109745,109833
109652,109795
109758,109839
109836,109889
109890,109920
109875,109873
109869,109846
109902,109867
110045,109997
110081,110002
110033,109950
109991,109860
110005,109952
110087,110002
110028,109964
109932,109887
109778,109799
109713,109762
109717,109811
109612,109707
109469,109656
109234,109522
109225,109582
109219,109555
109115,109491
109002,109430
108780,109323
108798,109368
108819,109365
108722,109302
108608,109261
108499,109148
108501,109188
108552,109243
108500,109186
108426,109134
108301,109077
108399,109139
108439,109190
108429,109147
108398,109082
108325,109122
108411,109122
108493,109196
108443,109165
108365,109109
108322,109084
108397,109138
108489,109204
108448,109175
108405,109110
108344,109115
108423,109133
108501,109199
108445,109171
108393,109084
108317,109104
108433,109123
108446,109184
108388,109149
108325,109091
108271,109056
108355,109135
108382,109152
108349,109134
108273,109064
108268,109044
108319,109092
108349,109120
108317,109099
108265,109029
108243,109028
108363,109088
108418,109155
108399,109128
108379,109089
108330,109060
108492,109190
108596,109183
108546,109174
108533,109134
108485,109157
108608,109235
108628,109235
108629,109231
108551,109170
108558,109146
108634,109214
108682,109254
108652,109221
108521,109163
108511,109108
108596,109176
108621,109215
108593,109175
108555,109122
108479,109131
108580,109207
108629,109235
108623,109181
108508,109144
108505,109092
108609,109179
108666,109219
108635,109182
108499,109114
108560,109143
108667,109214
108654,109215
108648,109194
108571,109140
108585,109182
108696,109249
108739,109263
108713,109211
108623,109178
108679,109192
108771,109307
108828,109294
108813,109286
108692,109259
108751,109256
108872,109352
108903,109343
108905,109331
108790,109290
108876,109325
108990,109382
109019,109384
109036,109402
108935,109350
109016,109382
109120,109455
109149,109456
109138,109429
109025,109409
109086,109396
109205,109503
109221,109456
109162,109491
109033,109388
109134,109441
109205,109510
109207,109485
109133,109439
109042,109382
109095,109466
109173,109508
109184,109491
109177,109443
