11111,11111
0,0
82405,82449
137452,111722
143392,111703
143408,111717
143441,111714
143411,111719
143374,111698
143378,111647
143418,111665
143359,111662
143421,111660
143393,111692
143376,111667
143377,111699
143410,111660
143420,111686
143356,111670
143405,111655
143422,111649
143377,111681
143395,111644
143415,111647
143359,111656
143400,111652
143425,111648
143416,111652
143428,111662
143393,111674
143421,111640
143488,111663
143467,111657
143422,111679
143435,111619
143470,111647
143435,111629
143482,111624
143458,111640
143422,111606
143477,111653
143463,111695
143468,111626
143503,111634
143491,111655
143483,111625
143507,111645
143471,111636
143489,111612
143515,111663
143497,111633
143516,111613
143484,111660
143496,111628
143534,111618
143551,111650
143560,111634
143539,111621
143490,111598
143558,111620
143537,111648
143553,111609
143552,111606
143566,111595
143529,111650
143560,111623
143588,111659
143579,111658
143587,111607
143557,111614
143613,111612
143598,111637
143573,111627
143588,111595
143587,111645
143608,111611
143635,111647
143623,111620
143610,111613
143557,111620
143574,111558
143546,111558
143516,111565
143488,111592
143450,111534
143432,111532
143425,111523
143348,111510
143322,111486
143278,111488
143268,111451
143263,111474
143238,111444
143163,111452
143167,111449
143126,111421
143152,111400
143104,111400
143033,111414
143082,111392
143052,111376
143018,111368
143033,111350
142993,111384
143036,111375
143041,111390
143027,111390
142981,111374
142983,111320
143025,111383
143048,111376
143005,111327
143025,111373
143008,111402
143010,111374
143046,111338
143039,111366
143042,111324
143040,111392
143046,111373
143073,111360
143087,111399
143081,111417
143050,111338
143101,111364
143131,111344
143229,111388
143162,111295
143193,111325
143259,111299
143216,111344
143257,111301
143278,111324
143362,111294
143403,111345
143367,111312
143375,111317
143406,111339
143422,111351
143436,111300
143465,111320
143410,111302
143440,111317
143487,111343
143420,111310
143429,111305
143408,111269
143403,111297
143435,111293
143374,111272
143369,111294
143319,111213
143315,111256
143273,111234
143256,111188
143165,111184
143162,111167
143122,111191
143125,111181
143034,111153
143021,111118
142975,111160
142954,111094
142935,111092
142907,111092
142893,111077
142838,111050
142893,111057
142834,111084
142841,111027
142807,111046
142800,111017
142800,111047
142754,111024
142810,111040
142801,111030
142738,111003
142771,111027
142820,111014
142814,111010
142769,111038
142764,111008
142792,111005
142807,111046
142784,111004
142849,111018
142764,111022
142826,111044
142826,111059
142822,111016
142799,111034
142834,111035
142853,111044
142858,111037
142869,111037
142834,111024
142862,111032
142879,111059
142890,111000
142894,111043
142939,111024
142875,111022
142954,111050
142931,111029
142969,111050
142961,111063
142915,111021
142985,111036
143009,111044
143013,111081
142972,111059
142993,111045
142984,111064
143015,111054
143014,111037
143028,111065
142953,111048
143006,111041
143025,111040
142992,111029
143032,111036
142957,111057
142968,111020
142993,111021
142969,111014
142985,111026
142930,111038
142970,110994
142989,111028
142965,111017
142893,110990
142964,111008
142925,111010
142928,110987
142922,110970
142885,110981
142919,110992
142922,110981
142900,110986
142913,110963
142912,110984
142879,110991
142883,110971
142926,110979
142906,110955
142909,110978
142862,110924
142898,110956
142918,110978
142927,110957
142905,110992
142914,110953
142929,110993
142919,110982
142897,110987
142871,110952
142909,110964
142972,110970
142920,110996
142974,110956
142899,110954
142927,110981
142935,110986
142999,110969
142968,110989
142970,110948
142926,110963
142969,110958
142961,110960
142991,110943
142977,110978
142962,110968
143012,110977
143033,110972
143015,110995
142983,110938
142992,110979
143009,110944
143046,110952
143036,110968
142996,110966
143044,110947
143068,110985
143051,110972
143062,110982
143023,110931
143077,110961
143082,110992
143069,110958
143077,110982
143101,110978
143100,110977
143129,111013
143088,110952
143127,110963
143097,110962
143103,110972
143092,110972
143139,110985
143128,111010
143106,110971
143130,110993
143120,110983
143167,111006
143191,110975
143116,111010
143152,110970
143167,111003
143184,110971
143173,110986
143134,110982
143161,110994
143182,110943
143180,110963
143173,110983
143121,110936
143124,110954
143055,110908
143078,110925
142994,110887
142941,110851
142966,110876
142926,110890
142838,110816
142855,110827
142753,110763
142774,110783
142716,110812
142656,110785
142669,110760
142610,110733
142634,110754
142580,110731
142560,110755
142535,110699
142507,110739
142507,110698
142497,110680
142513,110713
142504,110686
142414,110667
142469,110671
142454,110701
142440,110694
142425,110659
142453,110678
142469,110700
142450,110681
142466,110669
142471,110681
142450,110707
142489,110706
142486,110693
142484,110656
142476,110660
142475,110709
142501,110696
142526,110679
142544,110669
142523,110700
142500,110694
142534,110695
142584,110698
142572,110708
142555,110666
142566,110682
142599,110696
142602,110709
142648,110723
142576,110723
142608,110682
142679,110726
142664,110720
142677,110720
142651,110696
142679,110739
142696,110721
142730,110732
142676,110734
142710,110705
142697,110684
142769,110741
142692,110761
142716,110693
142689,110707
142691,110729
142712,110711
142704,110717
142666,110703
142688,110666
142659,110674
142689,110694
142694,110673
142667,110676
142649,110706
142629,110642
142661,110665
142658,110689
142653,110677
142598,110630
142622,110663
142619,110691
142645,110656
142639,110647
142567,110659
142570,110631
142629,110653
142617,110669
142611,110629
142615,110639
142582,110615
142613,110623
142598,110631
142628,110617
142599,110613
142575,110643
142601,110642
142609,110651
142617,110627
142637,110624
142643,110627
142678,110664
142643,110634
142644,110622
142609,110655
142656,110624
142681,110653
142698,110662
142658,110656
142683,110642
142662,110670
142665,110667
142709,110677
142688,110662
142661,110631
142706,110650
142721,110665
142678,110655
142734,110633
142684,110665
142714,110637
142776,110642
142746,110689
142728,110643
142763,110670
142763,110687
142767,110659
142788,110665
142802,110665
142747,110667
142790,110690
142809,110682
142805,110670
142795,110665
142769,110647
142802,110666
142832,110688
142848,110689
142813,110682
142798,110662
142837,110674
142859,110660
142859,110681
142854,110681
142852,110672
142900,110695
142875,110696
142909,110690
142859,110671
142890,110657
142878,110693
142914,110707
142893,110704
142914,110664
142875,110672
142901,110689
142969,110677
142954,110714
142906,110685
142889,110667
142847,110641
142936,110676
142863,110644
142842,110655
142766,110608
142750,110603
142736,110585
142660,110595
142681,110579
142568,110527
142588,110511
142546,110523
142491,110525
142495,110503
142380,110485
142369,110440
142416,110481
142342,110455
142313,110427
142277,110423
142228,110415
142246,110405
142221,110379
142188,110383
142149,110389
142168,110414
142128,110361
142125,110381
142098,110336
142077,110378
142080,110336
142135,110362
142099,110355
142117,110360
142059,110325
142102,110349
142144,110359
142139,110354
142100,110352
142129,110339
142166,110356
142165,110377
142173,110375
142160,110375
142176,110328
142187,110383
142167,110324
142211,110398
142160,110354
142196,110390
142212,110362
142268,110388
142260,110375
142245,110384
142215,110397
142243,110375
142322,110388
142323,110416
142274,110420
142297,110424
142323,110387
142335,110414
142384,110404
142381,110397
142363,110408
142391,110409
142337,110435
142342,110431
142336,110395
142356,110392
142375,110433
142391,110421
142363,110384
142331,110409
142316,110374
142354,110407
142347,110363
142311,110379
142336,110402
142293,110361
142293,110334
142345,110396
142268,110350
142236,110377
142265,110360
142251,110353
142284,110342
142266,110368
142222,110304
142216,110313
142257,110326
142219,110332
142252,110321
142240,110366
142198,110309
142230,110345
142273,110329
142272,110331
142193,110286
142257,110329
142255,110370
142263,110349
142228,110335
142198,110336
142225,110305
142269,110314
142251,110353
142261,110304
142242,110329
142243,110305
142273,110325
142254,110350
142272,110304
142258,110307
142258,110332
142295,110375
142286,110318
142290,110305
142296,110346
142301,110344
142351,110334
142307,110336
142353,110346
142318,110332
142343,110341
142361,110367
142365,110347
142388,110352
142333,110356
142341,110324
142411,110367
142391,110355
142375,110343
142379,110329
142388,110342
142405,110345
142417,110342
142417,110344
142393,110360
142425,110357
142448,110349
142434,110359
142437,110397
142422,110366
142443,110358
142465,110373
142469,110385
142467,110363
142475,110353
142500,110412
142512,110376
142477,110377
142509,110383
142490,110363
142490,110376
142518,110367
142541,110398
142502,110370
142501,110353
142512,110366
142558,110391
142514,110393
142532,110379
142537,110407
142509,110377
142512,110355
142532,110407
142467,110363
142437,110330
142449,110343
142396,110328
142351,110294
142326,110280
142270,110279
142236,110265
142210,110214
142177,110253
142144,110209
142052,110175
142079,110172
141990,110196
141946,110178
141903,110138
141883,110093
141896,110134
141833,110077
141790,110099
141800,110078
141727,110061
141755,110043
141713,110055
141692,110040
141702,110056
141616,110040
141653,110009
141707,110065
141670,110036
141613,110023
141629,110006
141666,110023
141645,110033
141678,110031
141657,110053
141605,109978
141683,110020
141647,110008
141653,110011
141668,110043
141651,110006
141665,110021
141708,110034
141684,110037
141659,110005
141699,110051
141723,110041
141707,110043
141712,110032
141712,110021
141703,110029
141747,110034
141765,110051
141773,110030
141753,110053
141786,110047
141823,110085
141807,110057
141811,110038
141847,110056
141813,110064
141853,110068
141841,110044
141844,110034
141845,110072
141853,110054
141845,110062
141870,110069
141841,110086
141803,110022
141784,110053
141795,110065
141863,110069
141828,110062
141825,110004
141813,110043
141812,110041
141846,110051
141791,110042
141775,110028
141750,109994
141754,110002
141781,110030
141730,110021
141722,109991
141745,110018
141694,109988
141738,109991
141724,109996
141648,109979
141701,109990
141669,110013
141698,109952
141686,109973
141676,109966
141654,109940
141733,109968
141698,109994
141652,109975
141655,109967
141685,109984
141742,109994
141681,109983
141702,109964
141645,109978
141704,109993
141721,109988
141731,110000
141750,109977
141698,109938
141737,109966
141743,110017
141750,109998
141766,109995
141730,110002
141721,110003
141759,109958
141796,110014
141744,109987
141772,109970
141775,110034
141781,109984
141860,110005
141789,110007
141823,110004
141823,110015
141826,110031
141806,109999
141836,110037
141812,109995
141816,109997
141882,110005
141899,110027
141880,110048
141828,109973
141907,110020
141909,110026
141915,110036
141879,110050
141917,109999
141918,110040
141915,110028
141947,110048
141935,110029
141934,110039
141911,110046
141941,110009
141963,110060
141972,110052
141943,110041
141954,110053
141994,110041
141963,110045
141967,110010
141912,110050
141898,110009
141956,110023
141888,109987
141892,110023
141781,109941
141792,109959
141740,109971
141708,109931
141669,109899
141576,109930
141596,109892
141517,109866
141474,109862
141451,109797
141399,109835
141345,109813
141314,109801
141281,109776
141281,109770
141220,109769
141175,109730
141200,109732
141155,109736
141085,109719
141054,109682
141101,109709
141046,109692
141029,109643
141030,109673
140997,109622
141043,109658
141018,109675
141002,109669
141002,109637
141008,109684
140963,109659
141004,109691
140981,109665
141005,109648
140997,109675
141015,109662
140988,109663
140988,109696
140983,109630
141027,109678
141036,109701
141032,109677
141040,109656
141068,109661
141033,109691
141055,109698
141103,109653
141097,109672
141126,109697
141104,109665
141166,109701
141150,109706
141164,109703
141164,109699
141156,109745
141194,109706
141220,109756
141196,109728
141216,109676
141212,109712
141243,109713
141225,109695
141229,109709
141213,109748
141161,109696
141243,109693
141198,109707
141203,109708
141166,109727
141154,109704
141199,109686
141204,109685
141177,109689
141160,109649
141161,109694
141148,109700
141148,109664
141123,109696
141085,109672
141119,109655
141142,109702
141102,109647
141103,109663
141091,109648
141085,109645
141077,109677
141081,109624
141108,109649
141027,109662
141070,109631
141070,109644
141070,109632
141071,109655
141037,109637
141085,109633
141061,109630
141089,109672
141092,109646
141056,109623
141092,109666
141104,109657
141126,109678
141115,109641
141081,109631
141119,109662
141128,109664
141145,109658
141155,109660
141147,109657
141143,109655
141144,109670
141170,109670
141186,109648
141160,109670
141160,109670
141194,109658
141256,109682
141207,109702
141203,109650
141231,109699
141240,109710
141283,109678
141261,109672
141224,109709
141244,109704
141288,109693
141308,109695
141318,109744
141265,109663
141323,109715
141338,109732
141366,109716
141308,109738
141311,109686
141329,109695
141329,109714
141380,109730
141355,109720
141367,109741
141398,109757
141401,109755
141406,109729
141395,109741
141373,109704
141428,109722
141426,109749
141444,109745
141386,109759
141388,109730
141361,109736
141386,109714
141374,109693
141378,109707
141258,109660
141296,109685
141216,109670
141181,109632
141174,109638
141041,109571
141054,109612
141015,109595
140925,109558
140886,109515
140815,109527
140795,109530
140783,109513
140725,109444
140630,109474
140591,109425
140547,109422
140560,109424
140511,109413
140473,109398
140370,109338
140390,109383
140377,109376
140369,109363
140272,109340
140253,109303
140290,109325
140251,109315
140239,109283
140252,109345
140232,109291
140266,109317
140214,109283
140259,109312
140191,109333
140189,109288
140187,109290
140216,109310
140224,109301
140220,109291
140223,109267
140258,109300
140230,109294
140261,109307
140229,109285
140202,109339
140253,109307
140239,109325
140232,109302
140268,109295
140282,109335
140312,109327
140339,109329
140305,109350
140332,109312
140324,109359
140358,109346
140372,109369
140353,109369
140385,109323
140382,109376
140402,109338
140425,109356
140407,109382
140376,109325
140405,109361
140413,109388
140394,109343
140418,109347
140369,109338
140338,109344
140397,109360
140355,109344
140347,109343
140332,109300
140318,109332
140334,109360
140316,109323
140311,109313
140259,109331
140239,109310
140289,109313
140286,109328
140260,109317
140253,109260
140247,109286
140257,109302
140228,109302
140201,109292
140196,109293
140185,109279
140246,109284
140178,109290
140230,109292
140167,109294
140193,109282
140259,109293
140241,109303
140219,109290
140225,109316
140189,109296
140231,109270
140253,109318
140241,109309
140203,109299
140224,109291
140240,109293
140251,109321
140260,109287
140211,109271
140235,109304
140303,109302
140295,109342
140240,109311
140246,109319
140268,109321
140327,109321
140301,109348
140337,109349
140268,109298
140330,109319
140350,109330
140352,109330
140378,109347
140301,109295
140377,109328
140373,109367
140410,109354
140382,109357
140420,109346
140426,109387
140399,109344
140456,109377
140449,109372
140447,109362
140480,109403
140451,109361
140460,109368
140508,109391
140454,109359
140482,109378
140495,109400
140566,109438
140575,109382
140510,109385
140565,109410
140530,109432
140543,109421
140542,109406
140549,109413
140573,109400
140569,109443
140568,109419
140530,109386
140526,109391
140510,109407
140456,109392
140408,109358
140421,109330
140287,109324
140275,109293
140258,109290
140189,109259
140081,109252
140041,109192
140008,109203
139985,109169
139928,109192
139862,109126
139754,109104
139751,109125
139682,109068
139635,109056
139575,109068
139510,108993
139499,109010
139432,109017
139430,108978
139353,108995
139328,108934
139346,109002
139305,108977
139289,108941
139258,108940
139210,108916
139234,108916
139212,108942
139209,108931
139204,108892
139200,108932
139218,108936
139219,108946
139186,108929
139210,108954
139206,108983
139174,108935
139279,108952
139245,108981
139215,108965
139229,108950
139255,108960
139291,109005
139257,108968
139273,108951
139272,108981
139312,108970
139383,109002
139357,109014
139310,108989
139385,108981
139371,109015
139372,109008
139410,109018
139362,108987
139420,109011
139423,109048
139454,109001
139480,109049
139430,109033
139467,109040
139452,109035
139495,109058
139478,109033
139458,109062
139480,109030
139515,109068
139463,109029
139501,109027
139487,109002
139458,109030
139456,109045
139467,109021
139460,109036
139407,109033
139425,109029
139393,109044
139408,108993
139431,109031
139337,109011
139363,108996
139430,109001
139325,109027
139372,109001
139312,108986
139319,108983
139361,109011
139360,109032
139317,109020
139333,109006
139323,109025
139344,108994
139377,109034
139362,109014
139327,109032
139325,109002
139412,109008
139378,109060
139366,109018
139369,108996
139387,108997
139431,109026
139385,109052
139389,109029
139393,109038
139378,109035
139467,109049
139493,109070
139499,109042
139436,109060
139449,109071
139490,109078
139495,109047
139524,109063
139503,109096
139510,109094
139554,109101
139589,109130
139570,109129
139551,109075
139604,109109
139630,109150
139632,109141
139645,109121
139631,109092
139681,109159
139668,109128
139723,109142
139718,109168
139671,109124
139741,109194
139746,109170
139796,109182
139753,109133
139756,109175
139772,109169
139842,109223
139846,109204
139828,109181
139835,109188
139844,109221
139883,109189
139905,109220
139844,109201
139864,109197
139912,109231
139925,109223
139956,109208
139924,109244
139898,109231
139949,109230
139958,109248
139986,109239
139934,109257
139942,109270
139920,109260
139983,109240
139978,109233
139921,109222
139852,109220
139856,109215
139763,109172
139742,109143
139700,109157
139602,109122
139537,109097
139515,109104
139431,109048
139379,108998
139280,109014
139250,108987
139198,108974
139087,108938
139048,108878
138954,108904
138895,108878
138896,108854
138837,108838
138759,108812
138712,108778
138691,108800
138643,108769
138642,108783
138588,108749
138558,108745
138543,108742
138533,108749
138524,108730
138474,108717
138457,108712
138477,108753
138490,108741
138479,108733
138464,108717
138454,108739
138467,108753
138460,108744
138465,108724
138463,108748
138467,108720
138473,108716
138512,108746
138531,108750
138459,108730
138466,108746
138528,108723
138552,108761
138526,108772
138535,108739
138540,108774
138590,108794
138581,108800
138622,108752
138580,108790
138604,108806
138630,108805
138686,108790
138673,108800
138639,108831
138649,108819
138671,108822
138733,108806
138728,108849
138694,108793
138721,108820
138714,108853
138745,108820
138744,108808
138709,108846
138698,108845
138753,108883
138760,108827
138707,108834
138724,108819
138684,108835
138705,108803
138711,108803
138713,108804
138640,108781
138693,108812
138665,108842
138658,108793
138662,108832
138615,108764
138621,108808
138594,108828
138621,108815
138605,108794
138570,108806
138568,108808
138565,108767
138537,108816
138516,108791
138528,108776
138550,108765
138572,108826
138613,108809
138565,108790
138570,108777
138567,108772
138595,108835
138627,108792
138575,108805
138565,108780
138634,108832
138647,108793
138625,108792
138666,108823
138636,108825
138612,108831
138668,108818
138673,108842
138682,108847
138627,108846
138654,108821
138715,108879
138718,108850
138705,108862
138709,108840
138731,108887
138742,108838
138768,108855
138773,108867
138732,108875
138763,108875
138803,108858
138792,108875
138830,108886
138792,108920
138835,108887
138828,108923
138860,108939
138831,108887
138863,108900
138865,108958
138895,108901
138895,108905
138882,108939
138843,108908
138889,108902
138929,108968
138937,108942
138888,108939
138887,108948
138889,108917
138957,108984
138926,108957
138963,108958
138924,108909
138994,108975
138968,108983
138972,108965
138996,108942
138984,108968
139008,109000
138999,108971
139049,108977
139035,108986
139018,108984
139027,108988
139062,109003
139012,108990
139028,109008
139017,108968
139098,109013
139057,108975
139063,108983
139066,108984
139025,109010
139007,108973
139015,108962
138967,108953
138942,108944
138872,108940
138820,108935
138805,108892
138745,108870
138624,108838
138586,108825
138554,108797
138507,108780
138432,108773
138321,108725
138292,108710
138184,108717
138160,108670
138110,108654
137968,108627
137939,108610
137888,108616
137832,108568
137781,108562
137706,108498
137718,108504
137651,108533
137606,108534
137592,108480
137567,108484
137527,108481
137579,108457
137531,108486
137526,108474
137482,108428
137505,108449
137539,108440
137528,108480
137519,108442
137535,108478
137533,108483
137531,108499
137575,108465
137562,108470
137530,108455
137517,108489
137526,108488
137556,108473
137610,108515
137518,108491
137549,108491
137598,108518
137606,108529
137622,108513
137611,108503
137593,108489
137625,108514
137681,108530
137633,108532
137693,108533
137667,108566
137721,108529
137735,108571
137758,108570
137741,108531
137746,108556
137739,108570
137814,108580
137769,108590
137767,108588
137753,108595
137754,108594
137774,108590
137787,108558
137782,108563
137775,108568
137789,108580
137788,108600
137779,108600
137713,108552
137762,108594
137750,108574
137745,108559
137748,108594
137665,108516
137694,108541
137700,108582
137710,108578
137639,108563
137635,108520
137684,108572
137628,108560
137633,108559
137634,108534
137606,108543
137614,108557
137628,108511
137656,108544
137646,108556
137562,108545
137634,108551
137671,108548
137629,108585
137606,108510
137596,108533
137624,108514
137650,108566
137649,108539
137646,108604
137610,108519
137670,108562
137707,108594
137692,108575
137734,108565
137699,108602
137717,108604
137777,108642
137809,108629
137871,108617
137863,108656
137876,108668
137973,108635
137980,108655
138024,108669
137968,108667
138072,108698
138066,108760
138084,108727
138107,108710
138095,108746
138144,108758
138184,108766
138159,108779
138212,108762
138176,108773
138212,108765
138281,108821
138264,108807
138243,108790
138266,108785
138281,108820
138298,108802
138328,108829
138347,108819
138342,108843
138341,108855
138384,108843
138398,108866
138374,108853
138381,108831
138426,108852
138411,108855
138430,108866
138466,108881
138421,108861
138480,108851
138517,108887
138525,108912
138490,108860
138492,108891
138544,108919
138571,108884
138562,108893
138558,108918
138563,108928
138603,108911
138633,108963
138606,108931
138651,108933
138618,108971
138689,108983
138669,108975
138710,108930
138682,108991
138665,108941
138773,108977
138774,108979
138776,108978
138739,108964
138735,108988
138787,108984
138788,109031
138836,108990
138762,109029
138762,108986
138737,108987
138762,108961
138772,108971
138700,108982
138627,108937
138620,108912
138591,108929
138494,108927
138429,108850
138361,108844
138304,108838
138260,108778
138214,108759
138087,108777
138007,108694
137983,108718
137910,108671
137834,108647
137792,108650
137726,108631
137692,108606
137665,108588
137589,108563
137506,108553
137424,108533
137452,108493
137427,108521
137378,108512
137336,108462
137336,108478
137275,108511
137290,108464
137321,108485
137238,108425
137261,108463
137249,108445
137262,108453
137286,108494
137253,108460
137232,108490
137252,108506
137248,108474
137286,108444
137228,108503
137266,108479
137321,108453
137333,108501
137307,108457
137338,108503
137306,108508
137327,108503
137323,108503
137376,108512
137321,108516
137362,108506
137442,108543
137423,108557
137453,108541
137420,108542
137444,108532
137497,108579
137515,108576
137505,108562
137508,108583
137542,108571
137542,108558
137610,108602
137562,108614
137508,108561
137578,108601
137569,108604
137564,108583
137551,108583
137543,108586
137559,108597
137541,108579
137558,108590
137573,108573
137491,108563
137514,108574
137505,108576
137533,108591
137487,108568
137446,108544
137499,108590
137479,108570
137474,108562
137481,108558
137450,108539
137427,108561
137478,108581
137472,108551
137431,108552
137438,108565
137420,108572
137437,108557
137445,108546
137411,108568
137409,108535
137433,108542
137413,108545
137429,108549
137414,108548
137394,108536
137451,108588
137496,108563
137497,108567
137484,108591
137450,108568
137481,108583
137501,108579
137531,108593
137482,108628
137488,108591
137583,108587
137576,108644
137576,108602
137585,108646
137598,108628
137614,108631
137653,108647
137677,108649
137676,108638
137683,108651
137706,108655
137796,108674
137772,108696
137762,108658
137790,108668
137798,108713
137838,108709
137898,108713
137843,108745
137857,108730
137913,108712
137950,108735
137965,108744
137901,108723
137935,108745
138000,108751
138022,108788
137996,108796
138052,108755
138031,108787
138060,108812
138097,108799
138085,108797
138101,108816
138075,108799
138163,108828
138162,108856
138181,108838
138193,108826
138186,108848
138207,108877
138232,108850
138263,108829
138239,108876
138218,108856
138318,108861
138339,108916
138303,108917
138297,108847
138328,108905
138349,108920
138342,108905
138370,108896
138368,108939
138395,108900
138403,108945
138471,108948
138453,108942
138446,108915
138464,108941
138475,108923
138528,108974
138487,108973
138497,108933
138510,108962
138535,108982
138566,108947
138591,108954
138522,109013
138562,108974
138622,108983
138647,109009
138637,109020
138626,108978
138611,109009
138626,109012
138630,108992
138636,108985
138596,109002
138594,108966
138572,108970
138528,108961
138445,108923
138401,108894
138384,108910
138345,108893
138291,108867
138195,108827
138142,108808
138056,108830
137993,108742
137972,108753
137906,108751
137799,108707
137753,108665
137747,108682
137678,108675
137620,108616
137540,108633
137552,108595
137504,108629
137457,108590
137458,108548
137406,108546
137385,108564
137394,108537
137366,108566
137328,108509
137312,108544
137336,108511
137307,108564
137271,108545
137282,108531
137285,108529
137333,108547
137323,108527
137322,108555
137329,108528
137350,108532
137356,108572
137367,108526
137377,108582
137374,108541
137380,108557
137393,108592
137459,108553
137467,108591
137470,108593
137461,108551
137475,108598
137496,108623
137547,108619
137560,108656
137548,108631
137572,108615
137656,108682
137645,108661
137625,108675
137655,108645
137669,108665
137757,108681
137763,108683
137729,108720
137696,108693
137761,108677
137802,108724
137772,108711
137741,108710
137726,108686
137795,108691
137786,108730
137784,108678
137773,108692
137720,108697
137782,108705
137772,108704
137785,108715
137745,108715
137755,108686
137731,108695
137786,108717
137763,108716
137728,108666
137732,108711
137714,108688
137772,108689
137739,108697
137710,108697
137709,108662
137733,108684
137730,108706
137709,108682
137761,108691
137715,108729
137754,108679
137788,108676
137766,108700
137759,108687
137784,108726
137770,108732
137797,108727
137788,108716
137782,108713
137749,108723
137850,108717
137820,108752
137842,108717
137830,108711
137860,108713
137893,108746
137944,108767
137896,108784
137903,108725
137930,108758
137989,108770
137991,108811
137966,108778
138021,108778
137974,108808
138034,108796
138083,108784
138102,108814
138070,108815
138088,108797
138108,108872
138145,108851
138175,108850
138197,108820
138144,108881
138227,108842
138246,108883
138220,108908
138231,108845
138263,108876
138290,108872
138292,108888
138313,108893
138270,108915
138285,108920
138315,108929
138312,108915
138353,108879
138333,108906
138363,108927
138379,108945
138379,108943
138424,108912
138398,108948
138408,108932
138460,108954
138459,108982
138443,108958
138474,108944
138522,108966
138545,108965
138558,108990
138516,108984
138509,108943
138529,108972
138553,109025
138601,109001
138587,109011
138582,108992
138610,109028
138610,108992
138648,109001
138647,109002
138604,109005
138650,109021
138637,108980
138673,109008
138597,109039
138586,108976
138565,108993
138557,108961
138558,108996
138494,108940
138425,108950
138397,108937
138324,108878
138293,108886
138247,108829
138172,108837
138095,108848
138084,108792
138034,108770
137965,108798
137856,108750
137826,108722
137831,108722
137739,108709
137703,108684
137597,108642
137628,108620
137620,108677
137569,108644
137537,108613
137496,108606
137531,108607
137467,108605
137512,108619
137486,108614
137443,108592
137443,108617
137462,108603
137498,108587
137426,108623
137416,108558
137447,108603
137476,108609
137503,108591
137457,108600
137484,108566
137516,108599
137527,108590
137532,108598
137539,108591
137540,108572
137614,108650
137610,108608
137607,108629
137656,108606
137635,108657
137661,108650
137699,108691
137721,108651
137701,108651
137732,108654
137760,108653
137862,108723
137838,108738
137838,108703
137835,108705
137891,108741
137920,108719
137970,108769
137896,108709
137914,108720
137959,108757
137979,108749
137986,108759
137940,108724
137970,108736
137977,108783
138009,108763
138025,108755
137988,108757
137948,108760
138000,108716
138016,108747
137983,108748
137968,108732
137933,108755
138013,108741
137953,108794
137993,108719
137945,108714
137966,108734
138019,108763
138003,108770
137964,108748
137977,108744
137946,108759
138025,108754
138027,108780
137998,108783
137990,108728
137980,108752
138056,108781
138060,108777
137998,108792
138029,108771
138029,108782
138059,108773
138090,108798
138063,108780
138084,108757
138055,108751
138143,108814
138151,108829
138154,108804
138162,108822
138132,108840
138206,108851
138190,108848
138200,108847
138223,108847
138229,108833
138271,108868
138310,108873
138305,108868
138308,108867
138286,108873
138342,108877
138386,108879
138351,108897
138357,108899
138407,108903
138457,108939
138418,108913
138460,108948
138459,108908
138445,108914
138517,108943
138542,108942
138527,108933
138531,108944
138520,108964
138622,108953
138625,108969
138597,109008
138583,108947
138599,108987
138652,109023
138644,109003
138661,109028
138664,108980
138676,109020
138721,108993
138746,108996
138734,109045
138709,108998
138753,109025
138765,109025
138791,109042
138829,109015
138790,109032
138824,109038
138846,109092
138852,109076
138874,109065
138874,109041
138909,109103
138925,109105
138925,109097
138920,109105
138927,109062
138980,109094
139002,109128
139013,109096
138964,109102
138956,109122
138982,109091
139006,109135
138973,109103
138953,109059
138904,109062
138827,109096
138819,109005
138789,109039
138696,108986
138638,108981
138609,108946
138526,108952
138463,108906
138439,108891
138355,108861
138320,108866
138242,108826
138222,108810
138142,108820
138067,108777
138025,108770
138011,108731
138000,108738
137904,108730
137874,108713
137904,108697
137849,108709
137850,108685
137811,108703
137761,108664
137795,108658
137844,108689
137791,108684
137786,108675
137749,108683
137765,108699
137783,108672
137807,108658
137775,108682
137743,108676
137813,108662
137838,108680
137802,108725
137801,108646
137814,108703
137828,108683
137857,108703
137841,108719
137897,108688
137871,108730
137908,108729
137921,108751
137906,108740
137952,108691
137986,108741
137963,108783
138027,108773
138041,108790
138068,108780
138065,108778
138075,108766
138134,108778
138124,108809
138115,108798
138119,108805
138149,108824
138172,108802
138208,108823
138163,108797
138201,108806
138231,108831
138223,108849
138190,108815
138232,108815
138206,108822
138214,108838
138242,108868
138207,108812
138209,108815
138196,108836
138219,108814
138197,108831
138233,108851
138194,108822
138168,108810
138254,108829
138242,108835
138179,108811
138195,108819
138147,108803
138188,108829
138198,108790
138236,108827
138171,108826
138183,108811
138202,108796
138248,108832
138187,108847
138183,108835
138199,108828
138252,108861
138236,108847
138243,108803
138270,108861
138271,108827
138334,108852
138342,108863
138306,108881
138313,108836
138309,108867
138393,108880
138442,108881
138410,108908
138416,108867
138445,108908
138424,108888
138484,108909
138496,108908
138447,108890
138520,108916
138521,108961
138529,108918
138537,108969
138538,108931
138565,108925
138631,108986
138638,108979
138640,108942
138620,108963
138660,108969
138705,109002
138730,108990
138765,109008
138732,108952
138771,109014
138825,109015
138854,109036
138827,109029
138808,109006
138879,109043
138890,109079
138878,109063
138879,109045
138878,109017
138966,109089
138917,109059
138960,109088
138985,109066
138943,109082
138946,109073
139042,109093
139071,109122
139039,109098
139021,109102
139081,109115
139089,109120
139130,109107
139104,109143
139083,109104
139155,109168
139172,109151
139212,109129
139183,109187
139172,109129
139187,109176
139275,109177
139255,109206
139223,109141
139252,109183
139256,109192
139291,109203
139287,109184
139257,109180
139204,109154
139233,109139
139211,109155
139189,109141
139110,109105
139072,109112
139059,109102
139024,109055
138971,109058
138879,108991
138828,108980
138812,109005
138772,108985
138720,108939
138653,108940
138606,108916
138561,108908
138548,108882
138496,108889
138407,108850
138373,108834
138362,108848
138362,108816
138339,108850
138264,108769
138285,108798
138250,108820
138238,108793
138245,108802
138197,108767
138178,108752
138237,108804
138210,108769
138189,108778
138198,108766
138160,108755
138182,108815
138211,108744
138243,108810
138194,108741
138198,108760
138220,108758
138298,108811
138253,108823
138232,108777
138229,108808
138300,108808
138327,108825
138324,108850
138304,108786
138285,108828
138361,108849
138408,108832
138375,108873
138361,108806
138404,108847
138452,108897
138487,108856
138452,108859
138466,108846
138456,108878
138509,108863
138553,108916
138545,108886
138566,108892
138573,108892
138593,108950
138596,108918
138661,108917
138610,108911
138637,108913
138668,108944
138673,108942
138624,108912
138625,108915
138640,108915
138624,108924
138650,108916
138668,108912
138604,108912
138629,108947
138616,108926
138622,108938
138629,108891
138568,108899
138599,108920
138627,108935
138626,108933
138663,108922
138602,108916
138603,108917
138651,108888
138669,108920
138623,108936
138601,108880
138645,108907
138639,108946
138682,108936
138684,108927
138664,108898
138657,108931
138711,108922
138740,108934
138694,108978
138715,108948
138709,108938
138794,108972
138763,108977
138781,108921
138746,108975
138773,108959
138866,108980
138814,108964
138850,108990
138795,108985
138850,108979
138880,108982
138962,109012
138935,109014
138875,109006
138922,108984
139007,109054
139038,109018
139006,109022
139017,109015
139059,109060
139057,109047
139086,109041
139116,109065
139084,109040
139084,109085
139155,109066
139187,109095
139145,109104
139143,109076
139168,109089
139207,109104
139240,109113
139214,109119
139228,109092
139246,109126
139329,109123
139283,109121
139290,109120
139296,109116
139321,109141
139359,109135
139392,109150
139375,109111
139363,109129
139410,109196
139444,109175
139448,109160
139474,109150
139421,109192
139453,109170
139505,109187
139492,109198
139497,109236
139470,109226
139478,109181
139532,109217
139549,109188
139545,109219
139534,109190
139588,109229
139626,109231
139577,109200
139592,109236
139557,109215
139604,109233
139566,109215
139525,109195
139520,109176
139442,109163
139465,109154
139420,109185
139379,109129
139297,109094
139247,109112
139223,109075
139180,109085
139142,109060
139083,109024
138986,109010
139013,109039
138997,108986
138943,108968
138847,108947
138852,108959
138871,108965
138842,108964
138782,108931
138759,108914
138719,108907
138757,108895
138754,108907
138736,108943
138707,108864
138689,108896
138711,108903
138722,108890
138724,108893
138677,108907
138689,108898
138735,108917
138750,108899
138783,108921
138710,108881
138732,108912
138777,108920
138801,108928
138808,108939
138784,108924
138794,108943
138820,108904
138817,108909
138840,108943
138821,108918
138841,108930
138895,108978
138891,108967
138882,108963
138896,108972
138881,108957
138989,108971
138997,108984
138971,108999
138953,108964
138990,108999
138996,108995
139044,108994
139081,108993
139046,109009
139067,109006
139077,109033
139072,109047
139086,109006
139087,108978
139099,109010
139119,109048
139132,109021
139123,109050
139050,109007
139082,109006
139127,109032
139107,109022
139092,109015
139041,109009
139045,108999
139115,109020
139094,109003
139084,109025
139013,108994
139004,108968
139045,108997
138986,108978
138990,108961
138954,108941
138983,108929
138972,108998
138997,108965
138988,108929
138960,108953
138950,108939
138993,108958
138984,108967
138974,108942
138963,108932
139005,108995
139006,108951
139047,108985
139020,108986
138967,108957
139044,108962
139046,108980
139044,108986
139044,108990
139052,108970
139035,108976
139118,108982
139120,109001
139086,108969
139076,108980
139104,108979
139160,109020
139163,109010
139120,109040
139096,108967
139169,108987
139187,109035
139212,109044
139203,109009
139202,109015
139218,109050
139223,109056
139275,109051
139223,109037
139223,109021
139300,109049
139305,109075
139336,109061
139309,109068
139271,109041
139362,109048
139358,109097
139371,109068
139394,109045
139377,109079
139379,109103
139440,109092
139441,109065
139425,109132
139405,109070
139487,109109
139497,109115
139513,109136
139497,109104
139481,109103
139495,109158
139520,109137
139507,109130
139549,109150
139521,109107
139552,109149
139563,109129
139589,109161
139567,109099
139547,109116
139614,109169
139616,109135
139632,109159
139590,109127
139627,109139
139639,109204
139677,109184
139693,109193
139695,109189
139658,109181
139738,109188
139728,109219
139682,109161
139687,109186
139615,109142
139695,109194
139650,109165
139599,109143
139559,109084
139478,109092
139506,109124
139448,109103
139382,109050
139327,109039
139309,109028
139308,109032
139273,109015
139182,108995
139165,108966
139130,108983
139102,108956
139104,108968
139019,108972
139006,108916
138958,108906
139003,108921
138978,108933
138924,108880
138911,108902
138895,108882
138882,108906
138885,108873
138902,108875
138874,108855
138857,108865
138849,108880
138887,108874
138890,108896
138836,108863
138829,108861
138918,108870
138879,108848
138930,108884
138861,108872
138852,108853
138916,108859
138950,108900
138937,108903
138887,108870
138911,108880
138990,108893
138976,108877
139024,108922
138998,108882
138982,108912
139033,108905
139037,108926
139018,108909
139004,108916
139023,108889
139101,108948
139092,108952
139046,108926
139065,108931
139099,108949
139146,108932
139137,108946
139097,108937
139123,108939
139112,108913
139154,108936
139115,108945
139149,108921
139114,108923
139108,108960
139123,108947
139139,108928
139122,108904
139122,108931
139083,108954
139114,108913
139097,108946
139112,108919
139065,108907
139039,108937
139094,108905
139091,108948
139053,108935
139022,108911
139027,108883
139077,108910
139068,108939
139036,108879
139005,108856
139033,108900
139074,108917
139023,108903
139032,108867
139027,108895
139070,108911
139051,108877
139078,108914
139023,108896
139004,108867
139048,108916
139056,108891
139037,108908
139050,108920
138981,108879
139068,108874
139067,108924
139087,108905
139102,108913
139067,108921
139123,108905
139143,108946
139161,108919
139151,108887
139146,108917
139149,108926
139180,108928
139233,108951
139189,108911
139198,108930
139211,108974
139229,108965
139258,108926
139261,108945
139222,108961
139256,108971
139301,108992
139286,108945
139337,108987
139291,108999
139332,108975
139352,108993
139395,108984
139329,108952
139327,108966
139398,109012
139407,109028
139359,108997
139380,109005
139384,108976
139444,109042
139443,109012
139449,109006
139448,109034
139431,109023
139485,109026
139471,109031
139481,109050
139462,109004
139475,109012
139527,109067
139581,109037
139571,109069
139508,109045
139501,109021
139583,109071
139600,109067
139561,109070
139571,109031
139618,109034
139631,109085
139638,109090
139668,109061
139637,109075
139599,109057
139654,109076
139699,109077
139698,109082
139664,109069
139694,109072
139680,109131
139690,109086
139695,109068
139616,109094
139608,109061
139639,109085
139585,109055
139557,109014
139508,109015
139463,109001
139465,108988
139435,108993
139325,108961
139293,108925
139220,108923
139204,108936
139203,108905
139091,108895
139051,108854
139028,108866
139007,108826
138981,108829
138906,108819
138877,108785
138804,108801
138845,108759
138796,108788
138807,108745
138727,108748
138757,108741
138736,108766
138717,108736
138715,108757
138666,108734
138672,108729
138726,108764
138714,108746
138706,108718
138717,108739
138673,108727
138751,108749
138751,108769
138715,108735
138694,108716
138708,108730
138775,108760
138776,108756
138752,108758
138758,108721
138754,108787
138790,108765
138791,108759
138815,108744
138813,108751
138799,108792
138828,108769
138866,108796
138821,108803
138840,108747
138872,108799
138843,108778
138894,108786
138922,108789
138863,108769
138891,108795
138961,108810
138898,108790
138944,108801
138921,108780
138905,108775
138955,108835
138964,108798
138914,108797
138881,108769
138927,108815
138923,108810
138979,108819
138950,108781
138865,108776
138923,108809
138925,108783
138920,108791
138907,108767
138860,108762
138878,108758
138891,108772
138858,108782
138872,108742
138860,108778
138861,108769
138874,108733
138875,108774
138864,108762
138802,108743
138856,108799
138830,108766
138876,108779
138856,108752
138815,108737
138874,108778
138901,108766
138861,108774
138897,108743
138882,108738
138924,108761
138928,108792
138920,108794
138944,108765
138923,108765
138955,108793
138949,108757
138988,108752
138925,108805
138923,108773
138958,108768
139000,108791
139035,108784
138987,108816
138928,108789
139022,108834
139028,108828
139065,108808
139072,108823
139018,108841
139057,108849
139090,108814
139139,108834
139087,108822
139084,108831
139121,108812
139177,108838
139150,108877
139157,108795
139159,108848
139190,108888
139174,108857
139179,108816
139160,108860
139172,108840
139212,108897
139225,108855
139258,108857
139196,108856
139220,108861
139240,108887
139257,108889
139245,108910
139279,108868
139240,108869
139289,108896
139315,108904
139296,108906
139313,108904
139268,108881
139371,108913
139370,108940
139324,108883
139302,108917
139325,108904
139357,108925
139380,108911
139415,108928
139378,108905
139338,108945
139370,108901
139432,108929
139403,108955
139394,108929
139355,108939
139455,108942
139468,108971
139424,108915
139377,108938
139386,108909
139420,108929
139386,108920
139370,108937
139350,108883
139302,108897
139271,108853
139226,108860
139212,108847
139142,108822
139080,108819
139109,108808
139048,108790
138975,108754
138888,108718
138890,108723
138826,108733
138845,108697
138815,108744
138735,108672
138740,108698
138719,108706
138699,108635
138669,108678
138619,108648
138591,108650
138648,108653
138622,108662
138577,108642
138554,108585
138599,108639
138565,108631
138577,108642
138595,108599
138561,108621
138537,108596
138619,108640
138589,108649
138600,108599
138573,108591
138575,108657
138607,108626
138637,108605
138624,108632
138609,108642
138656,108682
138628,108673
138624,108627
138660,108670
138643,108640
138648,108652
138715,108681
138671,108676
138711,108658
138676,108637
138704,108669
138747,108676
138735,108645
138740,108699
138734,108661
138758,108692
138810,108708
138807,108706
138807,108701
138754,108693
138782,108702
138841,108711
138839,108699
138838,108703
138768,108702
138827,108721
138849,108700
138838,108697
138814,108708
138769,108677
138816,108683
138818,108700
138801,108660
138813,108717
138759,108696
138784,108706
138785,108686
138829,108650
138758,108709
138718,108662
138800,108669
138767,108699
138740,108673
138792,108668
138716,108667
138750,108704
138778,108660
138767,108688
138760,108641
138750,108652
138775,108680
138789,108707
138776,108682
138780,108666
138708,108667
138756,108679
138784,108700
138796,108667
138801,108686
138770,108672
138789,108662
138854,108673
138836,108715
138826,108651
138832,108682
138826,108687
138871,108702
138914,108730
138845,108664
138844,108704
138946,108708
138922,108738
138919,108695
138915,108728
138927,108706
138963,108743
138967,108732
138985,108722
138949,108694
138957,108727
138989,108746
139057,108773
139014,108716
139011,108733
139024,108730
139031,108756
139091,108744
139098,108788
139061,108772
139052,108749
139122,108789
139140,108801
139123,108752
139086,108781
139090,108784
139152,108760
139203,108797
139131,108781
139112,108788
139136,108778
139192,108824
139169,108812
139186,108768
139145,108766
139170,108783
139205,108805
139239,108812
139197,108823
139183,108800
139183,108808
139262,108826
139236,108843
139231,108819
139213,108833
139222,108789
139305,108832
139300,108863
139272,108815
139262,108773
139255,108846
139294,108832
139311,108817
139267,108849
139271,108798
139293,108809
139326,108851
139278,108830
139284,108796
139230,108831
139173,108795
139221,108792
139173,108771
139150,108778
139080,108774
139003,108723
139007,108737
139014,108703
138944,108725
138848,108658
138868,108665
138867,108700
138802,108633
138758,108637
138694,108629
138699,108595
138729,108600
138679,108642
138620,108591
138587,108575
138592,108594
138565,108585
138571,108547
138568,108597
138530,108543
138545,108566
138598,108546
138571,108585
138574,108559
138547,108558
138561,108576
138577,108560
138621,108579
138570,108561
138526,108531
138610,108583
138604,108574
138658,108552
138625,108547
138619,108567
138616,108593
138667,108562
138667,108587
138620,108545
138614,108546
138657,108568
138699,108627
138680,108602
138656,108595
138671,108595
138699,108632
138730,108621
138724,108568
138751,108626
138738,108618
138734,108597
138783,108627
138820,108622
138791,108648
138768,108616
138788,108650
138816,108656
138873,108646
138809,108639
138778,108627
138864,108628
138848,108645
138882,108670
138874,108646
138819,108667
138841,108608
138879,108653
138829,108648
138836,108639
138765,108613
138826,108658
138812,108628
138836,108644
138812,108613
138757,108601
138764,108631
138816,108612
138808,108612
138733,108622
138732,108596
138776,108619
138782,108610
138784,108653
138757,108595
138741,108605
138783,108632
138752,108623
138759,108655
138727,108585
138791,108596
138769,108655
138845,108638
138793,108646
138815,108610
138744,108603
138841,108651
138813,108622
138813,108624
138856,108609
138809,108626
138861,108638
138832,108647
138874,108627
138881,108648
138827,108635
138883,108688
138882,108636
138938,108638
138880,108663
138891,108636
138963,108685
138948,108651
138970,108671
138926,108684
138919,108646
138950,108673
139010,108683
138979,108665
138987,108679
139014,108687
138980,108700
139029,108689
139034,108693
139010,108678
139017,108700
139069,108703
139082,108677
139100,108708
139072,108707
139046,108706
139108,108718
139122,108721
139112,108735
139079,108697
139120,108733
139144,108728
139136,108730
139178,108768
139135,108749
139175,108750
139220,108772
139191,108752
139229,108739
139187,108734
139190,108758
139248,108741
139238,108753
139264,108779
139196,108766
139269,108767
139282,108775
139328,108797
139277,108743
139259,108755
139260,108804
139347,108764
139325,108772
139326,108767
139264,108781
139254,108751
139305,108786
139243,108788
139227,108768
139206,108729
139155,108759
139167,108731
139147,108706
139116,108721
139034,108674
139009,108633
139016,108683
139005,108646
138917,108645
138850,108603
138880,108623
138851,108630
138856,108626
138803,108626
138746,108555
138807,108587
138808,108584
138771,108585
138779,108580
138740,108591
138721,108556
138726,108606
138759,108557
138779,108586
138703,108601
138736,108555
138771,108555
138764,108581
138751,108551
138720,108569
138767,108547
138774,108581
138797,108577
138803,108581
138783,108568
138780,108619
138818,108593
138847,108605
138793,108587
138795,108565
138848,108574
138875,108588
138880,108598
138833,108613
138824,108561
138901,108619
138907,108590
138933,108598
138898,108644
138864,108598
138960,108633
139013,108669
138993,108621
138972,108648
138919,108634
139023,108608
139034,108656
138994,108670
139025,108621
138945,108624
139014,108669
139014,108669
139034,108626
139003,108646
138953,108617
139031,108653
139022,108641
139027,108602
139012,108635
139009,108632
139016,108614
139065,108643
139006,108657
138981,108628
138984,108611
139002,108638
139047,108641
139002,108630
138987,108619
139003,108619
139040,108622
139013,108636
138992,108627
139011,108646
139005,108626
139013,108648
139048,108626
139073,108635
139044,108632
139009,108637
139070,108666
139082,108645
139055,108640
139084,108643
139054,108639
139079,108644
139124,108662
139114,108678
139104,108645
139066,108661
139118,108663
139161,108677
139145,108669
139121,108660
139141,108682
139171,108675
139188,108662
139191,108679
139204,108694
139190,108702
139239,108703
139267,108706
139252,108690
139244,108698
139232,108695
139285,108716
139283,108726
139304,108721
139297,108731
139301,108724
139309,108744
139316,108747
139375,108745
139320,108724
139299,108725
139358,108776
139376,108744
139373,108781
139336,108721
139387,108744
139430,108751
139412,108761
139446,108777
139425,108751
139384,108766
139462,108773
139490,108761
139522,108768
139447,108776
139442,108753
139536,108816
139539,108794
139511,108765
139495,108759
139534,108802
139569,108797
139571,108808
139591,108820
139505,108773
139593,108799
139595,108787
139620,108834
139603,108797
139570,108785
139573,108843
139602,108836
139613,108807
139628,108847
139625,108808
139609,108814
139627,108852
139636,108784
139558,108788
139525,108784
139519,108782
139540,108768
139512,108755
139450,108749
139418,108731
139389,108738
139400,108731
139411,108755
139364,108710
139255,108702
139328,108698
139310,108703
139292,108696
139300,108685
139204,108690
139250,108697
139260,108683
139261,108673
139261,108661
139190,108661
139259,108678
139289,108674
139247,108661
139279,108680
139234,108677
139263,108691
139301,108687
139272,108690
139294,108686
139263,108669
139328,108703
139345,108684
139349,108696
139363,108709
139305,108703
139349,108714
139408,108715
139421,108705
139395,108725
139383,108717
139417,108728
139454,108735
139447,108728
139449,108725
139416,108706
139466,108735
139454,108739
139491,108756
139499,108747
139457,108747
139525,108747
139521,108772
139549,108771
139530,108746
139492,108768
139550,108774
139568,108758
139590,108785
139585,108774
139528,108753
139604,108775
139633,108760
139579,108752
139587,108773
139563,108759
139569,108748
139611,108788
139586,108760
139579,108764
139560,108748
139594,108774
139626,108774
139572,108751
139564,108750
139564,108750
139570,108766
139629,108774
139600,108742
139552,108744
139536,108744
139626,108757
139574,108770
139605,108751
139575,108772
139580,108740
139627,108787
139633,108754
139642,108775
139589,108752
139577,108769
139646,108765
139679,108781
139637,108787
139634,108756
139642,108764
139668,108799
139696,108782
139717,108777
139701,108771
139700,108804
139707,108802
139726,108786
139783,108821
139707,108789
139719,108783
139770,108835
139732,108846
139789,108789
139760,108788
139733,108799
139808,108821
139824,108854
139796,108795
139759,108806
139779,108826
139830,108801
139839,108830
139841,108824
139855,108825
139847,108815
139891,108830
139923,108858
139901,108830
139879,108823
139880,108888
139945,108850
139947,108867
139912,108840
139930,108828
139900,108898
139960,108878
139943,108874
139952,108865
139962,108834
139951,108885
140016,108863
139998,108859
140016,108875
139965,108866
139999,108865
140042,108886
140040,108905
140031,108881
140061,108880
140032,108904
140058,108924
140065,108867
140103,108926
140050,108873
140070,108899
140104,108904
140154,108902
140083,108909
140079,108900
140115,108891
140145,108920
140134,108903
140159,108938
140087,108900
140145,108940
140134,108903
140144,108887
140156,108904
140105,108903
140077,108900
140140,108889
140085,108921
140067,108863
139994,108867
140033,108882
140004,108876
140028,108868
139964,108831
139905,108813
139932,108836
139894,108831
139871,108786
139905,108843
139813,108783
139873,108829
139871,108807
139854,108788
139821,108813
139809,108777
139804,108812
139818,108790
139885,108828
139870,108781
139829,108810
139881,108794
139891,108815
139871,108845
139865,108799
139849,108796
139872,108820
139915,108833
139938,108843
139927,108790
139908,108814
139920,108827
139939,108804
140002,108855
139951,108834
139911,108827
139967,108860
139989,108859
140037,108847
139998,108823
139999,108824
140044,108880
140026,108863
140062,108865
140067,108863
140016,108893
140059,108843
140097,108877
140069,108854
140051,108855
140091,108900
140089,108888
140139,108871
140126,108894
140088,108847
140128,108877
140095,108914
140133,108889
140181,108902
140156,108861
140130,108883
140146,108873
140203,108874
140186,108920
140168,108887
140114,108896
140180,108876
140200,108900
140163,108880
140148,108900
140140,108863
140184,108892
140211,108896
140178,108889
140105,108867
140128,108879
140189,108884
140188,108894
140157,108910
140151,108885
140118,108873
140174,108867
140193,108893
140214,108896
140147,108882
140134,108882
140223,108886
140230,108897
140184,108886
140187,108883
140183,108858
140242,108897
140247,108918
140198,108888
140216,108873
140180,108876
140249,108893
140286,108928
140283,108881
140277,108891
140248,108915
140316,108906
140308,108946
140258,108894
140278,108884
140291,108905
140366,108926
140336,108926
140343,108959
140288,108908
140323,108941
140357,108914
140415,108941
140378,108941
140344,108930
140375,108929
140421,108954
140410,108968
140430,108946
140361,108943
140408,108950
140440,108968
140428,108963
140473,108969
140422,108965
140435,108936
140476,108975
140476,108943
140454,108944
140441,108955
140437,108939
140507,108967
140471,108982
140520,108970
140442,108954
140528,108976
140501,109001
140536,108955
140488,108969
140481,108956
140506,108971
140530,108954
140583,109009
140540,108962
140529,108944
140538,108961
140579,109010
140553,109002
140548,109009
140534,108966
140549,109000
140561,109013
140594,108970
140576,108983
140564,108957
140566,109022
140578,108976
140640,108984
140587,108996
140597,108998
140625,109000
140627,108999
140597,109029
140589,109008
140560,108975
140609,108984
140635,109005
140612,108984
140534,108988
140524,108948
140536,108985
140512,108945
140530,108960
140479,108930
140392,108934
140411,108925
140439,108923
140385,108899
140335,108883
140293,108878
140367,108904
140353,108898
140360,108876
140309,108881
140240,108871
140293,108845
140304,108885
140288,108894
140305,108870
140235,108841
140294,108887
140279,108847
140322,108872
140333,108858
140292,108898
140343,108867
140373,108902
140388,108902
140356,108858
140334,108886
140342,108907
140390,108894
140418,108912
140370,108860
140381,108897
140444,108923
140426,108922
140443,108905
140414,108909
140431,108902
140443,108913
140486,108928
140484,108917
140460,108912
140439,108921
140490,108935
140523,108959
140498,108935
140460,108906
140495,108937
140509,108951
140553,108939
140531,108935
140526,108939
140517,108944
140527,108960
140556,108973
140527,108926
140501,108925
140547,108915
140584,108920
140617,108970
140548,108910
140541,108927
140538,108914
140569,108954
140573,108957
140559,108905
140534,108926
140530,108912
140572,108946
140545,108961
140545,108902
140505,108907
140542,108921
140513,108949
140549,108906
140526,108945
140488,108899
140502,108885
140531,108921
140547,108926
140544,108914
140485,108917
140490,108875
140505,108916
140550,108940
140516,108937
140489,108888
140548,108914
140582,108924
140529,108919
140554,108911
140554,108909
140511,108933
140567,108932
140627,108921
140603,108941
140537,108919
140592,108895
140642,108943
140598,108928
140625,108923
140609,108899
140612,108898
140665,108934
140662,108904
140653,108948
140671,108960
140639,108929
140677,108964
140694,108962
140717,108931
140674,108949
140666,108951
140716,108972
140747,108963
140751,108958
140721,108955
140713,108966
140765,108973
140781,108962
140805,108966
140742,108994
140755,108950
140830,108992
140818,109003
140779,108990
140770,108984
140833,108978
140833,109007
140830,108997
140862,108993
140838,109002
140836,108968
140871,108993
140851,109007
140830,109001
140826,108947
140852,109006
140850,108979
140871,109018
140854,109006
140810,108932
140886,109035
140896,109026
140917,109005
140896,108986
140869,109014
140869,108981
140950,109023
140910,109026
140868,108991
140846,109017
140903,108997
140935,109009
140906,109031
140893,108972
140901,108972
140916,109052
140919,109014
140907,108961
140953,108993
140898,108993
140907,109004
140945,109013
140924,108997
140914,108978
140917,108995
140902,109017
140941,109013
140896,109004
140855,108962
140842,108937
140821,108959
140825,108967
140808,108934
140787,108942
140736,108902
140724,108914
140731,108928
140695,108890
140631,108880
140626,108853
140603,108922
140618,108904
140612,108902
140554,108863
140544,108841
140628,108906
140591,108891
140639,108865
140583,108878
140562,108877
140610,108882
140587,108870
140615,108909
140568,108874
140589,108853
140622,108905
140644,108922
140683,108909
140607,108885
140638,108857
140680,108892
140680,108893
140698,108891
140675,108883
140640,108878
140705,108908
140729,108905
140702,108898
140725,108918
140648,108877
140727,108921
140726,108895
140742,108950
140699,108896
140701,108865
140723,108903
140752,108909
140758,108927
140692,108875
140739,108911
140768,108900
140759,108926
140788,108898
140754,108909
140725,108884
140824,108906
140781,108909
140794,108896
140768,108901
140749,108904
140794,108867
140800,108900
140764,108892
140722,108891
140725,108898
140770,108892
140831,108907
140813,108926
140719,108899
140728,108888
140788,108869
140785,108899
140729,108858
140739,108879
140755,108871
140749,108888
140743,108851
140724,108887
140704,108850
140695,108865
140758,108885
140763,108872
140725,108846
140730,108848
140720,108889
140756,108862
140738,108887
140710,108848
140740,108823
140727,108883
140766,108888
140796,108870
140782,108889
140713,108870
140751,108853
140790,108879
140799,108907
140768,108883
140745,108814
140781,108912
140812,108899
140830,108851
140850,108865
140775,108882
140812,108836
140839,108878
140851,108876
140845,108869
140774,108903
140805,108869
140875,108891
140871,108891
140852,108912
140781,108864
140860,108880
140882,108900
140881,108897
140860,108881
140807,108837
140894,108923
140924,108892
140912,108887
140935,108902
140845,108878
140908,108885
140912,108895
140931,108925
140913,108900
140897,108852
140904,108913
140971,108915
140952,108931
140934,108902
140903,108883
140962,108938
140945,108914
140965,108945
140910,108901
140911,108871
140945,108909
140982,108922
141013,108904
140958,108935
140903,108883
140984,108929
140973,108903
140991,108917
140949,108881
140977,108919
140972,108886
141013,108915
141000,108932
140963,108909
140957,108866
140990,108902
141039,108923
140993,108918
141020,108905
140941,108921
140990,108934
141016,108890
141033,108937
141000,108909
140971,108895
141026,108914
141066,108928
140996,108896
141004,108902
140978,108880
141007,108925
140975,108924
140984,108869
140942,108881
140916,108870
140905,108901
140883,108823
140872,108879
140790,108825
140788,108832
140790,108818
140776,108824
140775,108828
140718,108825
140688,108757
140683,108804
140712,108817
140679,108756
140676,108738
140610,108784
140683,108779
140647,108777
140665,108771
140629,108782
140655,108753
140653,108762
140692,108757
140703,108780
140657,108775
140652,108745
140698,108777
140664,108764
140683,108771
140660,108785
140646,108731
140682,108779
140705,108773
140697,108741
140718,108750
140657,108740
140727,108749
140746,108756
140701,108798
140671,108737
140691,108796
140713,108757
140766,108752
140741,108761
140731,108748
140705,108781
140724,108781
140747,108754
140763,108801
140717,108723
140753,108746
140776,108778
140815,108789
140761,108799
140736,108747
140769,108753
140799,108786
140799,108785
140797,108784
140771,108752
140742,108756
140773,108783
140815,108773
140794,108770
140751,108771
140743,108739
140808,108777
140781,108758
140791,108768
140738,108757
140704,108749
140809,108768
140790,108751
140765,108771
140719,108726
140736,108745
140740,108744
140738,108747
140755,108710
140701,108734
140717,108754
140755,108750
140710,108762
140688,108721
140684,108706
140683,108730
140707,108723
140743,108728
140702,108706
140650,108728
140700,108706
140736,108738
140710,108717
140689,108702
140691,108672
140697,108734
140722,108733
140756,108700
140707,108712
140731,108692
140739,108758
140730,108724
140787,108723
140790,108742
140711,108707
140760,108712
140770,108724
140798,108750
140771,108719
140708,108690
140788,108711
140813,108747
140766,108734
140763,108734
140761,108696
140791,108773
140809,108731
140861,108711
140821,108718
140784,108712
140838,108764
140812,108716
140853,108728
140838,108712
140783,108722
140803,108738
140871,108730
140856,108705
140824,108726
140813,108730
140844,108703
140839,108764
140861,108750
140829,108734
140815,108731
140844,108715
140914,108729
140873,108771
140854,108746
140843,108733
140910,108728
140935,108768
140895,108729
140929,108742
140855,108726
140934,108752
140933,108788
140928,108731
140940,108752
140919,108756
140919,108747
140953,108785
140936,108729
140928,108727
140927,108732
140972,108759
140967,108764
140983,108745
140943,108751
140882,108757
140950,108760
141003,108725
140968,108767
140911,108736
140895,108709
140923,108731
140969,108745
140873,108748
140854,108692
140811,108693
140876,108698
140807,108721
140773,108634
140750,108658
140686,108675
140711,108665
140671,108643
140671,108629
140598,108608
140528,108566
140587,108595
140580,108612
140546,108574
140524,108591
140462,108564
140508,108567
140507,108585
140499,108572
140448,108540
140444,108576
140472,108566
140493,108529
140488,108559
140431,108550
140483,108547
140499,108577
140459,108546
140520,108573
140453,108509
140454,108539
140466,108529
140529,108541
140477,108560
140435,108499
140451,108528
140505,108554
140499,108568
140520,108552
140440,108528
140476,108527
140507,108538
140515,108553
140518,108515
140483,108531
140467,108510
140547,108537
140523,108537
140534,108546
140491,108536
140502,108553
140527,108529
140582,108545
140519,108557
140501,108504
140518,108524
140576,108552
140569,108575
140540,108522
140489,108543
140536,108512
140578,108567
140543,108565
140519,108544
140515,108518
140518,108521
140556,108527
140510,108530
140526,108496
140498,108483
140490,108541
140533,108536
140503,108517
140529,108512
140459,108527
140464,108480
140513,108525
140510,108490
140491,108504
140439,108497
140429,108487
140460,108462
140484,108512
140439,108507
140421,108438
140446,108498
140467,108516
140501,108475
140456,108495
140425,108465
140451,108483
140482,108493
140473,108525
140444,108480
140426,108471
140441,108511
140486,108480
140450,108501
140442,108482
140473,108466
140466,108503
140519,108519
140503,108503
140479,108489
140443,108468
140495,108525
140520,108494
140533,108473
140507,108492
140498,108467
140531,108529
140508,108496
140541,108533
140535,108504
140478,108503
140547,108490
140533,108515
140587,108505
140559,108531
140522,108495
140520,108535
140572,108497
140561,108539
140544,108505
140524,108514
140565,108514
140603,108500
140566,108521
140534,108489
140543,108496
140570,108496
140565,108522
140586,108511
140564,108495
140522,108526
140577,108500
140569,108504
140612,108542
140576,108517
140573,108482
140598,108537
140558,108504
140609,108522
140609,108495
140521,108536
140560,108518
140625,108522
140631,108541
140573,108530
140558,108484
140646,108540
140626,108531
140642,108513
140652,108533
140585,108521
140618,108541
140682,108526
140665,108545
140581,108520
140624,108518
140692,108541
140665,108532
140658,108525
140649,108549
140621,108492
140670,108524
140632,108533
140629,108494
140597,108492
140512,108465
140564,108509
140522,108479
140496,108481
140450,108436
140415,108433
140390,108452
140399,108426
140386,108446
140302,108381
140254,108393
140321,108431
140240,108391
140262,108378
140218,108384
140151,108385
140165,108336
140213,108349
140139,108332
140120,108350
140105,108301
140149,108354
140141,108342
140082,108346
140055,108273
140095,108330
140116,108348
140109,108307
140083,108345
140031,108299
140074,108313
140141,108363
140114,108312
140099,108317
140062,108279
140066,108312
140094,108342
140143,108297
140129,108325
140088,108304
140070,108335
140128,108310
140163,108350
140117,108308
140067,108298
140093,108311
140156,108356
140136,108333
140169,108326
140075,108320
140131,108292
140137,108299
140174,108363
140144,108334
140075,108296
140135,108323
140192,108358
140172,108363
140174,108341
140088,108320
140150,108300
140196,108326
140197,108345
140191,108346
140104,108317
140177,108311
140182,108332
140140,108307
140176,108312
140102,108287
140104,108308
140157,108305
140156,108304
140099,108287
140080,108300
140101,108304
140124,108297
140137,108277
140120,108317
139993,108273
140086,108287
140087,108297
140115,108277
140085,108301
139979,108272
140042,108265
140095,108290
140070,108326
140044,108274
140039,108229
140073,108309
140070,108310
140065,108275
140061,108295
139990,108242
140075,108268
140037,108292
140105,108271
140045,108281
140022,108243
140034,108276
140118,108280
140082,108309
140033,108274
140041,108285
140098,108321
140068,108309
140134,108305
140086,108307
140037,108267
140096,108319
140146,108304
140120,108316
140096,108288
140036,108289
140112,108325
140140,108306
140150,108309
140111,108305
140075,108297
140168,108322
140152,108323
140183,108318
140123,108312
140135,108342
140154,108315
140191,108338
140187,108356
140155,108323
140130,108333
140193,108344
140211,108341
140221,108346
140176,108300
140144,108309
140234,108326
140238,108353
140196,108340
140190,108321
140173,108350
140211,108348
140275,108357
140240,108366
140209,108321
140167,108329
140276,108376
140266,108353
140267,108362
140205,108359
140207,108311
140288,108343
140293,108383
140268,108381
140219,108335
140243,108371
140297,108365
140309,108357
140292,108361
140255,108361
140237,108334
140311,108362
140323,108374
140282,108354
140256,108334
140258,108340
140283,108390
140240,108372
140199,108325
140142,108337
140115,108313
140157,108335
140102,108320
140068,108284
140042,108261
139934,108243
139994,108260
139943,108255
139929,108232
139874,108235
139784,108180
139845,108207
139836,108197
139800,108189
139729,108156
139686,108173
139765,108183
139725,108161
139733,108163
139625,108163
139657,108157
139659,108197
139699,108194
139680,108177
139633,108135
139675,108153
139640,108172
139677,108153
139648,108132
139650,108140
139621,108159
139694,108166
139680,108162
139691,108151
139614,108164
139663,108142
139707,108154
139710,108184
139651,108168
139624,108109
139667,108166
139744,108173
139704,108155
139709,108180
139647,108162
139712,108174
139700,108191
139758,108221
139697,108170
139699,108162
139714,108168
139774,108210
139765,108188
139772,108186
139664,108165
139752,108195
139769,108224
139807,108212
139794,108225
139711,108157
139754,108204
139791,108200
139773,108189
139768,108172
139758,108204
139737,108203
139769,108208
139807,108211
139758,108202
139673,108184
139753,108187
139818,108214
139774,108205
139747,108195
139706,108169
139692,108167
139728,108229
139717,108188
139724,108174
139637,108180
139678,108180
139743,108198
139702,108171
139701,108197
139646,108159
139707,108174
139674,108190
139720,108184
139713,108180
139632,108191
139664,108209
139692,108180
139731,108184
139695,108172
139666,108202
139700,108173
139758,108219
139768,108167
139693,108209
139678,108179
139782,108183
139770,108236
139743,108220
139722,108201
139712,108195
139782,108195
139770,108230
139764,108226
139785,108236
139759,108199
139829,108241
139860,108240
139835,108279
139788,108252
139772,108221
139824,108260
139876,108230
139875,108258
139831,108252
139834,108211
139881,108266
139883,108290
139897,108282
