11111,11111
0,0
82299,82255
116318,115272
116355,115263
116381,115261
116398,115269
116484,115296
116493,115327
116531,115360
116531,115355
116559,115380
116575,115340
116614,115367
116518,115322
116458,115274
116336,115216
116220,115124
116086,115040
115850,114922
115694,114826
115514,114736
115249,114612
115108,114518
114867,114449
114673,114307
114482,114227
114275,114123
114057,114070
113846,113961
113701,113880
113492,113801
113345,113725
113208,113649
113023,113591
112865,113518
112778,113491
112649,113402
112559,113375
112512,113345
112388,113305
112375,113296
112292,113236
112267,113245
112210,113232
112186,113206
112163,113213
112192,113184
112228,113223
112186,113210
112222,113239
112259,113274
112299,113270
112300,113262
112365,113288
112417,113332
112445,113346
112481,113381
112546,113443
112633,113411
112692,113479
112701,113474
112793,113520
112857,113581
112909,113536
112974,113609
113015,113606
113094,113665
113136,113700
113137,113714
113219,113736
113214,113745
113278,113781
113310,113799
113348,113787
113415,113823
113412,113820
113454,113852
113522,113853
113534,113897
113542,113882
113580,113890
113634,113896
113662,113953
113659,113916
113733,113979
113749,113977
113803,113985
113809,114021
113776,113987
113832,114026
113813,114032
113837,114029
113878,114009
113842,114050
113867,114033
113837,114037
113827,114010
113857,114022
113809,114005
113832,113971
113779,114003
113800,113962
113780,114010
113726,113951
113769,113947
113732,113984
113670,113911
113700,113930
113669,113935
113643,113953
113677,113919
113691,113939
113699,113916
113652,113970
113628,113904
113697,113949
113676,113928
113693,113976
113701,113916
113746,113960
113728,113973
113785,113976
113779,114018
113822,114021
113871,114023
114726,114522
115452,114872
115483,114856
115938,115078
115933,115066
115949,115094
112313,113261
112133,113224
112025,113142
111887,113089
111362,112824
111396,112799
111414,112826
111461,112846
111427,112829
111457,112806
111474,112871
111549,112845
111561,112885
111584,112919
111598,112873
111610,112922
111638,112913
111694,112935
111694,112935
111763,112949
111765,112954
111810,112956
111780,112996
111835,113003
111830,113014
111913,113012
111944,113085
111961,113025
112010,113069
112047,113091
112065,113108
112090,113077
112153,113153
112172,113149
112259,113175
112250,113216
112313,113211
112404,113291
112432,113277
112457,113281
112546,113364
112570,113338
112626,113392
112642,113395
112712,113429
112721,113428
112753,113460
112806,113468
112822,113493
112808,113483
112852,113519
112892,113508
112871,113519
112909,113531
112913,113532
112888,113520
112915,113552
112923,113540
112928,113571
112911,113540
112935,113543
112882,113565
112912,113589
112881,113529
112933,113576
112897,113549
112892,113583
112920,113569
112886,113579
112914,113573
112909,113573
112945,113608
112977,113609
112981,113630
112974,113654
112986,113636
113007,113635
113048,113666
113044,113672
113100,113679
113089,113707
113108,113671
113152,113732
113181,113757
113230,113772
113233,113754
113330,113776
113318,113842
113381,113825
113437,113859
113505,113899
113565,113914
113593,113961
113700,113977
113772,114002
113834,114071
113871,114095
113982,114134
114047,114181
114085,114201
114181,114196
114247,114280
114334,114347
114412,114356
114464,114405
114531,114382
114621,114412
114668,114474
114730,114478
114791,114530
114840,114572
114900,114565
114919,114599
114999,114614
115055,114653
115070,114658
115108,114676
115155,114691
115212,114700
115232,114731
115283,114745
115301,114797
115308,114791
115398,114779
115412,114831
115453,114819
115518,114851
115526,114899
115538,114879
115638,114918
115655,114948
115679,114926
115730,114995
115740,115011
115801,114958
115868,115028
115870,115069
115912,115057
115972,115069
115987,115114
116007,115120
116079,115138
116122,115119
116164,115191
116200,115212
116214,115218
116265,115209
116298,115279
116285,115240
116366,115259
116361,115278
116457,115315
116428,115333
116478,115317
116540,115392
116556,115378
116623,115389
116685,115422
116681,115458
116704,115423
116773,115485
116813,115486
116837,115511
116888,115519
116897,115534
116895,115540
116902,115499
116826,115503
116799,115448
116694,115412
116520,115363
116358,115224
116210,115168
116006,115071
115776,114947
115600,114847
115426,114794
115195,114691
115052,114566
114857,114500
114670,114422
114456,114328
114307,114269
114152,114182
113976,114076
113822,114016
113675,113975
113515,113865
113419,113822
113268,113763
113227,113718
113096,113688
113074,113669
112975,113625
112914,113593
112853,113566
112863,113579
112804,113567
112780,113523
112760,113509
112783,113515
112758,113553
112773,113514
112818,113555
112828,113564
112855,113550
112836,113570
112881,113546
112938,113606
112963,113625
112974,113627
113002,113609
113074,113640
113082,113705
113134,113664
113177,113715
113192,113725
113264,113744
113255,113794
113344,113783
113407,113830
113428,113859
113471,113846
113498,113868
113553,113897
113558,113896
113656,113922
113683,113958
113720,113972
113734,114000
113796,113992
113878,114048
113889,114043
113947,114103
114007,114112
114088,114166
114099,114135
114183,114211
114212,114233
114283,114235
114333,114266
114400,114313
114416,114323
114491,114342
114519,114357
114605,114379
114594,114368
114615,114398
114697,114426
114704,114439
114678,114410
114739,114450
114736,114446
114734,114472
114755,114449
114747,114469
114722,114450
114716,114435
114743,114448
114695,114414
114719,114396
114685,114437
114711,114403
114695,114392
114706,114435
114666,114403
114707,114426
114713,114429
114710,114424
114719,114408
114725,114415
114739,114455
114721,114443
114778,114434
114782,114484
114787,114491
114836,114486
114837,114509
114871,114486
114923,114564
114934,114530
114993,114522
115036,114583
115056,114608
115082,114601
115151,114609
115155,114649
115198,114680
115279,114674
115293,114714
115341,114715
115378,114785
115415,114784
115462,114795
115526,114843
115583,114842
115587,114909
115637,114876
115717,114943
115767,114935
115779,114945
115797,114978
115851,114964
115898,115027
115934,115017
116005,115060
115982,115061
116030,115055
116100,115132
116106,115100
116124,115141
116193,115145
116209,115150
116233,115181
116248,115205
116274,115167
116284,115211
116333,115209
116345,115220
116388,115244
116434,115242
116406,115261
116434,115304
116467,115307
116494,115293
116489,115313
116535,115332
116553,115339
116544,115343
116594,115357
116587,115362
116616,115352
116653,115338
116689,115390
116672,115399
116710,115404
116735,115399
116748,115407
116744,115430
116794,115441
116815,115464
116850,115467
116852,115465
116899,115481
116880,115487
116950,115489
116925,115531
116933,115527
116965,115484
116980,115531
116903,115498
116848,115455
116748,115417
116636,115326
116523,115263
116334,115223
116153,115082
115996,115032
115802,114951
115596,114812
115448,114740
115206,114633
115071,114576
114816,114493
114687,114384
114470,114318
114343,114201
114146,114145
113984,114053
113802,114023
113668,113920
113560,113875
113435,113804
113308,113761
113266,113695
113144,113703
113056,113626
113022,113611
112935,113585
112927,113584
112846,113569
112846,113532
112842,113516
112835,113499
112817,113535
112784,113520
112850,113526
112827,113516
112833,113527
112846,113512
112839,113564
112907,113539
112890,113553
112907,113544
112966,113570
112978,113597
113025,113611
113026,113617
113038,113627
113073,113612
113143,113645
113135,113672
113182,113702
113216,113683
113232,113708
113282,113722
113324,113744
113328,113776
113378,113788
113432,113818
113435,113830
113462,113833
113532,113864
113561,113868
113609,113911
113665,113936
113672,113924
113786,113991
113789,113999
113858,114031
113868,114018
113952,114080
113967,114081
114029,114107
114086,114145
114100,114138
114160,114192
114170,114164
114207,114167
114251,114198
114259,114200
114250,114226
114302,114224
114313,114229
114285,114257
114300,114214
114285,114214
114273,114219
114274,114208
114245,114225
114233,114197
114238,114208
114252,114183
114245,114200
114184,114206
114193,114138
114139,114179
114179,114153
114144,114161
114151,114139
114178,114165
114130,114127
114193,114167
114167,114183
114183,114149
114143,114187
114203,114177
114193,114185
114199,114199
114225,114178
114263,114191
114260,114221
114313,114248
114317,114242
114329,114240
114389,114274
114404,114281
114427,114301
114466,114299
114455,114288
114526,114349
114527,114324
114571,114383
114592,114348
114624,114367
114677,114392
114680,114431
114697,114421
114752,114411
114782,114444
114837,114463
114849,114515
114864,114501
114917,114523
114947,114503
114986,114530
114968,114544
115015,114535
115028,114599
115052,114588
115120,114605
115138,114606
115176,114662
115179,114669
115220,114640
115273,114690
115278,114670
115309,114684
115310,114713
115351,114718
115363,114784
115405,114764
115427,114746
115500,114788
115472,114813
115506,114786
115543,114799
115566,114820
115594,114838
115619,114873
115600,114847
115648,114881
115686,114878
115653,114896
115712,114892
115728,114930
115769,114936
115801,114927
115803,114959
115872,114974
115838,114935
115916,114989
115887,115033
115923,114985
115982,115012
115950,115048
116003,115033
116045,115063
116064,115028
116056,115063
116071,115046
116012,115072
115989,115036
115888,114972
115839,114922
115741,114886
115585,114835
115444,114724
115263,114640
115097,114588
114933,114498
114723,114401
114492,114300
114310,114193
114082,114089
113889,113990
113698,113881
113459,113785
113311,113703
113091,113613
112887,113497
112702,113426
112600,113377
112423,113262
112296,113207
112178,113184
112037,113080
111997,113045
111861,113042
111799,112965
111742,112968
111692,112910
111647,112888
111624,112868
111588,112863
111583,112836
111535,112866
111546,112810
111585,112815
111525,112824
111552,112822
111590,112835
111590,112815
111587,112866
111584,112843
111665,112872
111653,112871
111661,112871
111699,112864
111717,112903
111724,112901
111732,112909
111808,112953
111776,112931
111834,112936
111843,112957
111842,112944
111895,112969
111909,113005
111917,112959
111978,113018
112014,113017
112011,112987
112063,113047
112064,113037
112147,113073
112147,113112
112166,113080
112247,113099
112256,113104
112299,113166
112321,113147
112396,113179
112433,113204
112485,113219
112544,113256
112552,113273
112651,113295
112632,113323
112717,113333
112736,113329
112772,113381
112779,113410
112816,113406
112873,113392
112871,113447
112866,113427
112945,113478
112919,113450
112911,113420
112967,113455
112914,113449
112934,113473
112955,113429
112927,113446
112929,113466
112907,113424
112930,113457
112936,113460
112908,113441
112917,113411
112890,113453
112884,113399
112922,113448
112905,113434
112924,113412
112952,113434
112902,113457
112964,113471
112954,113457
112935,113462
112971,113458
113025,113497
113003,113489
113045,113501
113083,113525
113069,113564
113123,113571
113136,113553
113219,113566
113208,113596
113254,113617
113271,113649
113327,113652
113391,113672
113358,113666
113441,113683
113461,113727
113515,113744
113540,113718
113570,113771
113583,113766
113641,113804
113650,113783
113719,113825
113729,113860
113785,113880
113796,113895
113827,113875
113895,113898
113896,113960
113938,113939
114000,113984
113972,113979
114025,113963
114069,114023
114088,114001
114118,114012
114205,114056
114198,114100
114215,114066
114286,114113
114259,114115
114304,114127
114378,114160
114363,114150
114441,114175
114424,114207
114459,114206
114516,114221
114508,114244
114562,114251
114569,114269
114593,114265
114621,114286
114653,114327
114665,114300
114711,114322
114696,114330
114736,114353
114800,114371
114785,114379
114835,114396
114802,114387
114856,114391
114921,114431
114897,114443
114935,114476
114929,114449
115011,114503
114983,114467
115031,114488
115078,114538
115084,114537
115076,114533
115151,114569
115141,114562
115195,114563
115199,114590
115137,114568
115154,114545
115050,114534
114999,114464
114919,114421
114812,114407
114656,114272
114523,114237
114345,114121
114149,114036
113938,113966
113782,113839
113514,113733
113316,113678
113072,113512
112923,113452
112666,113358
112505,113223
112265,113109
112086,113041
111853,112962
111739,112857
111555,112737
111410,112701
111248,112650
111150,112585
111043,112497
110987,112465
110888,112422
110816,112395
110735,112368
110702,112332
110699,112348
110628,112274
110641,112299
110589,112274
110617,112314
110599,112261
110654,112308
110646,112274
110672,112305
110694,112306
110708,112318
110742,112294
110802,112344
110752,112387
110784,112390
110884,112374
110912,112401
110934,112422
110947,112413
111032,112442
110998,112462
111076,112497
111125,112510
111126,112528
111200,112526
111234,112570
111245,112566
111278,112593
111351,112647
111349,112600
111410,112617
111435,112693
111513,112704
111530,112717
111603,112726
111655,112767
111680,112737
111769,112818
111779,112829
111842,112881
111909,112879
111974,112922
112039,112961
112057,112974
112152,113034
112183,113054
112250,113033
112347,113105
112347,113142
112393,113132
112429,113160
112488,113174
112503,113203
112594,113242
112563,113257
112614,113239
112631,113240
112672,113276
112661,113293
112681,113287
112739,113322
112697,113317
112705,113328
112747,113303
112770,113351
112787,113325
112748,113370
112805,113338
112823,113387
112842,113365
112847,113378
112879,113411
112881,113378
112930,113425
112918,113438
112960,113409
113009,113455
113009,113487
113046,113450
113072,113527
113093,113496
113136,113524
113169,113538
113220,113611
113256,113564
113315,113624
113354,113601
113406,113662
113401,113706
113437,113674
113491,113739
113546,113764
113581,113788
113645,113800
113696,113816
113741,113849
113796,113875
113851,113924
113895,113913
113942,113930
113981,113962
114039,114002
114078,114013
114129,114043
114199,114083
114245,114087
114240,114116
114326,114148
114370,114154
114411,114177
114453,114220
114508,114238
114525,114247
114572,114265
114635,114283
114676,114311
114718,114348
114736,114366
114781,114369
114824,114386
114871,114417
114901,114432
114972,114483
114992,114507
114995,114493
115091,114491
115091,114531
115150,114558
115188,114557
115230,114578
115242,114628
115330,114631
115341,114659
115372,114693
115399,114705
115441,114662
115469,114720
115523,114733
115555,114761
115546,114783
115639,114762
115611,114807
115680,114826
115707,114808
115738,114825
115742,114868
115788,114863
115821,114888
115856,114888
115909,114935
115917,114963
115961,114938
115998,114995
116059,114984
116073,115036
116082,115014
116107,115046
116146,115052
116130,115071
116102,115031
116110,114997
115998,114985
115946,114937
115791,114869
115649,114762
115499,114716
115328,114614
115151,114523
114956,114454
114740,114343
114553,114226
114364,114157
114194,114042
113978,113939
113812,113847
113614,113804
113448,113728
113301,113630
113139,113587
112971,113498
112853,113404
112696,113366
112607,113319
112471,113253
112437,113225
112346,113229
112314,113167
112246,113162
112179,113142
112183,113150
112162,113106
112147,113108
112152,113112
112144,113116
112183,113104
112171,113158
112208,113153
112212,113141
112268,113196
112310,113161
112368,113238
112405,113212
112401,113246
112505,113264
112508,113301
112535,113280
112574,113309
112647,113348
112678,113326
112725,113368
112756,113425
112836,113437
112839,113456
112900,113449
112945,113497
112959,113470
112982,113519
113041,113546
113106,113553
113117,113587
113144,113579
113229,113628
113273,113670
113267,113680
113338,113669
113394,113716
113448,113717
113536,113787
113543,113792
113601,113824
113669,113846
113741,113881
113750,113913
113853,113921
113884,113981
113930,113954
113970,113997
114028,114026
114065,114047
114062,114055
114141,114059
114134,114072
114172,114094
114150,114097
114191,114064
114155,114106
114187,114088
114152,114105
114179,114117
114138,114089
114154,114059
114161,114087
114126,114094
114132,114054
114113,114063
114115,114078
114080,114040
114095,114018
114056,114063
114080,114033
114058,114048
114065,114065
114087,114027
114096,114081
114065,114038
114155,114074
114122,114090
114147,114080
114187,114099
114182,114107
114241,114122
114224,114176
114283,114125
114273,114164
114314,114173
114319,114186
114399,114182
114420,114221
114436,114223
114457,114265
114467,114275
114520,114266
114606,114319
114586,114319
114662,114340
114658,114357
114725,114399
114723,114364
114783,114410
114811,114415
114835,114461
114860,114466
114906,114468
114918,114466
114992,114475
114992,114534
115002,114521
115050,114552
115055,114585
115101,114535
115182,114620
115167,114584
115214,114610
115262,114651
115240,114676
115298,114663
115335,114684
115313,114673
115383,114710
115391,114726
115433,114744
115425,114718
115476,114716
115503,114767
115514,114782
115534,114733
115567,114778
115537,114768
115634,114819
115634,114826
115620,114808
115646,114848
115708,114844
115698,114903
115689,114867
115750,114872
115769,114895
115819,114939
115814,114953
115827,114904
115893,114962
115871,114954
115917,114988
115942,115007
115908,114985
115953,115009
115933,114984
115964,115013
115907,114926
115820,114929
115738,114873
115635,114802
115464,114724
115328,114652
115170,114565
115007,114495
114801,114415
114579,114260
114409,114204
114173,114056
113975,113983
113743,113914
113525,113782
113329,113714
113112,113575
112953,113507
112785,113416
112618,113327
112452,113297
112289,113165
112158,113160
112065,113060
111916,113029
111845,112992
111722,112940
111712,112929
111632,112888
111577,112815
111571,112841
111499,112822
111517,112794
111489,112836
111453,112757
111483,112799
111459,112784
111500,112824
111478,112789
111539,112829
111521,112835
111555,112787
111577,112853
111585,112821
111619,112850
111605,112856
111699,112867
111705,112895
111742,112904
111774,112874
111816,112942
111810,112932
111849,112968
111900,112981
111914,112979
111959,112999
111955,112976
112022,113040
112011,113024
112071,113018
112068,113054
112133,113109
112167,113060
112207,113095
112224,113132
112226,113135
112310,113140
112372,113190
112381,113239
112443,113202
112482,113239
112540,113266
112536,113273
112629,113314
112645,113335
112713,113321
112743,113371
112759,113383
112809,113414
112821,113428
112905,113440
112881,113439
112942,113448
112928,113454
112949,113477
112970,113472
113011,113474
112963,113483
112984,113480
113001,113506
112963,113490
112977,113444
112993,113498
112922,113469
112952,113442
112958,113429
112933,113457
112914,113416
112951,113440
112908,113445
112937,113457
112871,113451
112941,113455
112926,113462
112928,113472
112916,113449
112958,113465
112958,113473
112975,113481
112989,113457
113034,113524
113048,113531
113061,113533
113083,113533
113133,113523
113172,113584
113169,113547
113247,113602
113267,113630
113246,113604
113328,113645
113348,113671
113363,113667
113429,113685
113454,113716
113522,113750
113532,113782
113567,113787
113585,113804
113651,113800
113661,113823
113709,113841
113742,113892
113739,113853
113841,113905
113815,113906
113865,113901
113912,113936
113976,113937
113974,113985
114023,113985
114036,114028
114095,114035
114113,114065
114174,114038
114192,114091
114220,114075
114262,114129
114281,114125
114313,114104
114352,114137
114355,114156
114400,114179
114446,114217
114453,114205
114494,114215
114547,114242
114555,114282
114574,114233
114615,114316
114595,114278
114641,114289
114687,114291
114716,114364
114717,114316
114745,114361
114743,114370
114747,114358
114831,114391
114802,114372
114852,114398
114854,114436
114913,114414
114928,114454
114944,114445
114989,114487
114994,114439
114997,114501
115008,114514
115090,114517
115106,114549
115128,114571
115131,114555
115143,114587
115189,114572
115172,114584
115148,114529
115142,114532
115087,114553
114983,114441
114899,114436
114762,114340
114599,114261
114425,114169
114228,114122
114024,113987
113860,113885
113638,113806
113392,113671
113179,113578
112942,113448
112727,113335
112508,113231
112311,113134
112075,113015
111887,112919
111682,112818
111524,112766
111373,112682
111199,112604
111080,112537
110932,112442
110878,112448
110779,112371
110679,112314
110606,112292
110519,112263
110507,112237
110470,112213
110444,112184
110431,112171
110364,112163
110392,112163
110375,112160
110386,112183
110358,112172
110389,112170
110411,112161
110398,112180
110459,112180
110461,112194
110460,112173
110499,112184
110497,112238
110554,112224
110566,112237
110601,112253
110610,112303
110648,112273
110664,112260
110725,112305
110770,112317
110741,112323
110782,112302
110825,112365
110806,112367
110853,112364
110913,112381
110937,112411
110994,112397
110989,112443
111048,112448
111047,112472
111093,112522
111138,112496
111194,112507
111228,112575
111261,112560
111339,112617
111364,112598
111400,112639
111481,112681
111529,112705
111550,112753
111612,112760
111653,112771
111717,112819
111710,112812
111784,112847
111796,112805
111799,112833
111845,112843
111892,112904
111853,112848
111896,112881
111922,112891
111918,112900
111946,112895
111899,112896
111941,112890
111921,112872
111916,112925
111911,112909
111940,112895
111889,112905
111910,112902
111937,112885
111949,112901
111945,112893
111974,112915
111940,112945
111981,112887
111988,112923
112019,112931
112002,112947
112032,112933
112041,112983
112059,112953
112144,113000
112131,113017
112205,113069
112222,113036
112224,113064
112292,113100
112333,113091
112338,113131
112366,113122
112448,113152
112447,113197
112506,113191
112524,113186
112591,113225
112608,113256
112657,113261
112702,113318
112741,113316
112806,113351
112828,113374
112860,113395
112885,113364
112952,113435
112975,113423
113034,113448
113077,113468
113118,113522
113133,113515
113209,113567
113228,113554
113273,113564
113323,113622
113376,113628
113377,113651
113467,113675
113478,113696
113513,113713
113590,113767
113606,113748
113648,113749
113703,113835
113736,113795
113755,113810
113839,113850
113864,113913
113876,113867
113961,113942
113960,113959
114016,113950
114066,113977
114053,114023
114115,114019
114209,114070
114191,114067
114267,114065
114262,114104
114311,114119
114361,114117
114396,114164
114443,114190
114419,114183
114501,114220
114564,114210
114565,114259
114581,114247
114631,114288
114640,114290
114734,114334
114726,114335
114770,114342
114814,114402
114891,114392
114915,114452
114917,114464
114968,114437
115039,114516
115041,114505
115133,114543
115135,114532
115191,114550
115232,114608
115208,114595
115206,114611
115221,114580
115147,114594
115087,114505
114982,114429
114835,114406
114717,114291
114574,114243
114385,114129
114199,114070
113976,113977
113781,113819
113598,113766
113339,113630
113169,113535
112912,113449
112739,113347
112525,113286
112371,113134
112195,113097
111993,113001
111874,112926
111728,112874
111580,112799
111498,112728
111350,112708
111283,112661
111206,112595
111168,112599
111093,112578
111056,112515
111036,112539
111051,112533
111004,112532
111025,112503
110995,112533
111032,112485
111073,112523
111040,112552
111086,112532
111149,112567
111166,112590
111211,112562
111257,112611
111300,112629
111357,112674
111395,112668
111426,112714
111499,112737
111557,112730
111601,112742
111667,112795
111706,112844
111810,112859
111825,112894
111876,112879
111932,112917
112012,112976
112033,112944
112106,112981
112108,113020
112179,113024
112213,113033
112205,113064
112279,113050
112342,113121
112338,113079
112406,113116
112455,113108
112471,113146
112512,113176
112509,113216
112588,113239
112615,113237
112658,113228
112640,113271
112654,113252
112737,113249
112684,113289
112692,113252
112709,113232
112720,113250
112654,113221
112684,113197
112633,113191
112620,113132
112597,113107
112485,113084
112479,113032
112434,113012
112313,112859
112237,112800
112149,112651
112025,112553
111850,112409
111796,112308
111624,112209
111489,112075
111311,111891
111062,111732
110676,111419
110322,111159
110083,110956
109857,110853
109721,110787
109597,110764
109492,110701
109475,110710
109429,110786
109442,110793
109420,110873
109409,110917
109454,110969
109461,111093
109504,111125
109541,111217
109546,111259
109463,111248
109453,111198
109409,111210
109381,111175
109425,111208
109406,111230
109441,111246
109502,111311
109589,111368
109689,111484
109799,111603
109943,111709
110083,111830
110220,111981
110423,112075
110656,112221
110797,112376
110908,112426
111056,112524
111179,112564
111268,112671
111341,112650
111463,112728
111540,112776
111671,112818
111781,112858
111850,112916
111962,112942
112073,113016
112169,113054
112232,113079
112359,113115
112397,113164
112532,113212
112588,113285
112696,113271
112757,113292
112814,113319
112898,113335
112910,113369
112937,113308
112918,113334
112975,113289
112959,113217
112890,113189
112814,113068
112791,113015
112730,112916
112605,112802
112532,112679
112378,112513
112291,112405
112204,112283
112131,112244
112052,112207
112035,112163
112020,112208
112046,112250
112046,112264
112036,112314
112015,112363
112027,112378
111946,112415
111887,112355
111763,112387
111661,112360
111530,112326
111395,112311
111202,112202
111020,112181
110798,112076
110562,112012
110378,111883
110145,111834
109941,111666
109814,111619
109609,111510
109488,111423
109337,111306
109210,111259
109056,111139
108947,111083
108853,110983
108756,110894
108689,110829
108568,110743
108541,110649
108456,110637
108434,110612
108390,110596
108424,110607
108432,110632
108493,110699
108517,110699
108552,110764
108658,110831
108684,110868
108763,110939
108781,110987
108822,111028
108890,111076
108911,111111
108995,111182
108996,111182
109062,111213
109099,111287
109174,111270
109219,111343
109252,111352
109299,111388
109402,111410
109443,111501
109516,111515
109615,111564
109688,111583
109773,111660
109810,111681
109900,111732
110001,111802
110040,111825
110146,111847
110230,111908
110271,111981
110376,111970
110449,112059
110517,112075
110580,112126
110649,112172
110740,112230
110840,112245
110860,112294
110931,112334
111020,112379
111119,112455
111174,112490
111240,112521
111334,112567
111432,112600
111471,112647
111539,112704
111626,112751
111685,112757
111759,112789
111809,112822
111887,112849
111963,112911
112040,112941
112094,112965
112158,112970
112187,113021
112246,113025
112282,113078
112336,113059
112338,113133
112374,113125
112455,113104
112436,113169
112510,113164
112536,113186
112546,113172
112592,113208
112593,113198
112645,113222
112671,113275
112669,113279
112732,113274
112771,113312
112770,113313
112827,113327
112828,113376
112863,113309
112911,113384
112946,113360
112997,113422
113003,113407
113087,113440
113142,113463
113182,113479
113241,113508
113263,113556
113361,113553
113426,113579
113486,113633
113554,113683
113652,113732
113699,113761
113774,113779
113875,113823
113947,113845
114003,113895
114046,113937
114121,113930
114208,114021
114238,113992
114294,114053
114355,114069
114356,114083
114460,114138
114474,114128
114522,114184
114598,114225
114600,114195
114653,114294
114723,114275
114762,114288
114831,114331
114840,114346
114924,114385
114947,114393
115009,114429
115028,114469
115104,114494
115155,114512
115167,114517
115236,114530
115261,114567
115289,114584
115356,114560
115395,114614
115415,114651
115444,114617
115493,114656
115497,114693
115511,114679
115556,114687
115575,114711
115584,114722
115581,114733
115626,114716
115686,114768
115654,114717
115668,114758
115684,114746
115686,114786
115689,114765
115687,114782
115678,114744
115663,114772
115632,114752
115585,114716
115481,114652
115383,114602
115206,114523
115064,114423
114898,114336
114707,114260
114430,114125
114264,114004
114014,113933
113811,113793
113607,113671
113371,113590
113135,113462
112953,113355
112730,113284
112504,113129
112305,113055
112130,112959
111924,112883
111762,112743
111604,112725
111444,112612
111331,112564
111196,112529
111053,112439
110994,112372
110876,112338
110791,112250
110696,112236
110673,112218
110573,112191
110512,112119
110500,112159
110453,112110
110444,112092
110385,112072
110368,112056
110340,112077
110347,112023
110312,112043
110312,112048
110357,112033
110345,112058
110342,112042
110343,112068
110357,112039
110356,112059
110379,112026
110393,112058
110399,112111
110435,112095
110457,112113
110463,112159
110470,112145
110566,112197
110558,112210
110576,112188
110643,112236
110699,112262
110689,112310
110745,112285
110835,112355
110861,112352
110905,112375
111000,112415
111027,112432
111133,112487
111156,112519
111242,112553
111346,112552
111358,112609
111460,112660
111526,112683
111599,112728
111625,112727
111687,112784
111718,112795
111777,112802
111807,112834
111833,112783
111880,112843
111872,112864
111878,112845
111905,112872
111921,112857
111857,112851
111901,112825
111877,112850
111826,112840
111845,112825
111796,112776
111788,112785
111680,112749
111667,112725
111648,112717
111627,112659
111602,112682
111545,112675
111530,112625
111525,112665
111530,112635
111487,112620
111504,112610
111436,112631
111425,112545
111407,112577
111440,112561
111406,112566
111464,112565
111425,112571
111444,112546
111453,112540
111432,112537
111473,112550
111445,112549
111454,112545
111498,112532
111473,112569
111488,112551
111490,112582
111505,112561
111572,112596
111552,112642
111600,112631
111597,112659
111606,112628
111649,112657
111623,112685
111676,112658
111724,112714
111737,112710
111734,112737
111783,112772
111772,112788
111847,112765
111875,112814
111889,112819
111923,112845
111960,112837
112025,112912
112083,112924
112162,112968
112172,112973
112248,113003
112269,113061
112331,113052
112406,113118
112428,113144
112470,113167
112569,113189
112642,113239
112667,113283
112746,113274
112803,113359
112836,113363
112912,113398
112920,113420
112983,113410
113065,113489
113065,113462
113086,113480
113153,113519
113119,113507
113144,113524
113087,113484
113081,113465
112956,113428
112874,113363
112776,113285
112590,113245
112429,113137
112260,113014
112047,112966
111811,112813
111566,112703
111331,112592
111091,112464
110802,112341
110577,112226
110322,112093
110076,111959
109880,111844
109639,111762
109455,111620
109291,111543
109070,111484
108927,111344
108815,111287
108654,111196
108567,111171
108488,111108
108362,111042
108346,111041
108252,111019
108245,110962
108217,110969
108168,110929
108205,110950
108141,110912
108162,110884
108169,110925
108172,110899
108225,110903
108227,110960
108274,110911
108270,110955
108287,110941
108328,110974
108371,110969
108382,110978
108403,110989
108455,110988
108476,110990
108538,111003
108519,111005
108582,111037
108574,111019
108630,111068
108647,111047
108680,111023
108732,111065
108749,111104
108764,111063
108838,111099
108857,111116
108865,111112
108964,111122
108972,111184
108983,111171
109084,111177
109091,111218
109163,111253
109183,111246
109287,111284
109307,111329
109379,111324
109420,111402
109494,111415
109539,111444
109556,111458
109634,111493
109712,111509
109706,111552
109771,111568
109809,111560
109884,111598
109893,111662
109934,111612
109988,111681
109986,111634
110016,111663
110045,111674
110022,111687
110076,111654
110094,111703
110145,111699
110091,111678
110119,111692
110129,111718
110145,111660
110156,111682
110183,111702
110183,111687
110170,111708
110185,111666
110200,111724
110203,111709
110210,111731
110253,111758
110272,111742
110308,111746
110294,111790
110327,111768
110371,111811
110373,111791
110452,111840
110475,111862
110485,111912
110510,111891
110589,111939
110591,111957
110650,111967
110729,112012
110720,112026
110805,112039
110865,112076
110847,112110
110943,112114
111045,112190
111041,112178
111109,112231
111169,112250
111234,112326
111287,112323
111358,112390
111409,112410
111467,112403
111517,112450
111557,112509
111649,112544
111675,112583
111725,112554
111790,112640
111815,112641
111879,112680
111962,112692
112001,112747
112076,112757
112101,112818
112186,112821
112207,112843
112212,112858
112309,112877
112355,112964
112407,112954
112463,112992
112511,113007
112545,113031
112595,113063
112627,113090
112690,113128
112746,113158
112792,113186
112861,113231
112885,113249
112952,113274
113001,113314
113064,113351
113118,113371
113139,113386
113206,113433
113254,113469
113272,113491
113293,113480
113268,113483
113290,113482
113237,113459
113152,113444
113059,113362
112929,113317
112778,113235
112672,113154
112483,113088
112329,112974
112112,112865
111986,112827
111733,112721
111547,112615
111428,112550
111176,112415
111000,112333
110845,112222
110709,112175
110535,112111
110386,112009
110280,111938
110172,111900
110042,111869
109965,111788
109895,111798
109840,111714
109795,111742
109747,111692
109748,111703
109743,111660
109696,111678
109753,111705
109737,111695
109766,111690
109822,111745
109820,111772
109868,111739
109931,111768
109918,111779
109969,111820
110073,111842
110062,111884
110123,111889
110224,111928
110240,111956
110301,111977
110338,112029
110385,112062
110457,112083
110517,112062
110601,112124
110632,112173
110689,112180
110770,112234
110779,112241
110863,112284
110940,112289
110966,112333
111040,112367
111141,112423
111132,112429
111206,112465
111289,112508
111360,112515
111420,112581
111462,112599
111574,112641
111611,112673
111699,112696
111774,112751
111805,112808
111937,112818
111980,112865
112046,112872
112137,112916
112198,112943
112204,113000
112227,113003
112314,113022
112365,113049
112376,113041
112418,113090
112406,113109
112467,113103
112484,113105
112532,113154
112491,113115
112516,113133
112488,113124
112538,113146
112531,113132
112557,113129
112533,113154
112538,113130
112543,113139
112538,113144
112546,113153
112558,113136
112575,113178
112592,113163
112571,113180
112575,113222
112591,113167
112647,113213
112619,113221
112685,113218
112672,113240
112709,113243
112762,113248
112761,113279
112769,113264
112800,113250
112861,113286
112889,113322
112899,113363
112895,113330
112971,113402
113025,113372
113013,113408
113088,113423
113080,113444
113161,113442
113188,113492
113191,113474
113227,113514
113256,113519
113319,113527
113378,113579
113378,113559
113439,113562
113416,113616
113497,113657
113515,113670
113575,113685
113560,113685
113601,113723
113661,113688
113674,113747
113682,113757
113711,113738
113746,113775
113764,113778
113831,113818
113800,113812
113836,113797
113871,113837
113887,113824
113923,113890
113929,113886
114006,113914
113995,113866
114042,113926
114057,113934
114104,113950
114106,113961
114164,113994
114193,113996
114238,114008
114220,114048
114282,114048
114290,114070
114325,114062
114341,114065
114341,114112
114341,114056
114327,114075
114312,114047
114189,114015
114154,113943
114027,113949
113913,113833
113759,113778
113623,113706
113443,113597
113324,113527
113092,113469
112935,113335
112740,113273
112612,113188
112407,113094
112249,112967
112047,112909
111934,112803
111751,112752
111617,112674
111482,112585
111379,112551
111232,112480
111184,112426
111083,112387
111028,112330
110921,112343
110832,112247
110829,112247
110760,112217
110714,112196
110725,112174
110688,112211
110692,112158
110684,112195
110661,112133
110649,112153
110678,112170
110707,112148
110726,112189
110703,112138
110756,112178
110798,112183
110758,112166
110826,112215
110825,112159
110847,112232
110874,112205
110906,112234
110928,112238
110911,112259
110945,112225
111012,112270
111023,112262
111078,112287
111089,112293
111108,112325
111111,112298
111189,112334
111188,112325
111235,112371
111286,112387
111272,112391
111324,112423
111351,112428
111429,112443
111467,112453
111489,112496
111547,112497
111636,112518
111613,112568
111698,112567
111747,112622
111756,112585
111813,112634
111864,112645
111897,112706
111879,112684
111934,112724
111941,112701
111942,112698
111979,112719
112024,112759
112018,112702
112007,112729
112013,112708
112019,112735
111976,112746
112011,112704
112008,112728
111982,112716
111965,112690
111975,112698
111957,112697
111941,112676
111970,112707
111919,112677
111944,112677
111987,112644
111959,112683
111918,112637
111966,112699
111949,112668
111986,112678
111939,112692
112006,112688
111980,112692
112035,112682
112008,112715
112061,112713
112094,112733
112079,112754
112123,112717
112154,112768
112188,112761
112176,112801
112208,112779
112249,112814
112284,112778
112322,112815
112327,112851
112328,112854
112372,112850
112403,112881
112394,112857
112449,112900
112482,112905
112534,112908
112497,112910
112595,112912
112558,112991
112613,112939
112641,112997
112688,112989
112728,113039
112758,112990
112777,113051
112800,113060
112841,113045
112839,113097
112896,113097
112884,113109
112942,113149
112939,113145
112931,113153
112987,113142
113009,113161
113056,113213
113052,113180
113057,113203
113118,113235
113110,113278
113155,113243
113193,113322
113195,113308
113217,113331
113246,113343
113284,113364
113332,113390
113390,113421
113398,113396
113442,113450
113449,113471
113506,113494
113549,113478
113546,113564
113586,113560
113619,113586
113688,113594
113682,113631
113759,113617
113794,113705
113813,113688
113867,113730
113868,113747
113908,113753
113926,113745
113950,113787
113905,113723
113856,113756
113788,113698
113762,113683
113634,113644
113558,113562
113417,113527
113286,113453
113124,113350
112989,113265
112834,113206
112605,113105
112481,113028
112306,112931
112099,112825
111977,112757
111771,112640
111678,112599
111471,112502
111356,112448
111257,112357
111091,112294
111020,112241
110945,112235
110801,112157
110748,112120
110704,112096
110655,112067
110587,112067
110571,111991
110527,112035
110515,112006
110478,111993
110502,112000
110467,111959
110488,112011
110482,111974
110505,112019
110523,111982
110535,112009
110567,112016
110577,112034
110634,112065
110621,112055
110630,112087
110687,112092
110712,112103
110711,112100
110767,112107
110781,112144
110798,112183
110882,112198
110891,112183
110934,112214
110950,112255
111018,112261
111002,112282
111054,112308
111068,112309
111142,112356
111137,112365
111177,112352
111225,112403
111256,112409
111290,112428
111349,112453
111392,112499
111427,112513
111486,112538
111526,112567
111546,112591
111612,112597
111669,112643
111702,112688
111727,112709
111779,112699
111853,112759
111855,112729
111902,112782
111922,112801
111976,112816
112006,112797
112049,112881
112023,112875
112088,112878
112085,112866
112079,112902
112143,112922
112160,112913
112161,112941
112183,112940
112195,112951
112193,112953
112196,112955
112209,112967
112237,112999
112246,112983
112233,113003
112286,113032
112325,113030
112295,113028
112325,113073
112388,113059
112407,113100
112413,113096
112424,113103
112486,113164
112505,113175
112527,113164
112575,113220
112606,113212
112674,113236
112666,113280
112725,113294
112764,113309
112833,113344
112814,113372
112862,113349
112961,113392
112961,113449
112989,113457
113066,113466
113138,113516
113135,113531
113241,113561
113281,113589
113277,113611
113354,113645
113351,113682
113414,113672
113475,113696
113489,113756
113538,113738
113591,113780
113608,113757
113669,113793
113700,113802
113728,113824
113802,113866
113846,113898
113889,113900
113899,113947
113931,113943
113982,113981
114003,114013
114065,114023
114082,114002
114146,114078
114146,114076
114223,114104
114228,114080
114254,114145
114306,114170
114343,114159
114350,114184
114408,114183
114424,114211
114441,114243
114505,114226
114521,114246
114579,114306
114563,114288
114604,114315
114686,114327
114670,114342
114712,114380
114736,114366
114763,114395
114793,114429
114825,114424
114857,114426
114903,114480
114930,114475
114988,114489
114975,114490
115073,114535
115022,114564
115107,114598
115111,114579
115168,114635
115178,114602
115213,114612
115229,114641
115221,114621
115225,114634
115177,114635
115132,114576
115067,114559
114987,114505
114880,114464
114785,114399
114681,114365
114572,114267
114457,114243
114309,114193
114180,114092
114085,114069
113915,113980
113851,113949
113752,113908
113622,113840
113548,113782
113482,113800
113369,113773
113325,113714
113272,113715
113216,113688
113111,113609
113119,113577
113027,113551
113052,113501
112987,113443
112915,113444
112911,113422
112896,113442
112851,113382
112897,113364
112904,113384
112936,113365
112954,113409
112939,113372
112981,113377
113017,113379
113039,113405
113056,113387
113054,113406
113082,113361
113103,113411
113128,113404
113142,113402
113194,113443
113228,113440
113223,113432
113266,113453
113313,113436
113315,113464
113329,113446
113348,113455
113368,113452
113365,113448
113377,113472
113399,113478
113438,113487
113472,113494
113510,113526
113541,113573
113561,113586
113622,113626
113677,113641
113691,113663
113733,113682
113782,113716
113799,113720
113846,113745
113864,113714
113881,113760
113898,113762
113961,113790
113990,113810
113987,113776
114037,113836
114057,113815
114019,113833
114101,113850
114091,113851
114060,113818
114071,113804
114045,113780
114006,113690
113958,113688
113978,113645
113931,113569
113854,113542
113792,113450
113797,113450
113747,113401
113705,113375
113721,113350
113717,113415
113711,113361
113673,113390
113708,113397
113723,113418
113693,113391
113716,113449
113714,113410
113704,113429
113719,113461
113746,113484
113726,113485
113742,113497
113794,113511
113803,113515
113795,113551
113814,113563
113837,113534
113849,113602
113858,113599
113927,113634
113966,113688
113978,113719
114064,113788
114104,113816
114135,113822
114232,113902
114197,113934
114296,113931
114330,113980
114352,113990
114414,114010
114416,114051
114441,114020
114485,114073
114493,114086
114536,114079
114496,114071
114528,114060
114587,114117
114597,114117
114605,114098
114625,114145
114648,114115
114662,114152
114676,114128
114668,114140
114717,114157
114706,114123
114724,114146
114685,114140
114724,114106
114743,114087
114719,114065
114731,114042
114675,113973
114709,113914
114648,113895
114651,113831
114624,113738
114606,113695
114585,113594
114513,113527
114562,113522
114513,113463
114548,113462
114519,113411
114514,113392
114535,113392
114498,113379
114521,113364
114539,113327
114493,113321
114536,113312
114512,113285
114551,113250
114518,113227
114508,113211
114479,113160
114483,113139
114398,113056
114405,113039
114314,112935
114180,112893
114060,112816
113926,112674
113808,112614
113653,112498
113467,112362
113313,112243
113138,112105
112973,112007
112739,111819
112565,111706
112378,111574
112175,111451
111987,111276
111841,111201
111646,111056
111527,110982
111381,110874
111220,110766
111061,110704
110961,110569
110898,110536
110754,110446
110667,110384
110624,110357
110515,110292
110453,110241
110400,110144
110313,110119
110262,110031
110198,110011
110159,109922
110110,109918
110037,109835
110034,109832
110020,109781
109977,109772
109933,109742
109890,109722
109861,109606
109828,109627
109811,109575
109793,109501
109742,109478
109710,109429
109729,109427
109711,109386
109752,109423
109741,109423
109750,109365
109721,109394
109746,109357
109719,109333
109749,109317
109675,109298
109648,109230
109655,109222
109642,109242
109643,109192
109627,109185
109590,109152
109596,109115
109512,109008
109506,108972
109415,108921
109395,108845
109309,108766
109237,108689
109230,108653
109142,108582
109159,108584
109166,108585
109177,108600
109281,108674
109293,108736
109397,108819
109489,108916
109588,108996
109720,109135
109840,109291
110021,109461
110139,109641
110324,109772
110450,109901
110615,110084
110742,110171
110873,110315
110984,110437
111077,110507
111156,110562
111208,110668
111294,110676
111321,110689
111341,110722
111285,110669
111263,110688
111271,110651
111238,110591
111201,110540
111133,110511
111078,110378
111037,110301
110961,110312
110910,110210
110914,110171
110908,110152
110906,110174
110895,110158
110910,110154
110909,110175
110933,110138
111014,110206
111018,110216
111089,110306
111117,110363
111238,110452
111362,110582
111459,110688
111573,110793
111656,110890
111784,111012
111877,111174
111988,111230
112084,111335
112174,111395
112267,111513
112343,111603
112431,111664
112491,111696
112529,111787
112637,111906
112701,111944
112763,111986
112800,112056
112937,112176
113001,112258
113030,112332
113145,112434
113216,112522
113316,112672
113456,112810
113572,112979
113664,113105
113750,113220
113827,113339
113918,113482
114014,113592
114079,113710
114179,113817
114197,113915
114290,113997
114349,114083
114380,114126
114418,114187
114500,114215
114528,114288
114532,114282
114596,114337
114583,114330
114599,114329
114644,114377
114600,114380
114677,114395
114669,114382
114637,114373
114674,114365
114686,114395
114687,114363
114693,114389
114697,114385
114678,114389
114642,114339
114633,114371
114614,114301
114578,114278
114548,114280
114419,114253
114380,114189
114265,114145
114145,114069
114076,114032
113914,113982
113839,113908
113681,113838
113541,113765
113465,113693
113282,113663
113180,113593
113024,113543
112957,113516
112846,113422
112718,113415
112653,113372
112565,113324
112518,113296
112454,113298
112397,113240
112327,113233
112318,113237
112308,113234
112245,113227
112239,113157
112212,113188
112226,113180
112207,113184
112200,113171
112187,113205
112206,113197
112207,113193
112233,113199
112242,113179
112287,113215
112259,113186
112296,113210
112285,113199
112356,113228
112328,113245
112373,113251
112366,113257
112401,113259
112394,113259
112442,113270
112419,113246
112487,113295
112492,113273
112523,113315
112512,113299
112547,113346
112561,113344
112514,113349
112616,113367
112656,113351
112637,113360
112659,113410
112668,113383
112749,113418
112734,113458
112797,113418
112830,113499
112847,113496
112891,113514
112946,113563
112957,113542
113035,113567
113077,113558
113118,113620
113142,113616
113171,113651
113195,113626
113201,113692
113258,113713
113297,113701
113320,113724
113356,113749
113356,113718
113425,113758
113399,113772
113432,113743
113401,113777
113441,113759
113445,113802
113406,113785
113433,113805
113452,113796
113423,113774
113451,113794
113409,113798
113464,113795
113437,113816
113399,113832
113422,113831
113407,113783
113412,113842
113395,113798
113429,113838
113470,113823
113416,113837
113465,113851
113471,113819
113460,113897
113492,113872
113492,113850
113534,113884
113563,113883
113587,113919
113562,113903
113591,113892
113627,113944
113677,113976
113663,113972
113700,113948
113758,113988
113767,113984
113786,114026
113789,114010
113877,114037
113835,114069
113884,114065
113938,114096
113910,114111
113958,114079
113973,114142
113994,114127
114050,114141
114049,114117
114073,114168
114069,114151
114118,114157
114149,114213
114160,114189
114165,114224
114196,114204
114195,114231
114229,114209
114244,114263
114243,114226
114267,114266
114275,114251
114327,114269
114298,114300
114327,114277
114368,114340
114343,114298
114404,114344
114399,114309
114420,114338
114419,114309
114446,114333
114475,114381
114482,114371
114484,114378
114521,114350
114548,114419
114549,114397
114577,114449
114597,114406
114630,114424
114659,114457
114638,114466
114718,114475
114718,114496
114736,114483
114749,114529
114752,114479
114807,114549
114800,114515
114784,114555
114780,114516
114782,114522
114717,114490
114667,114445
114572,114456
114489,114357
114404,114322
114288,114274
114167,114180
114031,114171
113902,114079
113714,114002
113629,113951
113442,113885
113341,113814
113146,113741
113066,113645
112908,113584
112796,113544
112679,113504
112552,113401
112475,113410
112386,113337
112304,113297
112257,113279
112196,113267
112112,113207
112087,113221
112041,113187
112017,113208
111988,113171
112005,113157
111997,113162
111973,113149
112011,113177
111999,113166
111990,113176
112018,113148
112044,113187
112021,113196
112086,113190
112088,113207
112071,113187
112147,113216
112104,113254
112125,113219
112176,113258
112160,113284
112202,113260
112215,113238
112251,113278
112239,113278
112290,113273
112308,113302
112311,113302
112353,113346
112404,113335
112370,113370
112391,113358
112450,113389
112444,113394
112459,113418
112482,113416
112578,113409
112562,113460
112602,113461
112626,113478
112676,113488
112752,113560
112755,113526
112823,113594
112824,113594
112867,113590
112932,113629
112946,113636
113007,113649
113036,113699
113075,113708
113113,113699
113137,113724
113140,113733
113181,113768
113217,113764
113237,113792
113218,113808
113229,113775
113282,113821
113260,113801
113272,113833
113292,113817
113290,113827
113269,113842
113291,113793
113325,113824
113288,113792
113299,113831
113321,113818
113301,113835
113271,113814
113299,113860
113328,113821
113315,113831
113295,113862
113323,113830
113292,113872
113319,113837
113360,113842
113368,113880
113326,113889
113383,113877
113448,113904
113410,113928
113480,113923
113472,113936
113530,113979
113519,113961
113596,113976
113586,114020
113599,114000
113673,114055
113673,114038
113704,114016
113780,114062
113772,114128
113813,114095
113844,114130
113861,114149
113920,114133
113961,114173
113977,114151
114033,114197
114053,114212
114053,114256
114110,114237
114144,114293
114158,114255
114203,114295
114250,114319
114233,114305
114315,114364
114320,114383
114387,114376
114379,114398
114461,114407
114488,114397
114533,114474
114522,114436
114579,114480
114582,114488
114625,114512
114645,114511
114682,114566
114703,114545
114781,114570
114770,114591
114807,114595
114803,114624
114855,114622
114879,114590
114892,114664
114951,114651
114950,114670
114981,114677
114984,114692
115059,114685
115040,114733
115072,114719
115102,114712
115101,114768
115150,114738
115174,114811
115178,114752
115191,114756
115249,114817
115223,114793
115268,114799
115222,114781
115255,114805
115246,114792
115180,114770
115139,114768
115078,114716
115018,114676
114871,114636
114787,114538
114671,114494
114558,114427
114451,114383
114268,114339
114123,114232
113962,114195
113842,114107
113672,114038
113526,113963
113436,113919
113287,113835
113142,113781
113061,113725
112956,113702
112837,113665
112761,113601
112692,113578
112603,113529
112580,113502
112522,113495
112516,113474
112432,113457
112442,113455
112427,113457
112434,113440
112436,113446
112434,113440
112444,113452
112466,113451
112452,113469
112507,113477
112533,113492
112542,113482
112539,113519
112603,113525
112604,113525
112640,113528
112702,113571
112663,113545
112692,113589
112772,113622
112763,113631
112787,113599
112854,113665
112896,113662
112871,113650
112938,113657
112950,113715
112959,113697
112996,113725
113023,113739
113069,113735
113096,113773
113102,113786
113139,113785
113166,113793
113202,113833
113218,113811
113279,113841
113297,113869
113315,113874
113362,113927
113363,113911
113464,113904
113481,113942
113488,113980
113511,113954
113560,114003
113563,114012
113622,114011
113667,114031
113655,114038
113704,114057
113715,114068
113716,114068
113751,114104
113751,114089
113750,114117
113765,114110
113783,114095
113768,114107
113789,114108
113764,114125
113791,114101
113776,114096
113740,114083
113754,114101
113748,114081
113737,114104
113739,114064
113723,114077
113749,114106
113719,114111
113714,114066
113762,114113
113719,114080
113767,114081
113742,114107
113740,114116
113793,114144
113787,114134
113789,114126
113834,114134
113849,114179
113858,114175
113877,114165
113921,114189
113926,114191
113955,114227
113976,114229
113999,114244
114033,114254
114061,114261
114091,114286
114118,114325
114111,114313
114163,114328
114192,114346
114219,114349
114265,114365
114255,114392
114304,114385
114327,114419
114328,114407
114365,114437
114363,114471
114417,114472
114436,114477
114484,114501
114469,114508
114525,114496
114501,114499
114576,114534
114584,114565
114578,114560
114623,114534
114620,114568
114679,114586
114676,114586
114690,114608
114690,114591
114703,114608
114757,114635
114722,114625
114781,114654
114805,114654
114780,114654
114846,114657
114852,114711
114864,114715
114915,114684
114907,114703
114942,114714
114952,114726
115013,114759
114997,114755
115033,114787
115053,114791
115067,114799
115099,114811
115109,114818
115142,114829
115178,114850
115182,114860
115184,114870
115214,114869
115202,114875
115207,114846
115208,114873
115189,114852
115119,114833
115117,114810
115006,114749
114909,114738
114836,114662
114721,114605
114548,114543
114403,114466
114275,114401
114126,114346
113957,114257
113786,114184
113613,114081
113440,114017
113286,113950
113136,113863
112933,113804
112825,113720
112698,113637
112524,113583
112426,113550
112338,113479
112217,113427
112134,113390
112065,113361
112015,113331
111954,113318
111916,113277
111853,113272
111874,113274
111854,113250
111802,113236
111817,113238
111836,113269
111826,113243
111807,113240
111849,113272
111868,113242
111865,113252
111923,113300
111949,113293
111913,113301
112003,113327
112031,113333
112027,113346
112076,113368
112062,113359
112137,113390
112176,113418
112177,113403
112222,113432
112232,113457
112283,113465
112282,113470
112307,113497
112363,113508
112366,113534
112405,113524
112416,113535
112470,113554
112482,113560
112488,113590
112513,113581
112548,113613
112595,113598
112611,113648
112652,113637
112649,113664
112660,113678
112738,113696
112761,113713
112732,113720
112823,113730
112825,113752
112877,113750
112912,113783
112899,113777
112964,113798
112917,113785
112986,113817
113006,113824
112971,113823
112994,113819
113016,113839
113027,113858
113017,113810
113025,113858
112996,113847
112991,113834
113032,113817
112995,113851
112975,113837
113016,113830
112995,113865
112964,113814
113021,113846
113004,113838
112992,113819
112998,113846
112997,113844
113011,113823
113018,113825
113028,113871
113025,113861
113071,113861
113050,113909
113058,113871
113092,113887
113123,113900
113174,113927
113140,113917
113191,113929
113242,113979
113217,113965
113259,113959
113293,114007
113337,114004
113370,114052
113358,114059
113388,114009
113450,114068
113453,114086
113482,114110
113496,114090
113548,114129
113565,114132
113589,114136
113634,114140
113665,114177
113705,114202
113715,114176
113748,114207
113763,114248
113791,114257
113872,114273
113815,114241
113891,114274
113895,114336
113935,114284
113973,114339
113965,114306
114031,114340
113984,114389
114062,114370
114124,114411
114097,114388
114156,114427
114176,114452
114185,114462
114225,114460
114209,114448
114269,114472
114270,114496
114293,114504
114356,114513
114334,114539
114386,114539
114413,114548
114407,114525
114464,114583
114442,114561
114480,114603
114518,114616
114499,114615
114535,114631
114582,114635
114559,114647
114577,114653
114593,114631
114654,114655
114643,114656
114658,114698
114674,114715
114706,114678
114673,114697
114764,114726
114741,114725
114780,114754
114801,114738
114760,114764
114831,114758
114846,114765
114884,114765
114900,114780
114867,114828
114908,114779
114974,114821
114942,114839
114963,114832
115016,114861
115006,114832
115005,114852
114923,114805
114896,114786
114851,114800
114754,114720
114706,114700
114537,114600
114392,114553
114311,114501
114141,114438
113958,114334
113833,114280
113629,114135
113455,114097
113271,113994
113127,113924
112949,113855
112751,113787
112603,113658
112481,113634
112330,113540
112208,113484
112072,113433
111928,113364
111858,113343
111756,113271
111705,113250
111649,113235
111541,113153
111572,113178
111498,113128
111469,113113
111486,113126
111441,113138
111415,113071
111453,113108
111429,113103
111425,113082
111444,113125
111465,113064
111486,113122
111485,113148
111507,113139
111553,113153
111549,113140
111612,113182
111616,113197
111644,113226
111666,113168
111644,113231
111710,113233
111731,113229
111780,113247
111797,113299
111838,113265
111847,113270
111884,113316
111901,113323
111929,113307
111926,113351
111991,113373
111987,113382
111999,113397
112084,113374
112086,113417
112141,113427
112170,113420
112210,113467
112238,113463
112258,113505
112306,113520
112347,113517
112397,113575
112411,113573
112480,113606
112557,113630
112557,113617
112625,113679
112605,113655
112636,113697
112690,113714
112710,113688
112758,113705
112756,113734
112797,113764
112757,113748
112801,113748
112832,113743
112786,113761
112786,113778
112800,113772
112761,113727
112780,113750
112747,113748
112764,113748
112768,113732
112751,113708
112758,113744
112730,113726
112733,113737
112711,113739
112709,113702
112758,113722
112698,113747
112738,113730
112723,113724
112723,113728
112713,113748
112770,113730
112772,113719
112741,113744
112817,113761
112794,113780
112883,113800
112877,113778
112872,113834
112921,113799
112947,113818
112935,113852
112979,113840
113023,113864
112999,113877
113051,113868
113113,113923
113119,113901
113142,113910
113164,113961
113153,113953
113220,113955
113246,113972
113284,113993
113320,113987
113349,114025
113330,114010
113383,114063
113393,114039
113459,114069
113505,114079
113501,114114
113534,114114
113576,114135
113578,114158
113599,114145
113666,114162
113696,114201
113715,114195
113753,114251
113741,114224
113804,114235
113840,114229
113859,114282
113872,114289
113940,114290
113943,114340
113957,114339
114023,114365
114035,114352
114075,114401
114108,114369
114126,114413
114152,114442
114184,114453
114246,114452
114224,114461
114292,114482
114329,114502
114348,114514
114347,114509
114412,114539
114394,114557
114409,114553
114493,114579
114480,114628
114493,114579
114559,114605
114514,114633
114576,114633
114546,114638
114619,114649
114641,114631
114627,114692
114650,114664
114698,114688
114691,114670
114703,114685
114752,114732
114718,114715
114771,114733
114760,114755
114759,114750
114838,114779
114814,114774
114840,114759
114905,114807
114896,114791
114938,114787
114946,114832
114963,114855
114984,114835
115025,114853
115027,114841
115073,114865
115106,114929
115103,114892
115131,114904
115176,114912
115163,114952
115134,114926
115170,114956
115122,114906
115087,114854
115003,114864
114926,114816
114825,114707
114699,114669
114565,114648
114389,114532
114288,114464
114096,114416
113958,114323
113746,114212
113568,114149
113346,114061
113211,113952
113036,113892
112823,113813
112647,113707
112518,113644
112342,113549
112245,113514
112084,113437
112009,113407
111927,113360
111810,113328
111721,113261
111656,113231
111622,113214
111591,113199
111528,113169
111504,113167
111483,113129
111498,113142
111488,113132
111471,113132
111518,113153
111540,113166
111536,113166
111561,113174
111556,113181
111633,113214
111652,113205
111685,113217
111697,113259
111767,113255
111816,113284
111804,113320
111833,113297
111887,113322
111880,113301
111948,113374
111996,113379
112020,113391
112066,113402
112054,113430
112096,113431
112123,113455
112129,113436
112184,113481
112147,113409
112174,113479
112202,113500
112167,113479
112211,113503
112266,113489
112249,113503
112245,113516
112293,113499
112344,113539
112327,113522
112356,113554
112377,113581
112408,113579
112448,113615
112452,113578
112484,113614
112516,113628
112501,113623
112574,113684
112548,113628
112580,113680
112554,113664
112577,113665
112580,113702
112577,113656
112609,113712
112560,113675
112556,113682
112589,113686
112543,113675
112546,113676
112536,113642
112489,113667
112448,113633
112477,113615
112444,113592
112407,113611
112355,113582
112373,113542
112320,113549
112327,113507
112296,113509
112301,113478
112259,113464
112283,113470
112284,113456
112234,113422
112268,113443
112220,113454
112249,113409
112249,113427
112295,113419
112248,113434
112307,113400
112306,113460
112354,113437
112366,113448
112369,113464
112432,113467
112438,113495
112477,113499
112476,113529
112558,113534
112609,113544
112635,113578
112679,113606
112702,113609
112774,113667
112833,113657
112875,113717
112912,113715
112969,113738
112980,113751
113060,113789
113096,113791
113167,113857
113181,113846
113229,113873
113289,113925
113353,113945
113389,113968
113413,113963
113470,113978
113506,114050
113583,114027
113560,114051
113665,114111
113642,114087
113737,114132
113757,114128
113785,114140
113851,114165
113858,114205
113919,114184
113925,114237
113968,114263
114013,114255
114056,114298
114076,114281
114102,114286
114135,114335
114195,114359
114226,114383
114240,114346
114271,114395
114317,114423
114354,114413
114407,114472
114369,114414
114413,114458
114471,114496
114485,114472
114541,114534
114520,114538
114560,114562
114629,114557
114622,114583
114614,114577
114675,114580
114702,114589
114705,114636
114748,114644
114785,114653
114793,114622
114831,114693
114866,114677
114900,114712
114897,114714
114922,114722
114954,114724
115011,114759
115019,114751
115052,114744
115083,114810
115112,114801
115145,114821
115138,114820
115225,114838
115179,114874
115194,114870
115150,114862
115131,114840
115111,114794
115003,114765
114923,114728
114829,114632
114729,114621
114570,114537
114453,114493
114277,114383
114146,114295
113957,114257
113805,114140
113650,114087
113466,114022
113266,113897
113131,113862
112981,113785
112845,113707
112672,113658
112584,113565
112431,113524
112368,113473
112247,113458
112187,113365
112108,113390
112038,113329
111974,113300
111975,113289
111959,113288
111906,113261
111912,113280
111870,113251
111923,113283
111920,113262
111912,113271
111943,113298
111960,113268
112045,113326
112063,113310
112080,113341
112137,113356
112162,113399
112198,113378
112260,113422
112270,113450
112310,113449
112381,113452
112390,113506
112428,113514
112477,113527
112529,113538
112566,113584
112610,113584
112663,113614
112693,113601
112682,113656
112769,113669
112788,113663
112813,113672
112865,113695
112902,113733
112945,113729
112972,113760
113005,113797
113014,113773
113078,113822
113101,113844
113148,113875
113177,113856
113271,113906
113285,113888
113318,113933
113388,113960
113417,113975
113429,113992
113456,114003
113509,114019
113544,114053
113540,114088
113584,114033
113592,114074
113631,114090
113608,114060
113651,114088
113602,114063
113614,114102
113628,114078
113613,114095
113603,114072
113624,114060
113592,114091
113617,114086
113567,114056
113593,114082
113536,114059
113552,114066
113564,114069
113577,114089
113562,114046
113512,114059
113568,114036
113561,114037
113521,114061
113541,114070
113574,114079
113586,114090
113571,114089
113598,114067
113639,114108
113608,114089
113670,114093
113689,114143
113675,114115
113734,114154
113730,114170
113743,114145
113817,114184
113798,114174
113856,114202
113877,114215
113889,114250
113930,114249
113966,114264
114018,114260
114034,114318
114079,114315
114074,114335
114112,114337
114140,114332
114185,114393
114194,114369
114225,114397
114282,114399
114310,114459
114308,114417
114374,114476
114367,114494
114405,114489
114464,114495
114472,114517
114518,114561
114496,114548
114559,114596
114565,114584
114618,114587
114596,114574
114692,114616
114643,114636
114704,114628
114701,114649
114723,114673
114751,114656
114818,114685
114856,114674
114847,114713
114878,114706
114856,114717
114935,114778
114935,114759
114958,114738
114992,114770
114999,114764
115010,114801
115034,114768
115018,114786
115077,114787
115114,114825
115092,114806
115149,114835
115153,114854
115147,114827
115216,114848
115205,114878
115256,114894
115267,114900
115314,114902
115271,114908
115281,114887
115334,114905
115316,114893
115279,114902
115232,114868
115206,114827
115134,114835
115014,114735
114935,114706
114770,114654
114660,114569
114531,114511
114344,114446
114202,114343
114003,114264
113873,114216
113639,114083
113501,114054
113291,113923
113165,113853
112970,113751
112814,113714
112671,113624
112512,113564
112429,113503
112294,113444
112218,113402
112107,113390
112023,113352
111958,113310
111932,113258
111904,113289
111854,113222
111811,113217
111833,113228
111782,113223
111758,113180
111797,113239
111789,113243
111812,113223
111832,113230
111826,113234
111879,113272
111879,113266
111916,113268
111957,113299
111978,113300
111999,113314
112021,113312
112058,113349
112114,113366
112136,113374
112168,113396
112194,113402
112238,113419
112268,113446
112277,113442
112308,113475
112360,113464
112381,113507
112406,113489
112436,113510
112453,113527
112510,113532
112519,113553
112527,113547
112605,113581
112613,113610
112633,113612
112663,113605
112730,113658
112760,113678
112783,113680
112815,113687
112889,113743
112904,113769
112914,113744
113014,113812
113008,113823
113060,113815
113126,113850
113088,113831
113157,113876
113168,113867
113212,113925
113216,113896
113271,113928
113259,113891
113292,113928
113292,113968
113279,113923
113304,113923
113272,113934
113322,113914
113283,113954
113260,113919
113270,113970
113265,113919
113282,113930
113270,113906
113269,113934
113227,113931
113278,113914
113243,113927
113252,113918
113270,113957
113242,113930
113307,113937
113297,113955
113260,113921
113339,113954
113301,113968
113342,113961
113357,113980
113379,114001
113383,113990
113383,114013
113468,114017
113476,114037
113477,114022
113544,114049
113547,114079
113589,114071
113623,114112
113616,114130
113664,114108
113710,114151
113719,114138
113764,114178
113823,114205
113798,114226
113843,114187
113876,114272
113937,114242
113939,114256
113966,114316
113995,114265
114029,114345
114070,114318
114096,114321
114156,114355
114139,114377
114199,114390
114195,114396
114243,114434
114236,114410
114271,114431
114329,114444
114345,114454
114353,114470
114420,114485
114406,114524
114478,114526
114453,114523
114513,114546
114552,114543
114585,114599
114603,114593
114583,114587
114625,114619
114638,114614
114706,114626
114685,114652
114718,114637
114750,114642
114783,114650
114796,114695
114835,114660
114864,114724
114868,114708
114892,114727
114874,114734
114934,114745
114965,114788
114958,114737
115002,114785
114982,114767
115055,114826
115031,114787
115032,114784
115064,114798
115072,114820
115139,114855
115112,114825
115176,114876
115144,114855
115173,114829
115136,114843
115104,114833
115067,114814
114970,114788
114889,114681
114786,114687
114649,114611
114533,114521
114354,114425
114208,114401
114056,114288
113845,114201
113676,114112
113489,114024
113292,113911
113083,113883
112904,113766
112794,113673
112595,113593
112430,113559
112293,113458
112123,113402
112029,113362
111914,113269
111810,113217
111737,113213
111690,113168
111607,113116
111577,113093
111541,113123
111493,113092
111480,113051
111462,113074
111434,113056
111480,113102
111467,113044
111464,113061
111487,113053
111492,113068
111481,113043
111541,113099
111526,113112
111577,113112
111590,113118
111607,113112
111663,113118
111667,113165
111683,113126
111711,113180
111745,113167
111784,113224
111792,113207
111868,113223
111856,113270
111864,113259
111924,113274
111939,113256
111981,113292
111975,113286
112057,113341
112074,113321
112036,113334
112137,113350
112138,113347
112189,113389
112191,113374
112259,113418
112268,113454
112348,113427
112337,113487
112383,113455
112459,113535
112483,113517
112532,113557
112607,113562
112603,113607
112620,113595
112732,113650
112714,113626
112765,113659
112813,113659
112803,113709
112866,113677
112899,113724
112909,113722
112947,113735
112944,113746
112951,113724
112968,113730
112988,113779
112950,113733
112999,113742
112962,113777
112961,113757
112988,113773
112959,113757
113005,113759
112962,113758
112997,113761
112962,113754
113020,113744
112975,113799
112980,113790
113031,113785
113040,113784
113018,113806
113026,113765
113053,113823
113034,113791
113067,113844
113081,113829
113110,113826
113135,113824
113193,113859
113203,113852
113219,113870
113250,113893
113241,113876
113304,113900
113325,113942
113366,113931
113396,113971
113414,113971
113480,113972
113503,114053
113500,114010
113567,114070
113585,114082
113609,114086
113699,114127
113679,114111
113755,114146
113756,114163
113825,114184
113847,114182
113897,114206
113902,114202
113945,114255
113973,114225
114047,114303
114059,114295
114058,114312
114130,114311
114173,114347
114214,114388
114228,114372
114219,114388
114282,114383
114315,114434
114329,114392
114361,114432
114412,114443
114385,114471
114437,114458
114478,114517
114496,114493
114521,114506
114591,114527
114593,114571
114631,114533
114657,114562
114681,114590
114697,114603
114754,114618
114748,114629
114801,114637
114833,114663
114839,114674
114859,114679
114896,114683
114980,114731
114960,114739
115023,114748
115026,114803
115063,114789
115092,114801
115155,114820
115121,114832
115201,114822
115191,114853
115205,114829
115217,114825
115199,114864
115104,114826
115103,114772
115004,114725
114862,114662
114791,114623
114670,114535
114478,114504
114353,114388
114200,114347
114029,114252
113860,114150
113647,114073
113458,113983
113331,113900
113130,113835
112970,113739
112822,113666
112674,113631
112485,113534
112406,113476
112294,113470
112174,113336
112088,113340
111984,113282
111947,113255
