11111,11111
0,0
82264,82251
114380,116488
114433,116495
114461,116487
114471,116515
114538,116523
114563,116557
114619,116585
114646,116619
114670,116621
114669,116620
114755,116645
114761,116699
114819,116721
114849,116726
114892,116731
114971,116786
114962,116762
115061,116812
115072,116831
115093,116830
115198,116871
115180,116863
115218,116908
115273,116935
115343,116949
115326,116971
115382,116980
115439,117035
115444,117015
115521,117034
115579,117063
115575,117060
115625,117095
115611,117083
115703,117134
115753,117160
115714,117142
115805,117175
115785,117184
115885,117222
115863,117249
115890,117235
115955,117265
115990,117249
116015,117280
116052,117340
116094,117308
116094,117368
116118,117354
116149,117375
116200,117379
116256,117414
116253,117454
116268,117448
116305,117445
116323,117467
116368,117472
116382,117508
116423,117464
116431,117502
116464,117550
116503,117535
116525,117544
116568,117560
116563,117600
116607,117592
116618,117566
116705,117642
116666,117599
116723,117653
116725,117679
116775,117670
116798,117682
116847,117696
116860,117707
116896,117757
116908,117756
116938,117737
116970,117739
116985,117779
116905,117740
116914,117737
116863,117710
116783,117677
116681,117623
116583,117557
116474,117464
116325,117413
116159,117319
116037,117250
115845,117188
115671,117061
115462,116994
115301,116889
115113,116817
114920,116725
114749,116601
114571,116552
114391,116437
114252,116402
114073,116302
113957,116225
113851,116206
113726,116119
113683,116085
113551,116062
113500,116001
113449,115968
113382,115982
113360,115939
113326,115942
113298,115909
113312,115917
113297,115909
113280,115909
113276,115928
113305,115893
113360,115932
113337,115900
113370,115952
113411,115929
113401,115970
113487,115998
114271,116368
114900,116666
114868,116637
115073,116753
115082,116755
115117,116775
115796,117075
115812,117143
115850,117125
115837,117143
116238,117350
116308,117374
116305,117397
116344,117400
116362,117440
116369,117378
116383,117429
116395,117420
116435,117451
116460,117427
116497,117455
116499,117444
116538,117452
116550,117498
116581,117506
116548,117530
116618,117504
116616,117546
116630,117513
116662,117564
116648,117548
116717,117561
116711,117593
116744,117563
116782,117617
116766,117611
116783,117633
116828,117599
116827,117638
116807,117638
116800,117619
116766,117596
116754,117587
116680,117527
116603,117502
116524,117458
116406,117370
116292,117344
116117,117274
116002,117189
115831,117084
115663,117039
115487,116923
115289,116850
115130,116747
114903,116674
114727,116580
114546,116481
114348,116371
114188,116283
114059,116210
113852,116146
113773,116086
113618,116006
113486,115987
113357,115881
113285,115849
113204,115798
113130,115780
112999,115729
112999,115668
112934,115666
112923,115619
112851,115626
112849,115610
112808,115614
112836,115601
112789,115587
112787,115600
112814,115588
112807,115557
112832,115603
112814,115565
112843,115588
112850,115600
112847,115597
112903,115615
112880,115643
112930,115591
112924,115616
112902,115618
112955,115623
112986,115688
112975,115622
113008,115655
113007,115686
113022,115701
113027,115688
113062,115703
113067,115696
113060,115702
113129,115717
113126,115711
113178,115773
113186,115764
113205,115779
113272,115798
113282,115806
113302,115834
113353,115834
113397,115838
113456,115912
113448,115891
113500,115931
113553,115948
113569,115952
113592,115983
113675,115969
113675,116015
113739,116040
113780,116058
113763,116045
113804,116071
113813,116082
113852,116077
113842,116085
113895,116065
113884,116120
113852,116105
113866,116080
113883,116117
113867,116085
113856,116072
113862,116065
113883,116103
113778,116060
113808,116079
113798,116058
113795,116101
113771,116052
113757,116067
113756,116021
113786,116026
113760,116055
113779,116049
113813,116079
113781,116058
113825,116057
113790,116102
113817,116073
113896,116085
113869,116082
113937,116157
113895,116120
113941,116124
113996,116168
114003,116204
114049,116172
114092,116232
114072,116211
114148,116251
114186,116264
114209,116241
114247,116264
114274,116322
114291,116290
114317,116333
114356,116339
114390,116369
114437,116383
114469,116409
114457,116413
114520,116400
114528,116442
114572,116445
114577,116486
114589,116506
114651,116494
114675,116539
114692,116537
114758,116542
114799,116581
114784,116593
114827,116585
114868,116637
114891,116611
114941,116649
114930,116667
114973,116667
115040,116712
115031,116680
115083,116737
115132,116733
115113,116733
115185,116752
115181,116804
115214,116777
115294,116817
115306,116812
115308,116829
115360,116848
115342,116875
115386,116864
115456,116889
115463,116947
115503,116898
115531,116938
115517,116968
115540,116925
115578,116968
115570,116955
115620,117003
115663,117023
115634,117039
115667,116997
115697,117013
115720,117056
115747,117050
115757,117103
115774,117061
115820,117126
115827,117103
115882,117150
115883,117140
115885,117165
115937,117152
115969,117193
115978,117182
116000,117180
116027,117208
116066,117237
116078,117211
116151,117258
116107,117270
116176,117291
116192,117294
116150,117308
116169,117235
116132,117276
116104,117211
116052,117199
115912,117126
115863,117107
115685,117003
115577,116953
115403,116875
115246,116777
115048,116705
114864,116588
114658,116536
114430,116385
114279,116307
114028,116214
113821,116086
113654,115984
113440,115855
113259,115785
113076,115690
112892,115610
112709,115519
112575,115440
112478,115398
112302,115301
112233,115280
112132,115199
112069,115196
111985,115170
111928,115075
111887,115107
111833,115046
111839,115045
111784,115002
111782,115045
111787,115018
111796,115036
111789,115041
111799,115012
111766,115018
111792,115000
111830,115036
111804,115039
111833,115045
111872,115052
111897,115082
111906,115040
111938,115111
111921,115098
111949,115088
111994,115118
112043,115148
112062,115124
112082,115161
112066,115132
112089,115155
112150,115201
112146,115172
112192,115191
112185,115203
112225,115239
112270,115212
112276,115278
112341,115268
112315,115303
112386,115286
112428,115343
112469,115344
112508,115357
112527,115405
112548,115399
112650,115438
112655,115454
112705,115449
112763,115504
112800,115497
112887,115565
112880,115549
112942,115599
112956,115599
113008,115634
113032,115621
113101,115688
113053,115670
113104,115690
113111,115696
113093,115675
113142,115695
113175,115684
113126,115698
113142,115666
113144,115671
113142,115700
113116,115681
113177,115699
113115,115701
113118,115651
113113,115691
113110,115681
113096,115664
113132,115669
113091,115700
113147,115676
113160,115680
113131,115696
113162,115687
113211,115747
113176,115674
113221,115743
113251,115722
113275,115730
113307,115765
113302,115787
113321,115766
113408,115831
113390,115816
113455,115827
113458,115872
113491,115832
113556,115898
113561,115899
113590,115917
113626,115925
113687,115987
113701,115942
113762,115991
113776,116005
113776,116036
113855,116045
113862,116060
113889,116055
113961,116122
113965,116091
114014,116112
114030,116139
114090,116153
114096,116187
114165,116215
114173,116238
114251,116269
114274,116270
114325,116281
114326,116321
114328,116305
114419,116360
114436,116361
114515,116362
114530,116399
114533,116380
114592,116446
114638,116449
114651,116481
114698,116486
114743,116499
114750,116517
114798,116546
114847,116547
114897,116574
114929,116607
114939,116606
114999,116655
115019,116668
115054,116672
115083,116676
115155,116738
115173,116750
115199,116762
115230,116773
115265,116789
115319,116805
115328,116806
115362,116836
115366,116849
115453,116891
115474,116909
115450,116910
115526,116916
115581,116950
115598,116984
115642,116988
115649,116991
115689,116993
115725,117010
115760,117072
115799,117061
115823,117075
115859,117116
115892,117123
115919,117124
115987,117152
116008,117178
116059,117194
116062,117200
116130,117230
116167,117228
116169,117254
116204,117262
116224,117257
116246,117276
116244,117278
116248,117272
116209,117276
116191,117226
116078,117189
116014,117152
115908,117093
115754,117023
115610,116966
115500,116867
115326,116788
115144,116713
114982,116622
114763,116545
114577,116388
114417,116361
114228,116238
114043,116152
113842,116070
113708,115944
113504,115912
113402,115827
113242,115732
113104,115690
113034,115647
112912,115570
112802,115536
112719,115523
112639,115445
112636,115441
112580,115385
112547,115398
112504,115358
112520,115356
112500,115401
112499,115381
112479,115354
112515,115365
112534,115359
112550,115407
112539,115350
112578,115405
112643,115412
112676,115430
112662,115459
112740,115441
112749,115478
112775,115473
112795,115502
112887,115533
112857,115548
112897,115536
112982,115604
113013,115598
113080,115613
113089,115639
113103,115667
113180,115705
113209,115716
113239,115734
113283,115743
113278,115746
113377,115777
113399,115811
113411,115825
113437,115816
113493,115855
113540,115868
113602,115905
113611,115940
113661,115963
113725,115971
113792,116038
113814,116031
113877,116019
113915,116062
113981,116085
114050,116134
114035,116146
114161,116181
114183,116197
114199,116213
114252,116225
114282,116225
114274,116274
114321,116282
114342,116278
114350,116293
114364,116272
114395,116319
114416,116300
114397,116299
114406,116340
114405,116285
114405,116330
114428,116310
114397,116312
114399,116309
114382,116309
114400,116305
114408,116287
114404,116305
114393,116316
114398,116294
114429,116336
114453,116329
114435,116328
114447,116339
114497,116322
114511,116398
114536,116380
114535,116368
114581,116390
114604,116384
114687,116446
114678,116457
114691,116452
114735,116494
114746,116512
114817,116516
114861,116536
114861,116528
114919,116575
114954,116610
114977,116581
115019,116635
115057,116627
115067,116649
115123,116651
115177,116707
115230,116698
115223,116737
115264,116737
115316,116787
115342,116758
115378,116795
115432,116826
115442,116846
115495,116849
115510,116885
115569,116913
115552,116878
115645,116930
115656,116947
115695,116927
115722,116970
115755,117013
115811,117001
115814,117016
115887,117032
115865,117072
115874,117042
115963,117134
115962,117096
115988,117080
116044,117152
116007,117148
112341,115249
112206,115182
111552,114821
111553,114809
111572,114816
111584,114846
111631,114830
111629,114832
111634,114889
111670,114877
111664,114879
111705,114920
111679,114880
111743,114889
111701,114922
111769,114933
111752,114942
111776,114913
111824,114966
111819,114952
111812,114954
111866,115001
111845,114965
111904,114973
111914,115021
111905,114992
111983,115009
111958,115072
112021,115031
112049,115051
112070,115075
112137,115098
112160,115144
112220,115140
112245,115172
112292,115185
112354,115220
112377,115253
112434,115270
112434,115270
112500,115299
112559,115334
112570,115347
112610,115371
112646,115384
112627,115374
112676,115401
112683,115391
112675,115419
112726,115399
112696,115399
112711,115402
112715,115417
112724,115424
112725,115432
112674,115419
112712,115409
112710,115414
112686,115427
112679,115384
112688,115406
112651,115379
112671,115406
112674,115368
112719,115412
112653,115430
112714,115394
112707,115420
112751,115400
112770,115459
112736,115442
112825,115498
112820,115467
112850,115506
112837,115491
112916,115506
112901,115519
112950,115542
112979,115568
113023,115589
112987,115581
113081,115599
113103,115592
113129,115683
113191,115675
113202,115640
113264,115720
113253,115715
113331,115693
113366,115752
113365,115746
113402,115749
113461,115818
113460,115802
113480,115819
113523,115820
113569,115883
113587,115863
113614,115891
113622,115892
113706,115920
113717,115964
113727,115951
113757,116011
113800,115993
113870,116009
113884,116038
113911,116063
113982,116077
113985,116105
114030,116154
114030,116134
114066,116115
114123,116176
114156,116166
114208,116198
114205,116234
114196,116231
114300,116231
114297,116245
114336,116265
114333,116302
114351,116267
114412,116338
114432,116341
114492,116324
114521,116369
114484,116393
114583,116381
114565,116411
114573,116393
114636,116419
114627,116410
114666,116479
114662,116468
114725,116479
114767,116489
114782,116535
114840,116522
114887,116543
114863,116584
114889,116582
114980,116584
114996,116653
115008,116618
115037,116651
115123,116661
115115,116710
115111,116642
115121,116697
115082,116683
115031,116642
115009,116605
114938,116562
114855,116552
114695,116469
114596,116417
114437,116300
114311,116288
114102,116170
113922,116057
113779,115978
113558,115911
113369,115760
113204,115695
112994,115608
112763,115510
112597,115386
112443,115302
112267,115246
112116,115133
111966,115075
111811,114988
111735,114966
111614,114912
111566,114843
111477,114812
111445,114825
111391,114742
111369,114767
111310,114742
111334,114712
111329,114730
111372,114764
111317,114782
111355,114737
111382,114773
111382,114766
111424,114844
111416,114816
111524,114829
111524,114873
111557,114845
111607,114909
111626,114904
111680,114904
111725,114926
111761,114984
111779,114977
111808,114977
111858,115000
111885,115063
111905,115037
111930,115084
111972,115073
111990,115086
112051,115094
112090,115086
112086,115156
112090,115142
112159,115169
112183,115176
112265,115186
112260,115233
112269,115249
112361,115246
112403,115271
112429,115324
112493,115341
112575,115360
112596,115441
112646,115418
112756,115478
112775,115454
112851,115539
112920,115561
112900,115583
113008,115582
113071,115630
113059,115651
113163,115694
113189,115735
113206,115688
113268,115736
113283,115736
113344,115749
113356,115783
113324,115817
113387,115778
113417,115827
113413,115829
113401,115818
113377,115781
113444,115822
113422,115863
113430,115797
113008,115582
113008,115582
113008,115582
113659,115965
113743,115977
113796,116032
113760,116008
113815,116070
113881,116070
113934,116094
113956,116128
114040,116131
114018,116164
114083,116143
114107,116191
114173,116191
114182,116262
114247,116252
114265,116278
114348,116290
114360,116293
114392,116382
114455,116368
114448,116379
114548,116384
114563,116442
114587,116390
114613,116458
114674,116483
114644,116481
114752,116498
114767,116562
114831,116567
114859,116579
114887,116576
114880,116621
114942,116632
114964,116643
115013,116674
115091,116705
115063,116690
115092,116707
115130,116705
115181,116737
115179,116770
115224,116764
115257,116772
115279,116791
115312,116829
115336,116789
115332,116819
115407,116842
115392,116832
115454,116878
115440,116890
115466,116875
115515,116922
115524,116927
115541,116932
115625,116970
115614,116982
115622,116958
115677,117015
115654,117012
115740,117026
115704,117048
115750,117064
115773,117033
115831,117067
115856,117099
115860,117114
115893,117135
115934,117117
116007,117161
115981,117149
116065,117200
116090,117186
116100,117217
116103,117229
116179,117240
116165,117236
116197,117251
116188,117257
116150,117243
116200,117230
116126,117232
116075,117166
115974,117117
115899,117061
115794,117040
115638,116982
115494,116854
115312,116760
115204,116718
114984,116613
114831,116525
114658,116493
114447,116342
114238,116266
114111,116173
113906,116071
113803,116044
113565,115929
113473,115866
113329,115794
113188,115746
113089,115712
113006,115661
112911,115601
112862,115601
112783,115549
112742,115505
112740,115516
112678,115506
112688,115458
112663,115481
112623,115474
112635,115472
112651,115437
112717,115500
112648,115480
112707,115483
112696,115459
112744,115479
112786,115514
112770,115510
112847,115530
112858,115564
112887,115563
112883,115581
112886,115545
112940,115619
112933,115604
112986,115635
112985,115639
112988,115629
113055,115660
113059,115682
113042,115636
113095,115674
113072,115705
113135,115682
113168,115702
113154,115743
113149,115702
113224,115735
113216,115767
113259,115780
113319,115814
113300,115810
113381,115823
113401,115853
113474,115880
113524,115896
113545,115940
113526,115896
113642,115966
113631,115958
113663,115970
113743,115987
113720,116014
113747,116004
113791,116021
113763,116046
113799,116044
113790,116034
113777,116073
113763,116035
113810,116036
113743,116045
113748,116033
113736,116036
113664,115993
113677,115972
113630,115975
113618,115954
113585,115916
113593,115928
113552,115935
113479,115895
113502,115868
113466,115903
113473,115862
113420,115884
113477,115885
113480,115892
113413,115860
113445,115858
113444,115888
113469,115888
113485,115884
113504,115908
113517,115925
113534,115920
113545,115903
113554,115922
113595,115936
113641,115990
113618,115982
113678,115991
113654,116013
113699,116036
113751,115999
113795,116080
113799,116030
113824,116088
113869,116105
113881,116099
113928,116129
113986,116126
113962,116143
114037,116183
114028,116201
114091,116212
114124,116197
114109,116227
114152,116253
114218,116249
114208,116250
114259,116298
114301,116308
114308,116318
114343,116338
114371,116365
114405,116368
114445,116382
114492,116398
114503,116397
114515,116413
114548,116428
114579,116434
114596,116474
114633,116496
114644,116491
114682,116496
114703,116525
114740,116555
114757,116546
114767,116552
114776,116598
114791,116557
114838,116599
114842,116610
114876,116610
114865,116608
114929,116610
114910,116638
114983,116643
114971,116694
115028,116664
115082,116721
115077,116678
115109,116741
115143,116737
115161,116751
115160,116785
115236,116769
115239,116806
115268,116784
115299,116839
115288,116852
115316,116840
115365,116863
115327,116849
115327,116846
115360,116825
115287,116846
115198,116787
115153,116721
115060,116687
114906,116624
114784,116569
114618,116461
114492,116397
114321,116300
114077,116234
113902,116073
113740,116049
113500,115903
113299,115811
113131,115738
112912,115601
112708,115553
112597,115470
112422,115379
112256,115302
112148,115216
112030,115197
111865,115101
111822,115068
111717,115057
111609,114965
111571,114916
111502,114933
111425,114899
111427,114883
111395,114848
111438,114863
111366,114832
111350,114844
111411,114817
111367,114841
111373,114814
111399,114874
111404,114857
111407,114836
111458,114861
111434,114857
111470,114877
111461,114869
111440,114866
111520,114874
111496,114944
111537,114886
111545,114911
111517,114903
111570,114899
111570,114919
111578,114922
111588,114927
111627,114955
111624,114943
111656,114958
111622,114954
111693,114938
111698,114977
111715,114999
111722,115016
111792,115029
111773,115064
111816,115010
111861,115035
111880,115084
111923,115092
111987,115117
112004,115095
112069,115172
112086,115169
112165,115244
112195,115242
112220,115227
112291,115264
112312,115336
112349,115342
112345,115332
112420,115343
112445,115376
112400,115357
112499,115381
112486,115380
112479,115375
112537,115413
112486,115429
112489,115358
112518,115405
112519,115362
112474,115374
112490,115412
112469,115379
112446,115382
112409,115362
112407,115362
112435,115353
112396,115368
112384,115332
112446,115384
112406,115361
112401,115334
112437,115371
112435,115376
112396,115355
112499,115390
112483,115417
112507,115440
112487,115399
112544,115393
112569,115455
112550,115467
112629,115469
112653,115513
112690,115492
112698,115503
112739,115526
112760,115525
112820,115559
112848,115573
112865,115587
112901,115630
112898,115629
112939,115617
112996,115687
113002,115661
113054,115715
113067,115696
113132,115737
113135,115778
113174,115751
113181,115740
113249,115778
113261,115840
113326,115814
113342,115880
113355,115815
113415,115853
113410,115886
113463,115934
113445,115927
113536,115929
113536,115977
113555,115961
113594,115981
113615,116005
113638,115982
113676,116052
113690,116051
113759,116089
113754,116118
113784,116086
113856,116115
113822,116145
113847,116115
113884,116153
113861,116131
113927,116151
113910,116193
113930,116159
113949,116209
113923,116181
114001,116212
114009,116233
113985,116178
114093,116243
114051,116265
114100,116288
114112,116261
114134,116247
114152,116304
114169,116280
114205,116325
114290,116355
114233,116323
114306,116368
114316,116399
114331,116374
114366,116415
114379,116388
114419,116431
114462,116494
114472,116452
114551,116485
114564,116503
114598,116514
114608,116512
114627,116548
114586,116520
114617,116537
114560,116517
114548,116474
114469,116470
114411,116422
114293,116338
114183,116279
114029,116257
113884,116124
113709,116080
113538,115947
113337,115871
113076,115740
112917,115688
112678,115548
112451,115465
112246,115347
112084,115222
111859,115165
111685,115027
111488,114928
111368,114846
111214,114808
111044,114720
110971,114654
110855,114651
110765,114581
110739,114565
110672,114484
110595,114486
110628,114465
110552,114483
110559,114419
110522,114435
110540,114443
110578,114502
110513,114467
110570,114465
110604,114482
110582,114464
110596,114482
110639,114462
110637,114508
110683,114496
110643,114506
110717,114514
110748,114568
110735,114515
110798,114576
110783,114575
110794,114559
110842,114586
110845,114584
110898,114623
110919,114662
110910,114637
110968,114630
110941,114693
110995,114682
110968,114688
111029,114655
111074,114732
111109,114711
111159,114741
111160,114770
111213,114784
111258,114829
111272,114803
111349,114821
111377,114878
111429,114882
111508,114957
111540,114928
111590,115012
111635,115004
111640,115044
111717,115033
111790,115108
111840,115142
111881,115125
111946,115156
111963,115196
111970,115179
112063,115209
112027,115255
112073,115224
112123,115256
112083,115225
112097,115240
112180,115268
112127,115255
112160,115268
112150,115234
112146,115276
112156,115248
112219,115291
112173,115317
112187,115269
112208,115273
112226,115307
112184,115305
112240,115284
112235,115308
112278,115345
112262,115344
112349,115336
112362,115363
112341,115343
112413,115399
112406,115407
112479,115475
112514,115441
112562,115500
112552,115478
112638,115528
112678,115549
112727,115589
112770,115619
112802,115613
112879,115653
112914,115696
112971,115718
112995,115700
113033,115751
113140,115748
113134,115845
113182,115793
113263,115843
113302,115847
113377,115908
113370,115910
113460,115976
113439,115944
113546,116019
113552,115987
113573,116043
113665,116074
113683,116082
113754,116074
113770,116082
113794,116166
113864,116173
113909,116169
113961,116210
113968,116264
114048,116268
114071,116318
114152,116304
114160,116342
114189,116327
114278,116379
114306,116404
114310,116413
114385,116423
114419,116471
114426,116489
114479,116474
114521,116528
114536,116538
114642,116548
114634,116588
114632,116570
114733,116630
114718,116618
114776,116631
114835,116696
114842,116706
114886,116702
114932,116754
114935,116726
114985,116762
115019,116802
115051,116795
115123,116815
115098,116848
115169,116856
115193,116863
115235,116906
115246,116897
115297,116909
115295,116946
115319,116964
115351,116966
115384,116957
115407,116995
115478,117005
115469,117024
115545,117065
115558,117051
115549,117068
115632,117089
115660,117107
115651,117107
115712,117139
115711,117144
115758,117168
115796,117184
115845,117196
115871,117223
115886,117220
115949,117267
115966,117301
116000,117292
116015,117309
116097,117342
116100,117316
116129,117388
116132,117388
116186,117391
116150,117368
116178,117409
116156,117353
116115,117378
116043,117307
116004,117264
115922,117208
115768,117173
115629,117088
115495,117033
115281,116895
115123,116810
114958,116715
114726,116621
114547,116516
114325,116461
114100,116341
113923,116268
113718,116170
113577,116065
113444,116025
113255,115933
113151,115835
112963,115800
112874,115722
112784,115679
112699,115664
112600,115607
112593,115613
112525,115565
112473,115552
112469,115503
112450,115536
112457,115498
112462,115527
112471,115548
112496,115546
112530,115530
112584,115560
112569,115550
112622,115607
112618,115611
112696,115585
112698,115661
112757,115652
112803,115673
112858,115666
112909,115733
112927,115735
112992,115754
112997,115802
113019,115780
113116,115834
113125,115833
113170,115843
113233,115899
113255,115891
113258,115935
113351,115942
113341,115959
113372,116002
113409,115971
113494,116026
113521,116006
113548,116080
113625,116082
113653,116125
113693,116103
113752,116121
113828,116182
113845,116222
113888,116212
113984,116280
114007,116276
114073,116315
114095,116350
114150,116357
114238,116385
114212,116384
114289,116391
114277,116434
114340,116428
114378,116427
114444,116477
114378,116481
114417,116466
114478,116503
114472,116508
114475,116522
114431,116461
114489,116513
114434,116459
114453,116490
114428,116514
114438,116463
114394,116463
114395,116448
114421,116482
114422,116472
114380,116462
114413,116478
114421,116453
114384,116495
114420,116477
114405,116492
114416,116487
114430,116444
114491,116524
114463,116471
114489,116493
114506,116532
114547,116527
114580,116513
114642,116577
114597,116542
114671,116597
114706,116596
114744,116621
114784,116651
114795,116636
114860,116661
114871,116677
114942,116721
114949,116707
115006,116746
115020,116735
115089,116765
115091,116803
115167,116817
115197,116848
115241,116849
115287,116881
115280,116882
115366,116926
115392,116937
115423,116964
115423,116981
115525,116990
115508,117043
115557,117026
115590,117071
115628,117092
115617,117111
115685,117129
115693,117121
115739,117152
115784,117139
115804,117124
115839,117181
115818,117200
115872,117183
115907,117228
115913,117234
115917,117274
115975,117220
115982,117265
116014,117258
116033,117289
116064,117299
116054,117276
116143,117320
116115,117369
116168,117295
116210,117369
116195,117378
116236,117375
116313,117378
116345,117451
116403,117417
116424,117470
116515,117529
116546,117517
116594,117566
116591,117560
116693,117583
116721,117574
116765,117648
116727,117632
116771,117606
116847,117655
116822,117637
116806,117661
116877,117664
116888,117642
116854,117697
116873,117660
116892,117702
116912,117684
116890,117681
116831,117622
116842,117626
116765,117617
116744,117563
116621,117515
116559,117490
116454,117448
116274,117380
116174,117258
116063,117212
115879,117124
115674,117047
115509,116988
115325,116833
115090,116752
114894,116696
114678,116565
114528,116459
114328,116377
114155,116295
113928,116220
113808,116136
113626,116060
113499,116012
113366,115945
113280,115949
113145,115877
113122,115820
113025,115828
112931,115791
112919,115769
112856,115762
112817,115772
112744,115686
112736,115727
112695,115645
112666,115691
112651,115627
112647,115670
112585,115654
112593,115664
112609,115634
112566,115626
112601,115626
112586,115606
112634,115666
112650,115621
112673,115635
112639,115673
112672,115640
112742,115673
112709,115697
112750,115659
112788,115657
112772,115681
112868,115723
112833,115713
112879,115708
112901,115729
112972,115758
112963,115796
112957,115781
113097,115772
113065,115878
113154,115892
113184,115892
113308,115924
113344,116029
113376,115976
113461,116044
113512,116063
113555,116086
113605,116154
113623,116102
113666,116169
113667,116162
113739,116174
113731,116194
113778,116257
113831,116225
113823,116267
113847,116247
113888,116286
113895,116287
113955,116309
113963,116336
114007,116324
114022,116371
114041,116375
114076,116398
114082,116387
114112,116404
114117,116453
114144,116408
114178,116450
114173,116449
114221,116482
114200,116527
114234,116458
114267,116501
114263,116511
114277,116531
114288,116549
114320,116535
114286,116518
114326,116554
114315,116525
114321,116570
114322,116560
114339,116526
114377,116615
114372,116572
114403,116601
114422,116617
114501,116649
114467,116615
114555,116666
114545,116685
114616,116723
114626,116723
114668,116736
114719,116727
114783,116788
114795,116786
114854,116817
114935,116802
114986,116902
114982,116877
115078,116922
115102,116947
115133,116970
115212,116996
115274,117023
115295,117036
115368,117053
115419,117103
115453,117094
115531,117182
115559,117130
115615,117192
115674,117174
115707,117243
115734,117218
115770,117287
115799,117255
115851,117313
115815,117345
115888,117274
115922,117348
115920,117346
115974,117385
115962,117357
116028,117386
115998,117400
115996,117357
116080,117398
116050,117421
116092,117465
116087,117461
116106,117438
116136,117492
116129,117486
116189,117456
116228,117531
116173,117513
116255,117525
116259,117582
116347,117564
116340,117611
116380,117576
116449,117653
116434,117627
116476,117649
116465,117688
116509,117645
116562,117739
116555,117693
116597,117732
116621,117743
116657,117765
116671,117779
116685,117760
116707,117820
116697,117754
116692,117764
116639,117761
116658,117728
116615,117741
116498,117683
116453,117632
116300,117574
116238,117559
116117,117492
115920,117425
115758,117283
115623,117226
115461,117121
115234,117074
115045,116978
114883,116845
114691,116821
114519,116667
114396,116630
114191,116536
114044,116493
113961,116412
113806,116339
113680,116310
113590,116267
113519,116203
113403,116148
113319,116121
113255,116088
113196,116058
113164,116044
113131,116036
113073,116005
113055,115993
113074,115978
113014,115977
113046,115991
113035,115967
112966,115936
113003,115970
113009,115948
112995,115952
113013,115995
113042,115959
113012,115976
112998,116000
113034,115983
113074,115995
113068,116042
113077,115981
113124,116017
113089,115993
113171,116013
113144,116041
113166,116079
113142,116028
113210,116096
113162,116072
113229,116111
113233,116078
113259,116123
113272,116088
113311,116100
113326,116149
113300,116139
113364,116138
113388,116204
113410,116200
113511,116215
113533,116245
113589,116264
113601,116289
113693,116347
113734,116383
113758,116366
113856,116379
113889,116439
113918,116431
113951,116462
114010,116464
114046,116503
114063,116520
114125,116535
114153,116530
114188,116585
114138,116553
114203,116612
114179,116576
114220,116565
114203,116597
114243,116611
114226,116555
114241,116608
114242,116566
114246,116591
114213,116603
114199,116611
114184,116580
114234,116600
114206,116590
114247,116597
114229,116579
114211,116590
114229,116601
114174,116585
114238,116572
114210,116582
114257,116595
114245,116641
114242,116604
114309,116636
114283,116598
114313,116650
114323,116662
114359,116653
114386,116710
114452,116699
114424,116704
114424,116710
114495,116715
114502,116782
114530,116775
114563,116776
114609,116791
114632,116813
114650,116787
114674,116850
114702,116838
114770,116873
114819,116891
114821,116944
114857,116928
114932,116920
114965,116948
114989,116998
114986,116965
115060,117008
115091,117026
115124,117076
115145,117042
115250,117116
115212,117110
115247,117104
115327,117141
115341,117179
115353,117164
115410,117203
115440,117249
115426,117218
115489,117246
115542,117238
115541,117263
115614,117313
115611,117285
115675,117347
115678,117301
115658,117341
115722,117358
115733,117399
115748,117386
115793,117409
115832,117425
115832,117413
115864,117459
115858,117449
115898,117453
115901,117493
115979,117491
115936,117514
115995,117520
115978,117492
116020,117527
116036,117531
116087,117561
116105,117580
116115,117550
116146,117575
116138,117609
116181,117577
116161,117585
116224,117612
116228,117645
116229,117622
116298,117669
116288,117680
116298,117645
116345,117670
116388,117689
116403,117727
116396,117712
116434,117725
116414,117738
116476,117742
116443,117743
116428,117710
116419,117754
116363,117723
116323,117683
116195,117614
116160,117568
116018,117572
115891,117463
115815,117401
115684,117368
115487,117270
115357,117213
115117,117122
114990,116992
114861,116964
114690,116854
114512,116794
114377,116704
114266,116670
114102,116557
113988,116530
113910,116480
113805,116417
113708,116387
113656,116389
113555,116334
113547,116285
113503,116270
113473,116283
113420,116231
113428,116253
113385,116192
113389,116237
113392,116234
113386,116210
113373,116252
113402,116197
113409,116260
113374,116217
113408,116223
113370,116206
113408,116247
113376,116197
113445,116261
113379,116202
113373,116189
113428,116213
113389,116265
113389,116193
113432,116237
113386,116257
113393,116202
113365,116206
113412,116212
113392,116241
113387,116232
113431,116238
113436,116265
113465,116212
113452,116245
113508,116251
113486,116236
113563,116305
113526,116292
113612,116325
113639,116323
113678,116349
113749,116366
113746,116395
113843,116414
113890,116441
113928,116504
113938,116496
114056,116521
114093,116523
114147,116564
114210,116608
114227,116646
114321,116667
114354,116705
114372,116696
114421,116748
114490,116736
114441,116785
114495,116744
114577,116785
114558,116811
114600,116795
114609,116827
114582,116831
114591,116786
114625,116858
114604,116822
114601,116846
114620,116819
114645,116855
114602,116837
114688,116861
114637,116870
114629,116860
114688,116881
114680,116875
114657,116884
114711,116859
114677,116887
114713,116849
114735,116918
114758,116914
114728,116859
114795,116909
114806,116956
114842,116905
114850,116985
114863,116983
114878,116932
114936,116996
114923,116977
114975,117020
115003,117011
115084,117043
115118,117105
115134,117075
115192,117113
115261,117126
115297,117165
115258,117186
115347,117200
115366,117215
115437,117244
115474,117279
115547,117276
115544,117316
115583,117296
115677,117372
115682,117369
115686,117375
115765,117431
115781,117428
115825,117437
115885,117457
115921,117463
115928,117507
115981,117524
116015,117524
116050,117561
116070,117599
116121,117609
116115,117617
116168,117572
116271,117643
116222,117668
116277,117667
116311,117655
116303,117694
116346,117699
116392,117736
116395,117732
116424,117772
116483,117753
116492,117757
116499,117808
116533,117776
116570,117810
116542,117811
116602,117856
116604,117846
116668,117829
116706,117865
116661,117903
116704,117853
116754,117928
116771,117898
116788,117926
116814,117962
116818,117948
116871,117927
116873,117977
116952,117974
116930,118013
117005,117986
116978,118065
117047,118033
117071,118074
117049,118070
117121,118080
117130,118076
117189,118133
117189,118136
117257,118126
117299,118165
117277,118184
117357,118169
117386,118223
117376,118173
117437,118214
117491,118246
117503,118264
117496,118296
117546,118270
117598,118336
117606,118287
117593,118342
117676,118336
117718,118367
117734,118357
117741,118386
117723,118387
117773,118403
117755,118376
117760,118383
117727,118362
117666,118347
117649,118310
117553,118250
117450,118225
117402,118151
117240,118105
117166,118093
117060,117995
116906,117948
116798,117897
116688,117801
116504,117755
116425,117682
116275,117620
116154,117559
116022,117497
115906,117484
115835,117417
115724,117386
115656,117318
115559,117289
115536,117267
115432,117250
115374,117192
115405,117225
115346,117200
115328,117174
115308,117187
115300,117158
115316,117195
115336,117185
115296,117184
115356,117176
115385,117239
115347,117186
115381,117222
115441,117236
115477,117230
115497,117269
115482,117235
115513,117279
115563,117297
115549,117296
115601,117290
115634,117300
115631,117372
115683,117334
115719,117385
115707,117385
115752,117407
115769,117412
115788,117398
115816,117438
115814,117427
115909,117428
115908,117448
115905,117454
115944,117491
115959,117462
115979,117499
116027,117519
116023,117511
116079,117554
116079,117538
116110,117571
116146,117605
116194,117595
116216,117631
116247,117637
116272,117643
116325,117646
116388,117663
116356,117676
116414,117706
116447,117732
116458,117716
116513,117770
116525,117759
116526,117746
116560,117748
116587,117796
116588,117768
116629,117758
116652,117840
116638,117760
116667,117813
116663,117826
116641,117806
116649,117782
116701,117833
116709,117814
116692,117801
116658,117813
116675,117794
116723,117829
116738,117821
116703,117846
116743,117797
116723,117840
116711,117849
116711,117823
116771,117827
116763,117866
116805,117872
116827,117853
116846,117887
116828,117900
116878,117903
116874,117907
116914,117881
116954,117933
116950,117955
116988,117953
116974,117937
117033,117978
117029,118006
117075,118000
117106,118013
117173,118020
117136,118044
117158,118039
117233,118042
117236,118107
117229,118088
117315,118081
117338,118109
117344,118124
117371,118109
117398,118147
117401,118151
117427,118170
117485,118161
117509,118208
117496,118211
117565,118220
117588,118233
117589,118243
117657,118246
117652,118297
117659,118248
117731,118303
117699,118301
117773,118329
117787,118331
117830,118335
117841,118335
117856,118404
117912,118367
117898,118411
117930,118410
117973,118424
118001,118449
118023,118422
118028,118451
118094,118489
118070,118474
118158,118490
118171,118488
118192,118488
118215,118543
118215,118542
118263,118525
118257,118575
118300,118564
118353,118611
118374,118576
118353,118601
118390,118597
118411,118615
118424,118631
118438,118636
118470,118651
118496,118660
118491,118674
118530,118704
118526,118674
118576,118742
118590,118689
118610,118701
118622,118705
118677,118725
118640,118768
118667,118765
118733,118756
118714,118795
118718,118771
118761,118797
118770,118774
118737,118775
118715,118761
118691,118746
118642,118728
118623,118671
118547,118663
118505,118632
118377,118607
118297,118519
118247,118532
118110,118455
118002,118424
117927,118357
117847,118300
117735,118295
117610,118209
117563,118187
117505,118152
117367,118088
117311,118024
117253,118030
117134,117954
117138,117972
117045,117932
117023,117929
116981,117869
116944,117904
116892,117864
116911,117866
116881,117856
116838,117848
116873,117842
116867,117836
116836,117821
116857,117846
116856,117835
116823,117863
116865,117856
116880,117849
116885,117874
116887,117840
116865,117850
116906,117890
116944,117865
116906,117884
116901,117861
116929,117892
116956,117887
116978,117883
116975,117903
116951,117873
116994,117917
116980,117931
117013,117895
117046,117903
116998,117922
117037,117949
117052,117958
117044,117920
117089,117930
117061,117981
117097,117938
117149,117975
117100,117991
117166,118004
117183,118028
117190,118032
117210,118003
117273,118078
117243,118066
117318,118061
117311,118054
117354,118087
117419,118107
117378,118129
117393,118062
117426,118091
117456,118103
117401,118119
117451,118090
117497,118151
117491,118112
117513,118149
117496,118148
117497,118174
117525,118109
117501,118164
117495,118137
117542,118166
117520,118131
117487,118149
117494,118134
117556,118124
117505,118170
117500,118160
117558,118158
117528,118130
117552,118181
117517,118107
117575,118161
117541,118178
117539,118117
117548,118169
117545,118155
117597,118173
117547,118162
117579,118199
117610,118156
117621,118236
117629,118228
117653,118249
117646,118218
117681,118232
117703,118246
117721,118249
117709,118284
117757,118245
117816,118300
117819,118303
117823,118291
117849,118291
117903,118327
117889,118357
117941,118323
117905,118370
117975,118366
117979,118354
117999,118409
118065,118417
118054,118401
118070,118415
118071,118452
118152,118464
118126,118431
118156,118454
118203,118515
118236,118491
118239,118518
118298,118508
118299,118542
118281,118494
118338,118539
118374,118543
118331,118548
118398,118575
118372,118585
118394,118586
118432,118620
118453,118571
118453,118613
118439,118609
118465,118578
118507,118603
118510,118643
118497,118594
118566,118644
118537,118656
118547,118619
118588,118693
118572,118684
118592,118652
118611,118698
118656,118690
118657,118721
118700,118706
118728,118750
118764,118769
118746,118774
118802,118751
118786,118787
118794,118748
118831,118793
118871,118796
118846,118797
118885,118851
118898,118785
118940,118841
118925,118816
118956,118849
118963,118868
119019,118855
119004,118876
119049,118886
119040,118883
119053,118885
119090,118887
119023,118868
119010,118870
118998,118845
118918,118824
118905,118785
118859,118779
118776,118736
118706,118695
118632,118662
118555,118635
118472,118574
118360,118541
118309,118496
118238,118439
118124,118403
118049,118376
117941,118326
117904,118291
117818,118256
117762,118230
117657,118219
117609,118181
117579,118113
117538,118148
117465,118097
117447,118094
117440,118073
117392,118102
117347,118042
117376,118044
117347,118050
117275,118050
117313,118024
117318,118039
117286,118009
117283,118011
117309,118062
117266,118028
117279,117998
117307,118060
117308,118018
117308,118040
117295,118024
117332,118023
117338,118053
117314,118050
117303,118085
117345,118059
117318,118054
117347,118057
117360,118038
117379,118091
117370,118081
117389,118089
117416,118083
117371,118105
117402,118053
117407,118100
117410,118083
117435,118065
117435,118108
117393,118076
117441,118137
117448,118101
117435,118106
117485,118093
117467,118139
117518,118114
117496,118155
117505,118132
117558,118131
117592,118184
117568,118148
117624,118196
117627,118170
117633,118207
117669,118212
117667,118187
117655,118218
117689,118193
117743,118211
117723,118234
117699,118224
117750,118245
117763,118264
117735,118257
117749,118203
117739,118265
117796,118244
117746,118259
117762,118239
117761,118271
117777,118241
117762,118262
117784,118235
117750,118245
117803,118266
117787,118254
117740,118242
117813,118267
117805,118263
117777,118242
117829,118275
117835,118273
117811,118276
117849,118294
117875,118284
117850,118266
117874,118323
117911,118312
117864,118291
117943,118307
117944,118323
117953,118345
117959,118338
117970,118366
118005,118370
118033,118371
118007,118379
118090,118390
118089,118407
118077,118360
118072,118394
118131,118441
118128,118400
118179,118426
118147,118465
118195,118443
118208,118449
118240,118480
118261,118457
118237,118507
118280,118505
118283,118463
118323,118530
118332,118506
118330,118499
118353,118531
118380,118521
118370,118535
118420,118520
118419,118549
118463,118578
118468,118578
118531,118584
118524,118581
118569,118607
118569,118650
118558,118629
118641,118645
118615,118661
118628,118606
118639,118662
118658,118650
118684,118712
118657,118678
118742,118692
118734,118701
118769,118720
118746,118712
118789,118721
118754,118745
118788,118746
118812,118714
118817,118753
118829,118731
118807,118765
118805,118771
118862,118769
118864,118769
118906,118754
118859,118783
118920,118760
118937,118813
118940,118784
118945,118805
118958,118771
119005,118836
118994,118801
119054,118857
119047,118838
119073,118864
119093,118847
119126,118890
119161,118867
119147,118913
119154,118921
119164,118860
119265,118935
119234,118905
119268,118937
119250,118933
119314,118977
119338,118977
119392,118992
119372,118980
119417,119045
119443,119024
119454,119064
119453,119082
119459,119049
119504,119050
119523,119064
119560,119098
119534,119092
119548,119067
119571,119158
119558,119119
119591,119105
119566,119126
119542,119113
119520,119041
119479,119088
119422,119017
119356,118996
119335,118978
119251,118946
119161,118903
119076,118813
118982,118790
118925,118788
118853,118746
118734,118680
118634,118613
118621,118601
118524,118559
118425,118524
118356,118488
118250,118471
118247,118416
118147,118429
118105,118384
118027,118367
118005,118352
117971,118301
117988,118293
117908,118320
117943,118288
117904,118280
117899,118297
117840,118254
117855,118277
117842,118268
117830,118248
117853,118254
117818,118241
117879,118263
117825,118261
117841,118216
117866,118242
117829,118252
117836,118242
117891,118271
117851,118304
117872,118272
117899,118275
117883,118283
117887,118271
117929,118329
117876,118282
117916,118305
117899,118299
117918,118307
117911,118282
117972,118333
117916,118345
117944,118323
117921,118284
117962,118330
117925,118322
117934,118355
117973,118330
117997,118359
117968,118341
117964,118344
117980,118322
118039,118358
117995,118396
118018,118341
118054,118374
118074,118396
118041,118391
118088,118373
118117,118444
118093,118383
118120,118447
118136,118403
118184,118457
118179,118425
118200,118464
118173,118430
118228,118481
118193,118461
118213,118463
118200,118463
118249,118456
118208,118459
118258,118474
118221,118484
118225,118481
118229,118461
118262,118477
118265,118480
118261,118456
118231,118481
118245,118472
118249,118465
118284,118491
118236,118484
118258,118464
118271,118481
118288,118510
118250,118506
118281,118482
118285,118505
118250,118466
118320,118532
118299,118495
118305,118487
118333,118489
118356,118541
118353,118508
118401,118532
118400,118550
118398,118566
118388,118551
118459,118555
118434,118574
118460,118534
118501,118567
118475,118622
118508,118567
118573,118637
118583,118617
118603,118647
118585,118642
118613,118620
118617,118658
118616,118648
118645,118655
118642,118659
118653,118680
118729,118693
118681,118687
118723,118702
118772,118697
118704,118738
118773,118680
118804,118767
118761,118724
118822,118751
118841,118734
118870,118754
118844,118746
118898,118784
118875,118811
118922,118768
118904,118794
118933,118802
118964,118804
118970,118818
119000,118788
118994,118828
118997,118836
119020,118839
119080,118854
119097,118853
119080,118881
119132,118881
119127,118909
119160,118860
119177,118917
119156,118945
119199,118891
119208,118935
119217,118914
119245,118899
119284,118967
119287,118900
119302,118960
119285,118955
119301,118962
119361,119000
119356,118964
119379,118997
119371,119018
119417,119004
119393,119021
119428,118983
119452,119041
119410,119014
119458,119020
119479,119023
119511,119056
119526,119061
119504,119092
119536,119035
119597,119084
119572,119085
119602,119063
119583,119130
119620,119106
119648,119119
119637,119137
119656,119118
119721,119148
119747,119137
119696,119144
119752,119208
119722,119159
119800,119158
119808,119185
119803,119177
119873,119195
119850,119231
119847,119166
119887,119219
119828,119223
119853,119182
119815,119188
119806,119139
119748,119144
119697,119088
119631,119098
119587,119035
119524,118967
119489,118984
119336,118959
119275,118883
119209,118848
119152,118807
119074,118806
118966,118723
118952,118725
118855,118694
118780,118630
118717,118630
118707,118566
118601,118579
118563,118515
118553,118550
118516,118547
118477,118507
118418,118481
118458,118461
118444,118483
118403,118474
118367,118465
118382,118467
118380,118448
118400,118504
118366,118457
118384,118488
118411,118448
118373,118469
118393,118484
118383,118448
118409,118431
118418,118474
118400,118484
118423,118504
118419,118466
118457,118510
118418,118481
118461,118515
118443,118495
118477,118462
118460,118505
118469,118469
118482,118486
118494,118501
118510,118523
118470,118490
118511,118507
118472,118508
118530,118489
118528,118526
118528,118529
118539,118543
118520,118559
118543,118480
118579,118561
118564,118529
118573,118508
118586,118560
118614,118513
118615,118561
118593,118565
118654,118544
118647,118564
118667,118615
118708,118597
118697,118571
118690,118619
118744,118598
118723,118614
118747,118622
118738,118600
118801,118617
118786,118641
118777,118648
118774,118639
118791,118608
118852,118630
118807,118662
118820,118609
118826,118652
118830,118631
118817,118619
118848,118660
118833,118612
118810,118656
118812,118611
118815,118635
118812,118640
118815,118622
118819,118630
118840,118649
118861,118658
118823,118642
118857,118661
118867,118660
118884,118637
118885,118656
118844,118667
118916,118695
118920,118671
118908,118677
118938,118705
118973,118702
118985,118712
118973,118712
118972,118713
119004,118731
119046,118726
119010,118733
119061,118731
119069,118762
119073,118748
119115,118770
119090,118746
119133,118786
119128,118774
119160,118776
119150,118794
119190,118829
119172,118827
119239,118795
119223,118807
119238,118840
119274,118820
119291,118849
119264,118819
119271,118866
119336,118869
119301,118864
119318,118863
119372,118892
119373,118906
119349,118890
119398,118885
119414,118921
119380,118875
119411,118921
119448,118892
119477,118968
119479,118907
119469,118922
119504,118941
119509,118965
119536,118925
119552,118974
119496,118958
119528,118987
119576,118987
119566,119001
119560,118971
119641,119001
119631,119008
119622,119008
119650,119026
119647,119018
119718,119039
119735,119056
119695,119079
119703,119015
119775,119045
119736,119091
119761,119085
119801,119104
119849,119121
119848,119108
119835,119102
119855,119131
119883,119131
119913,119153
119908,119146
119915,119126
119948,119162
119943,119172
119964,119166
119961,119185
119976,119167
119989,119194
120009,119222
120027,119211
120008,119200
120039,119209
119987,119185
119992,119159
119920,119139
119883,119144
119861,119100
119762,119074
119705,119036
119662,119007
119596,118997
119515,118946
119457,118902
119395,118862
119296,118847
119228,118819
119207,118785
119097,118780
119049,118724
118972,118727
118913,118657
118890,118656
118861,118618
118783,118608
118763,118583
118735,118588
118698,118562
118665,118567
118658,118571
118637,118554
118631,118533
118604,118547
118580,118540
118594,118537
118595,118558
118634,118533
118568,118537
118640,118550
118602,118539
118591,118536
118623,118538
118577,118522
118648,118540
118618,118554
118611,118564
118617,118510
118635,118588
118612,118567
118617,118552
118638,118566
118683,118561
118592,118570
118637,118580
118674,118592
118636,118583
118655,118571
118698,118585
118675,118594
118651,118581
118677,118568
118700,118560
118687,118567
118681,118610
118695,118581
118738,118596
118723,118648
118720,118569
118770,118612
118773,118638
118723,118630
118773,118612
118776,118659
118778,118662
118809,118669
118783,118666
118848,118645
118814,118699
118826,118678
118905,118668
118856,118693
118864,118654
118863,118703
118878,118695
118874,118687
118930,118689
118858,118701
118883,118703
118886,118693
118905,118673
118916,118696
118852,118705
118877,118679
118874,118683
118898,118690
118869,118714
118851,118653
118899,118729
118878,118707
118852,118688
118856,118660
118899,118677
118872,118686
118894,118703
118877,118684
118902,118711
118883,118687
118921,118711
118891,118712
118919,118699
118921,118701
118914,118724
118986,118731
118947,118717
119012,118761
119014,118782
119014,118726
118986,118768
119076,118772
119027,118763
119074,118755
119074,118821
119071,118799
119068,118816
119123,118800
119141,118788
119111,118854
119192,118808
119136,118804
119184,118843
119200,118858
119198,118842
119224,118869
119256,118879
119257,118882
119226,118866
119278,118904
119273,118893
119291,118899
119329,118901
119355,118925
119316,118910
119367,118940
119374,118953
119354,118940
119411,118943
119430,118972
119393,118972
119442,118985
119461,118962
119435,118989
119485,119011
119506,118999
119502,118998
119504,119000
119538,119011
119535,119005
119545,119038
119590,119018
119595,119047
119577,119045
119607,119080
119631,119067
119607,119068
119633,119059
119661,119061
119683,119084
119644,119089
119660,119100
119701,119104
119705,119094
119747,119106
119706,119112
119749,119107
119728,119125
119762,119135
119775,119142
119776,119131
119793,119150
119841,119160
119805,119141
119861,119185
119895,119175
119856,119189
119891,119209
119915,119185
119885,119182
119930,119217
119947,119211
119928,119207
119972,119235
119960,119205
119942,119192
119953,119213
119918,119193
119905,119175
119815,119147
119792,119140
119786,119102
119656,119067
119610,119023
119551,118984
119427,118963
119374,118963
119320,118879
119176,118826
119112,118786
119072,118782
119020,118743
118852,118674
118805,118673
118758,118614
118674,118601
118641,118545
118535,118556
118517,118524
118452,118476
118383,118479
118382,118469
118331,118420
118303,118416
118233,118417
118233,118418
118248,118388
118209,118398
118178,118366
118178,118382
118157,118349
118141,118357
118155,118346
118125,118337
118124,118335
118109,118325
118090,118349
118128,118347
118104,118321
118070,118345
118093,118305
118082,118323
118078,118335
118133,118333
118049,118322
118099,118329
118070,118310
118079,118343
118110,118336
118073,118319
118099,118354
118120,118370
118080,118349
118087,118333
118109,118339
118086,118339
118110,118345
118114,118320
118063,118341
118130,118345
118125,118348
118089,118343
118127,118365
118149,118361
118179,118377
118148,118374
118169,118367
118182,118367
118168,118394
118202,118391
118220,118389
118222,118401
118249,118394
118228,118414
118267,118403
118289,118444
118275,118433
118291,118456
118315,118456
118268,118443
118348,118480
118337,118459
118305,118444
118373,118497
118332,118487
118360,118470
118319,118441
118321,118468
118316,118466
118348,118462
118314,118469
118327,118464
118296,118467
118314,118466
118332,118467
118300,118451
118346,118491
118345,118451
118297,118454
118338,118471
118352,118468
118306,118452
118367,118486
118340,118490
118328,118504
118370,118476
118379,118481
118398,118492
118396,118501
118399,118499
118443,118483
118434,118530
118454,118516
118478,118537
118444,118536
118482,118528
118526,118566
118501,118562
118561,118558
118520,118577
118565,118579
118586,118544
118582,118598
118605,118590
118640,118615
118678,118610
118642,118620
118671,118598
118689,118636
118711,118630
118729,118652
118737,118667
118760,118681
118812,118665
118772,118711
118798,118676
118854,118702
118841,118748
118858,118704
118870,118750
118890,118754
118924,118741
118934,118740
118934,118750
118971,118758
119006,118760
119015,118779
119006,118821
119008,118786
119069,118818
119072,118835
119063,118849
119074,118797
119140,118808
119092,118856
119127,118853
119174,118850
119147,118866
119193,118833
119162,118916
119179,118882
119253,118896
119263,118910
119216,118892
119276,118919
119264,118915
119310,118924
119298,118936
119321,118916
119355,118962
119342,118952
119385,118925
119409,118985
119379,119004
119412,118983
119429,118991
119443,118999
119459,118975
119489,119028
119494,118989
119521,119003
119545,119026
119561,119031
119567,119063
119584,119006
119611,119045
119604,119051
119547,119025
119588,119025
119524,118986
119540,118985
119444,118966
119433,118979
119400,118914
119283,118897
119261,118882
119181,118850
119033,118779
118985,118727
118918,118709
118799,118650
118737,118635
118609,118574
118574,118504
118513,118502
118416,118471
118369,118423
118225,118391
118221,118377
118160,118361
118070,118289
118027,118317
117970,118263
117984,118262
117923,118250
117890,118217
117897,118220
117871,118190
117821,118242
117836,118173
117816,118185
117822,118188
117803,118194
117825,118148
117769,118189
117778,118179
117793,118167
117823,118166
117781,118216
117823,118186
117789,118190
117834,118206
117758,118169
117824,118170
117848,118198
117832,118183
117838,118207
117853,118224
117855,118185
117838,118209
117873,118229
117815,118232
117853,118208
117858,118238
117871,118226
117858,118225
117909,118243
117902,118254
117920,118192
117875,118245
117951,118212
117896,118257
117952,118257
117938,118253
117973,118288
117957,118281
117994,118322
117979,118265
118059,118285
118061,118299
118101,118331
118093,118310
118119,118332
118094,118353
118153,118365
118120,118345
118152,118353
118186,118357
118190,118355
118174,118340
118219,118362
118166,118397
118176,118355
118255,118387
118198,118400
118202,118370
118223,118353
118208,118372
118233,118389
118214,118372
118212,118364
118176,118403
118227,118376
118190,118392
118207,118350
118203,118396
118170,118381
118224,118362
118203,118361
118217,118377
118210,118378
118197,118372
118232,118370
118255,118424
118239,118417
118240,118402
118241,118449
118250,118412
118342,118454
118305,118426
118310,118438
118369,118445
118377,118486
118345,118464
118377,118487
118421,118475
118428,118485
118478,118495
118448,118524
118469,118525
118514,118542
118525,118549
118566,118555
118555,118589
118548,118559
118614,118601
118610,118601
118646,118606
118671,118618
118692,118626
118650,118623
118704,118627
118754,118666
118714,118673
118770,118673
118756,118692
118807,118721
118784,118702
118844,118688
118843,118700
118869,118709
118902,118756
118893,118754
118942,118717
118947,118763
118977,118763
118953,118769
119010,118785
118990,118836
119009,118809
119022,118795
119066,118807
119048,118828
119043,118829
119089,118828
119114,118830
119098,118830
119151,118838
119159,118827
119181,118879
119161,118895
119229,118878
119207,118908
119236,118935
119240,118870
119286,118929
119252,118941
119302,118943
119302,118963
119312,118931
119318,118935
119334,118961
119381,118962
119400,118976
119416,118962
119404,118996
119389,118992
119438,119005
119433,118959
119476,119000
119459,119017
119478,118995
119508,119004
119463,119028
119442,119008
119442,118985
119428,118990
119354,118938
119300,118927
119289,118897
119194,118877
119115,118795
119074,118787
118979,118759
118904,118695
118776,118687
118673,118590
118635,118570
118476,118569
118382,118525
118341,118451
118257,118449
118142,118396
118104,118331
117994,118325
117915,118283
117887,118238
117829,118255
117790,118218
117732,118216
117681,118155
117645,118180
117578,118138
117603,118142
117582,118133
117525,118092
117521,118134
117525,118084
117492,118135
117464,118067
117529,118127
117507,118095
117492,118137
117533,118116
117502,118118
117485,118070
117511,118089
117464,118094
117504,118070
117503,118106
117491,118121
117528,118089
117489,118103
117528,118116
117494,118111
117532,118104
117501,118116
117536,118105
117550,118118
117543,118128
117552,118119
117570,118098
117560,118145
117568,118124
117563,118143
117580,118157
117588,118147
117602,118138
117592,118149
117641,118147
117633,118178
117650,118178
117670,118188
117663,118196
117731,118184
117703,118206
117727,118207
117780,118232
117769,118225
117781,118239
117824,118247
117763,118266
117818,118250
117809,118276
117817,118244
117872,118292
117878,118278
117867,118309
117885,118269
117879,118283
117843,118299
117878,118295
117878,118256
117880,118331
117883,118317
117858,118277
117855,118292
117841,118302
117810,118283
117818,118267
117858,118284
117832,118268
117827,118292
117843,118273
117866,118311
117809,118300
117812,118297
117884,118319
117854,118280
117851,118318
117911,118329
117912,118329
117874,118344
117905,118317
117962,118332
117941,118357
117939,118371
117996,118391
117973,118376
118002,118401
118006,118376
118066,118415
118092,118415
118087,118463
118070,118425
118157,118425
118152,118466
118153,118465
118189,118450
118182,118463
118205,118510
118237,118507
118238,118501
118289,118503
118317,118537
118284,118496
118302,118522
118352,118540
118327,118574
118378,118538
118396,118594
118403,118560
118448,118597
118420,118578
118458,118587
118500,118624
118485,118626
118482,118658
118546,118604
118533,118668
118568,118661
118553,118686
118597,118634
118595,118691
118657,118697
118649,118689
118671,118730
118676,118685
118679,118719
118729,118730
118722,118721
118764,118746
118770,118788
118779,118746
118818,118779
118807,118774
118852,118816
118833,118763
118860,118820
118882,118822
118899,118829
118896,118821
118928,118851
118927,118830
118965,118868
118958,118843
118998,118837
118976,118871
119024,118870
119043,118888
119007,118866
119091,118876
119103,118925
119048,118883
119105,118886
119144,118954
119150,118946
119166,118944
119189,118981
119155,118943
119232,118955
119231,118973
119214,119000
119265,118992
119265,118987
119256,118998
119294,119004
119328,119045
119302,118994
119312,119039
119365,119008
119402,119055
119331,119047
119393,119020
119451,119068
119352,119068
119344,119020
119370,119022
119306,119033
119236,118951
119227,118978
119141,118926
119041,118898
118950,118816
118881,118778
118747,118719
118641,118690
118536,118671
118417,118559
118335,118522
118197,118487
118061,118402
117992,118375
117887,118313
117798,118294
117662,118209
117603,118194
117510,118156
117409,118105
117366,118099
117333,118104
117221,118033
117192,117969
117146,118003
117074,117985
117053,117975
116987,117941
116994,117929
116970,117900
117008,117932
116932,117873
116949,117873
116970,117905
116922,117899
116936,117900
116921,117887
116960,117891
116899,117915
116901,117849
116972,117883
116940,117913
116935,117892
116973,117898
116991,117906
116964,117951
116979,117923
116978,117932
117008,117933
116970,117921
117013,117942
117008,117948
117022,117923
117052,117939
117034,117995
117013,117917
116999,117922
117037,117979
117075,117983
117044,118022
117070,117957
117036,117983
117118,117954
117108,117956
117129,118016
117143,117980
117167,118051
117181,118050
117194,118011
117229,118032
117260,118099
117282,118049
117314,118087
117339,118099
117343,118090
117339,118153
117387,118117
117396,118127
117414,118110
117433,118157
117462,118137
117435,118171
117479,118192
117468,118181
117450,118164
117496,118214
117489,118212
117496,118203
117466,118192
117514,118180
117511,118181
117499,118210
117497,118197
117470,118224
117493,118174
117529,118227
117489,118182
117525,118199
117490,118200
117521,118186
117512,118237
117536,118207
117517,118221
117563,118247
117569,118267
117562,118217
117600,118262
117617,118249
117603,118253
117675,118302
117682,118269
117641,118307
117728,118319
117710,118327
117725,118349
117763,118337
117783,118355
117795,118344
117782,118378
117794,118344
117878,118381
117856,118374
117874,118409
117913,118413
117915,118453
117922,118390
117936,118439
117985,118427
117998,118478
117984,118465
118032,118455
118030,118482
118084,118478
118075,118490
118148,118530
118099,118529
118142,118570
118163,118537
118204,118561
118208,118591
118216,118574
118237,118590
118286,118611
118278,118578
118316,118597
118309,118631
118324,118598
118357,118632
118331,118647
118386,118602
118425,118676
118405,118655
118427,118667
118451,118724
118459,118699
118516,118687
118528,118703
118532,118712
118562,118727
118542,118768
118595,118710
118601,118747
118610,118763
118609,118798
118647,118801
118661,118745
118650,118784
118707,118796
118678,118778
118719,118796
118707,118820
118770,118818
118767,118822
118753,118855
118780,118816
118810,118854
118864,118886
118841,118865
118902,118897
118875,118926
118883,118860
118918,118898
118956,118914
118963,118910
118981,118963
118975,118890
118975,118931
119038,118949
119046,118975
119065,119012
119034,118931
119051,118986
119099,119013
119125,118993
119153,119034
119140,118984
119153,118995
119216,119033
119218,119010
119182,119065
119230,119072
119223,119041
119212,119044
119149,119004
119199,118996
119102,119008
119036,118943
119027,118952
118928,118866
118840,118834
118748,118813
118675,118761
118572,118738
118450,118660
118358,118585
118180,118553
118089,118511
117994,118434
117886,118408
117723,118332
117620,118248
117544,118228
117424,118171
117331,118123
117190,118105
117169,118048
117119,118045
116994,118004
116942,117962
116941,117964
116852,117930
116850,117921
116827,117883
116811,117905
116771,117902
116777,117910
116788,117890
116727,117862
116755,117881
116767,117865
116723,117850
116790,117877
116732,117873
116756,117880
116813,117902
116775,117898
116823,117905
116829,117931
116833,117911
116835,117921
116869,117926
116857,117928
116868,117919
116935,117983
116874,117946
116950,117972
116926,117995
116952,117945
116941,117966
116979,117995
116967,117962
116973,117989
117015,117988
116988,118025
117044,118002
117046,117984
117045,118004
117057,118043
117058,118030
117141,118025
117095,118094
117148,118046
117193,118060
117187,118105
117211,118112
117239,118137
117263,118117
117301,118130
117313,118122
117367,118174
117338,118146
117382,118181
117399,118213
117412,118164
117442,118198
117435,118156
117479,118200
117424,118237
117458,118211
117512,118216
117479,118254
117472,118217
117487,118232
117497,118249
117472,118206
117520,118244
117491,118217
117476,118199
117489,118218
117477,118240
117479,118192
117457,118217
117483,118234
117502,118227
117527,118273
117518,118220
117527,118255
117531,118216
117591,118240
117561,118296
117593,118235
117589,118271
117560,118290
117642,118289
117618,118279
117658,118329
117656,118327
117719,118295
117736,118342
117723,118310
117798,118373
117785,118366
117815,118352
117841,118358
117876,118390
117859,118368
117904,118431
117942,118405
117943,118464
117941,118415
118020,118457
118026,118464
118038,118491
118024,118465
118080,118482
118062,118512
118135,118523
118116,118516
118181,118531
118171,118561
118184,118523
118238,118568
118258,118572
118270,118554
118281,118607
118306,118564
118319,118598
118359,118626
118351,118628
118378,118613
118388,118668
118419,118624
118444,118642
118505,118669
118470,118692
118502,118681
118529,118683
118578,118737
118530,118744
118588,118708
118610,118750
118605,118733
118631,118737
118663,118750
118660,118742
118698,118799
118705,118780
118713,118803
118743,118773
118799,118798
118770,118801
118811,118816
118800,118814
118827,118852
118877,118845
118879,118861
118919,118863
118922,118900
118909,118870
118943,118884
118957,118905
119021,118884
119000,118882
119048,118937
119015,118902
119019,118917
119084,118954
119108,118971
119075,118934
119130,118981
119156,118941
119152,118949
119190,119020
119183,119014
119232,118976
119240,119023
119279,119034
119307,119045
119293,119055
119322,119018
119319,119065
119379,119104
119424,119076
119367,119079
119412,119070
119393,119044
119434,119064
119376,119045
119350,119047
119332,119052
119235,118985
119154,118945
119086,118913
119002,118886
118902,118814
118811,118795
118658,118725
118583,118698
118450,118599
118376,118550
118225,118517
118135,118461
117988,118434
117898,118337
117803,118312
117644,118249
117612,118204
117498,118139
117443,118174
117344,118124
117279,118064
117245,118059
117205,118022
117181,118015
