11111,11111
0,0
78876,79053
93110,93696
93077,93694
93053,93637
93066,93721
93040,93685
93057,93652
93049,93685
92980,93655
93060,93683
93054,93670
93074,93676
93045,93696
93020,93626
93048,93667
93106,93655
93088,93712
93051,93649
93087,93670
93109,93720
93146,93691
93167,93716
93134,93669
93143,93693
93211,93725
93235,93728
93197,93726
93235,93738
93220,93770
93274,93736
93319,93798
93338,93787
93308,93732
93357,93782
93374,93771
93392,93839
93433,93818
93396,93801
93418,93822
93465,93836
93524,93877
93460,93860
93481,93841
93508,93862
93575,93874
93571,93881
93580,93921
93583,93860
93583,93888
93649,93932
93691,93929
93676,93961
93640,93909
93657,93908
93757,93982
93754,93962
93765,93963
93731,93967
93749,93945
93799,94028
93766,94011
93794,93974
93772,93976
93813,93999
93802,94007
93847,93984
93835,94012
93807,94026
93827,93997
93867,94056
93905,94030
93907,94060
93844,94005
93886,94046
93905,94052
93941,94089
93941,94049
93951,94017
93969,94070
94002,94112
93994,94110
94022,94059
93979,94083
94009,94072
94050,94093
94088,94114
94077,94090
94055,94126
94051,94090
94143,94161
94130,94150
94127,94124
94132,94156
94134,94155
94208,94175
94236,94203
94216,94173
94195,94136
94255,94192
94260,94162
94273,94212
94253,94152
94288,94164
94284,94210
94306,94215
94327,94240
94306,94195
94345,94205
94346,94218
94398,94260
94415,94269
94373,94268
94347,94202
94387,94223
94414,94257
94436,94274
94405,94272
94448,94236
94458,94299
94476,94263
94535,94307
94496,94290
94518,94284
94544,94303
92750,93493
91658,93092
91709,93125
92157,93297
92103,93265
92167,93315
92406,93370
92342,93382
92328,93334
92373,93398
92443,93398
92441,93409
92453,93384
92466,93384
92484,93413
92511,93458
92584,93476
92551,93477
92590,93440
92584,93479
92632,93474
92688,93543
92694,93512
92706,93490
92720,93521
92800,93531
92786,93566
92838,93541
92824,93587
92847,93576
92898,93637
92943,93594
92979,93607
92960,93634
92968,93626
93081,93667
93083,93666
93146,93707
93109,93653
93156,93699
93216,93742
93272,93754
93287,93720
93261,93771
93296,93754
93430,93834
93407,93810
93437,93845
93442,93822
93485,93827
93582,93856
93586,93883
93640,93895
93623,93861
93640,93875
93728,93946
93778,93926
93752,93939
93754,93929
93788,93941
93866,93956
93874,93978
93878,94013
93880,93978
93928,94020
93938,94038
93960,94061
93945,94035
93973,94051
93966,94035
94061,94071
94056,94075
94052,94052
94055,94066
94101,94067
94117,94130
94167,94090
94177,94099
94123,94137
94187,94132
94255,94142
94265,94163
94232,94167
94249,94149
94296,94141
94350,94190
94325,94204
94330,94174
94386,94213
94400,94229
94454,94259
94439,94241
94462,94216
94456,94249
94475,94257
94524,94274
94566,94247
94524,94245
94556,94259
94559,94281
94595,94257
94615,94321
94643,94281
94586,94259
94631,94290
94687,94311
94694,94350
94695,94323
94653,94283
94706,94315
94747,94385
94743,94355
94791,94344
94767,94359
94787,94403
94868,94423
94900,94429
94850,94400
94880,94397
94940,94436
94968,94441
94988,94424
94989,94431
94962,94417
95019,94473
95050,94503
94989,94469
94959,94433
94913,94396
94833,94380
94767,94318
94635,94281
94470,94193
94349,94105
94223,94099
94079,94019
93982,93970
93840,93929
93676,93800
93581,93815
93473,93793
93329,93700
93261,93641
93068,93611
93028,93575
92942,93537
92864,93486
92740,93452
92650,93427
92582,93385
92504,93387
92429,93346
92379,93319
92258,93259
92275,93272
92241,93284
92218,93257
92167,93241
92077,93211
92144,93233
92101,93280
92070,93253
92111,93257
92051,93191
92118,93265
92083,93267
92105,93249
92124,93250
92068,93249
92132,93283
92162,93282
92171,93292
92166,93296
92140,93301
92188,93319
92248,93343
92246,93333
92198,93338
92186,93269
92272,93343
92245,93330
92241,93363
92238,93312
92222,93321
92246,93328
92282,93340
92296,93332
92295,93353
92246,93326
92348,93347
92340,93408
92376,93406
92402,93392
92347,93379
92464,93416
92452,93469
92477,93409
92458,93433
92484,93442
92516,93463
92547,93489
92528,93440
92540,93478
92523,93425
92540,93471
92559,93475
92548,93482
92510,93434
92521,93442
92564,93471
92551,93485
92565,93475
92512,93475
92504,93430
92527,93470
92550,93458
92514,93460
92474,93449
92447,93428
92481,93437
92468,93476
92455,93450
92417,93404
92431,93412
92442,93480
92397,93419
92415,93415
92380,93393
92327,93409
92409,93427
92423,93412
92377,93403
92366,93367
92364,93389
92399,93408
92400,93442
92394,93390
92394,93437
92386,93409
92432,93471
92449,93435
92468,93449
92420,93421
92479,93452
92480,93489
92482,93456
92493,93446
92509,93458
92482,93474
92527,93467
92542,93511
92532,93489
92545,93461
92568,93468
92578,93519
92615,93519
92625,93516
92633,93499
92617,93499
92641,93543
92691,93538
92674,93547
92651,93519
92697,93532
92690,93547
92745,93566
92723,93563
92703,93502
92721,93578
92787,93569
92770,93604
92789,93587
92722,93551
92744,93569
92808,93585
92761,93582
92789,93556
92714,93580
92772,93561
92805,93641
92793,93588
92752,93597
92792,93600
92789,93582
92794,93637
92845,93614
92806,93621
92768,93559
92789,93620
92789,93646
92792,93604
92825,93620
92736,93588
92778,93612
92777,93605
92787,93622
92772,93642
92729,93568
92746,93594
92733,93636
92737,93639
92722,93582
92695,93618
92654,93586
92724,93646
92694,93621
92661,93622
92653,93569
92658,93631
92631,93590
92686,93619
92622,93615
92604,93556
92599,93612
92614,93582
92623,93601
92571,93590
92538,93531
92541,93548
92552,93589
92522,93547
92505,93538
92430,93522
92481,93550
92480,93563
92402,93562
92418,93520
92346,93526
92378,93502
92377,93533
92365,93537
92293,93486
92314,93499
92263,93489
92312,93511
92318,93500
92270,93487
92223,93447
92265,93447
92287,93518
92275,93473
92240,93469
92253,93443
92251,93480
92290,93472
92263,93493
92264,93460
92228,93438
92296,93493
92298,93499
92321,93471
92276,93509
92273,93466
92305,93501
92346,93510
92336,93537
92291,93489
92311,93482
92337,93537
92353,93539
92330,93517
92339,93512
92334,93512
92365,93540
92390,93527
92371,93540
92323,93478
92213,93467
92162,93426
92167,93441
92047,93371
91925,93321
91814,93238
91744,93221
91601,93207
91496,93101
91348,93060
91187,92991
91077,92944
90944,92896
90816,92856
90656,92752
90482,92666
90413,92663
90327,92624
90174,92566
90079,92512
89949,92446
89934,92463
89879,92426
89788,92404
89739,92363
89602,92317
89655,92342
89632,92339
89603,92312
89575,92310
89520,92281
89579,92318
89578,92335
89575,92320
89588,92296
89569,92310
89628,92328
89665,92353
89668,92337
89689,92363
89724,92386
89771,92385
89790,92397
89835,92406
89834,92435
89801,92398
89916,92469
89959,92481
89943,92485
89925,92431
89951,92479
89990,92529
90058,92535
90047,92538
90035,92486
90053,92532
90127,92554
90203,92571
90192,92548
90202,92593
90265,92590
90292,92621
90341,92646
90360,92635
90426,92674
90399,92643
90490,92709
90532,92742
90520,92701
90510,92736
90590,92722
90607,92775
90659,92760
90643,92789
90622,92730
90630,92753
90710,92790
90718,92804
90700,92819
90694,92755
90656,92787
90735,92823
90776,92826
90778,92812
90711,92792
90732,92810
90763,92833
90825,92837
90786,92868
90779,92788
90780,92837
90830,92805
90870,92874
90879,92863
90800,92812
90860,92869
90907,92870
90932,92880
90934,92873
90955,92903
90968,92879
91020,92945
91042,92939
91040,92903
91092,92917
91075,92946
91170,93004
91184,92999
91198,92986
91218,93001
91219,93020
91284,93039
91358,93055
91346,93061
91316,93034
91387,93050
91465,93135
91474,93107
91509,93112
91531,93087
91532,93151
91567,93168
91636,93176
91646,93206
91626,93169
91679,93206
91695,93205
91754,93262
91737,93230
91766,93219
91785,93230
91861,93292
91872,93267
91874,93283
91855,93291
91924,93297
91937,93319
92006,93347
91999,93336
92024,93303
92040,93353
92088,93394
92079,93421
92125,93375
92155,93395
92149,93379
92210,93437
92207,93417
92239,93449
92217,93428
92248,93439
92363,93492
92314,93487
92338,93434
92358,93479
92392,93506
92433,93500
92485,93546
92443,93540
92393,93474
92451,93550
92471,93553
92510,93535
92530,93552
92483,93527
92550,93562
92573,93589
92599,93604
92573,93586
92570,93530
92618,93598
92644,93610
92666,93598
92678,93627
92629,93556
92731,93631
92690,93659
92738,93658
92723,93619
92691,93597
92739,93651
92750,93632
92757,93687
92751,93680
92730,93621
92764,93639
92835,93688
92758,93682
92785,93661
92761,93649
92823,93678
92894,93712
92824,93703
92872,93677
92850,93711
92910,93725
92927,93725
92957,93729
92957,93763
92948,93697
93029,93774
93064,93815
93043,93770
93043,93798
93064,93735
93083,93810
93137,93811
93155,93825
93132,93834
93127,93775
93106,93805
93143,93834
93068,93796
92977,93740
92889,93685
92829,93651
92741,93653
92633,93553
92526,93535
92360,93460
92280,93422
92217,93368
92065,93339
91913,93274
91786,93204
91686,93206
91592,93177
91463,93071
91383,93034
91198,92975
91187,92974
91064,92928
91001,92899
90907,92859
90761,92800
90784,92796
90723,92808
90643,92772
90581,92758
90503,92691
90552,92722
90491,92753
90511,92702
90475,92700
90426,92655
90479,92733
90455,92677
90490,92723
90471,92712
90459,92670
90512,92735
90541,92792
90530,92725
90595,92724
90537,92728
90615,92768
90650,92793
90682,92784
90700,92768
90675,92809
90771,92817
90775,92884
90800,92857
90811,92864
90787,92823
90914,92892
90914,92914
90913,92899
90947,92882
90919,92872
90977,92962
91036,92920
91074,92958
91096,92972
91076,92934
91187,93004
91167,93013
91217,93012
91247,93021
91200,93026
91300,93033
91298,93066
91328,93077
91329,93033
91318,93075
91383,93090
91430,93096
91392,93098
91357,93082
91395,93063
91418,93091
91455,93101
91422,93092
91434,93074
91363,93107
91410,93089
91444,93111
91413,93082
91374,93094
91347,93057
91406,93113
91375,93067
91362,93074
91360,93077
91330,93078
91350,93099
91367,93077
91375,93098
91337,93056
91294,93076
91373,93080
91331,93079
91356,93043
91377,93081
91349,93055
91397,93093
91399,93119
91419,93070
91438,93088
91436,93086
91501,93136
91534,93169
91528,93168
91512,93108
91568,93163
91577,93186
91630,93199
91613,93188
91661,93195
91674,93227
91728,93259
91754,93250
91772,93255
91760,93244
91786,93234
91889,93289
91858,93340
91893,93281
91920,93319
91941,93289
91989,93350
92058,93385
91987,93345
92023,93328
92064,93375
92100,93403
92134,93399
92156,93400
92122,93408
92185,93429
92241,93428
92257,93463
92283,93478
92241,93444
92336,93474
92343,93526
92412,93508
92389,93503
92366,93493
92414,93538
92463,93555
92504,93551
92527,93556
92482,93519
92548,93586
92564,93586
92568,93582
92616,93578
92591,93587
92647,93592
92647,93643
92690,93644
92667,93657
92680,93598
92694,93630
92748,93680
92771,93647
92770,93666
92712,93659
92788,93668
92779,93696
92847,93695
92784,93702
92776,93657
92830,93742
92865,93683
92888,93718
92878,93720
92862,93672
92926,93761
92920,93757
92974,93750
92979,93753
92943,93731
92984,93769
93025,93761
93031,93808
92998,93761
93031,93763
93079,93781
93098,93812
93140,93824
93096,93831
93139,93795
93176,93844
93244,93858
93225,93865
93217,93881
93210,93816
93272,93925
93263,93910
93335,93921
93317,93894
93310,93848
93379,93939
93374,93975
93373,93925
93384,93904
93372,93888
93330,93927
93318,93873
93286,93890
93194,93847
93099,93750
93011,93785
92912,93703
92827,93658
92677,93600
92529,93510
92475,93481
92329,93457
92245,93400
92078,93343
91907,93241
91837,93224
91737,93198
91593,93136
91470,93104
91345,92991
91288,93029
91199,92985
91079,92940
91020,92890
90886,92848
90881,92864
90828,92832
90753,92808
90693,92771
90595,92766
90641,92786
90611,92763
90595,92762
90556,92722
90491,92725
90540,92753
90551,92763
90566,92737
90564,92753
90538,92743
90579,92744
90643,92792
90607,92741
90684,92794
90632,92810
90678,92820
90728,92803
90688,92832
90734,92801
90754,92800
90775,92865
90786,92878
90801,92867
90767,92827
90790,92857
90797,92864
90859,92875
90853,92889
90815,92871
90814,92864
90885,92878
90912,92918
90937,92890
90901,92885
90937,92888
91020,92941
91053,93006
91088,92975
91078,92962
91089,92970
91161,92989
91194,93020
91176,92999
91179,93020
91168,93007
91198,93029
91264,93064
91271,93046
91200,93026
91207,93019
91259,93046
91264,93058
91239,93039
91208,93013
91217,93042
91241,93060
91237,93040
91223,93027
91189,93011
91172,93017
91211,93015
91193,93029
91184,93021
91166,93016
91143,92993
91209,93042
91221,93026
91176,93037
91157,93027
91179,92972
91217,93039
91204,93045
91180,93021
91200,93009
91225,93001
91227,93054
91264,93060
91244,93034
91243,93045
91257,93014
91325,93091
91312,93084
91303,93069
91323,93050
91338,93082
91370,93111
91433,93118
91412,93110
91428,93114
91476,93142
91499,93164
91553,93156
91543,93178
91534,93153
91585,93181
91642,93240
91662,93204
91653,93219
91660,93202
91696,93243
91710,93281
91757,93249
91747,93259
91745,93236
91772,93287
91795,93313
91880,93323
91847,93314
91823,93307
91871,93313
91919,93324
91927,93362
91943,93351
91928,93333
91955,93351
91995,93357
92058,93394
92056,93412
92053,93371
92058,93394
92141,93421
92105,93468
92133,93430
92143,93423
92147,93460
92173,93441
92229,93467
92196,93460
92205,93434
92201,93477
92229,93478
92242,93513
92242,93484
92209,93446
92261,93486
92255,93533
92316,93508
92297,93481
92232,93486
92273,93483
92332,93511
92299,93547
92300,93513
92301,93481
92327,93501
92373,93535
92388,93556
92380,93537
92384,93520
92412,93549
92441,93538
92457,93575
92440,93550
92455,93552
92459,93587
92496,93560
92523,93635
92503,93593
92490,93560
92537,93568
92582,93617
92537,93620
92558,93607
92541,93574
92587,93641
92623,93635
92624,93664
92611,93634
92635,93656
92648,93638
92668,93697
92677,93641
92710,93649
92649,93662
92710,93650
92782,93709
92737,93686
92715,93663
92757,93663
92782,93718
92802,93721
92834,93746
92846,93726
92788,93690
92874,93755
92917,93779
92884,93727
92896,93741
92919,93728
92941,93756
93014,93794
92962,93808
92976,93795
93037,93785
93055,93822
93043,93829
93083,93827
93093,93837
93044,93801
93119,93830
93157,93865
93149,93880
93159,93880
93107,93831
93208,93917
93209,93908
93261,93908
93217,93908
93182,93876
93280,93951
93316,93917
93286,93959
93309,93937
93261,93938
93327,93958
93297,93932
93290,93900
93209,93887
93084,93800
93037,93765
92925,93741
92791,93639
92704,93620
92498,93541
92401,93498
92310,93469
92186,93392
92013,93341
91866,93224
91742,93218
91635,93159
91507,93118
91393,93023
91239,92981
91159,92958
91082,92966
90960,92899
90861,92840
90732,92778
90741,92788
90636,92810
90563,92702
90508,92698
90452,92676
90438,92726
90384,92691
90412,92689
90325,92653
90306,92664
90354,92663
90340,92648
90337,92663
90314,92652
90330,92601
90376,92681
90364,92699
90392,92647
90365,92659
90351,92683
90418,92678
90452,92729
90434,92669
90460,92689
90464,92731
90509,92743
90536,92712
90560,92764
90535,92724
90563,92706
90629,92794
90599,92772
90626,92770
90622,92756
90609,92764
90698,92785
90718,92841
90713,92758
90754,92802
90762,92821
90832,92854
90848,92843
90859,92859
90900,92829
90896,92888
90975,92884
91027,92944
90998,92898
91057,92919
91023,92948
91104,92964
91137,92957
91115,92956
91129,92966
91113,92987
91229,93000
91203,93038
91220,92989
91205,92978
91196,93017
91200,93024
91262,92999
91207,93024
91222,93026
91220,92983
91266,93050
91252,93007
91250,93037
91215,92995
91233,93000
91303,93052
91337,93016
91279,93052
91260,92972
91297,93053
91336,93070
91311,93076
91322,93011
91342,93036
91323,93078
91383,93078
91416,93076
91369,93069
91378,93086
91367,93034
91462,93139
91432,93097
91441,93097
91472,93120
91508,93098
91545,93165
91537,93139
91572,93171
91556,93118
91617,93139
91669,93172
91718,93227
91701,93158
91707,93196
91726,93186
91823,93240
91836,93264
91833,93247
91860,93231
91890,93310
91952,93321
91970,93321
92010,93319
92018,93334
92038,93304
92088,93373
92105,93361
92163,93379
92114,93365
92203,93406
92210,93411
92262,93430
92234,93435
92247,93425
92290,93457
92325,93474
92371,93475
92354,93458
92349,93473
92418,93456
92454,93512
92450,93554
92475,93488
92449,93488
92505,93535
92527,93561
92538,93523
92567,93538
92518,93563
92591,93537
92643,93593
92617,93560
92641,93586
92601,93585
92635,93566
92679,93620
92676,93584
92669,93597
92639,93568
92704,93639
92713,93636
92749,93628
92723,93638
92717,93623
92776,93625
92792,93692
92792,93663
92824,93676
92793,93657
92859,93662
92896,93716
92892,93662
92883,93706
92880,93639
92888,93686
92977,93714
92980,93702
93002,93750
92927,93688
93006,93740
93046,93742
93078,93767
93064,93769
93038,93725
93112,93789
93118,93820
93083,93787
93128,93770
93133,93773
93149,93790
93216,93829
93199,93844
93244,93834
93173,93798
93263,93853
93303,93900
93282,93847
93311,93860
93313,93857
93371,93921
93373,93918
93425,93920
93390,93898
93410,93911
93486,93933
93492,93952
93479,93937
93494,93961
93481,93931
93549,93984
93582,93994
93591,94006
93551,93974
93545,93920
93632,94032
93653,94012
93650,94027
93642,94021
93634,93982
93676,94065
93714,94007
93718,94051
93701,94031
93714,94024
93752,94067
93778,94043
93809,94085
93780,94074
93775,94077
93836,94101
93840,94123
93872,94077
93833,94108
93814,94074
93882,94148
93917,94156
93926,94137
93924,94134
93869,94104
93937,94166
93981,94139
93977,94161
93986,94143
94010,94140
94070,94231
94094,94216
94134,94204
94153,94197
94074,94196
94194,94235
94193,94266
94188,94228
94185,94199
94090,94210
94065,94189
94002,94111
93882,94095
93697,94034
93543,93908
93448,93875
93276,93818
93155,93741
92984,93695
92821,93574
92704,93580
92575,93487
92446,93443
92304,93356
92113,93289
92043,93266
91986,93213
91800,93166
91708,93115
91580,93046
91474,93046
91432,92992
91336,92955
91206,92929
91169,92905
91131,92900
91072,92897
91027,92874
90986,92826
90909,92813
90967,92869
90933,92841
90888,92810
90863,92772
90871,92801
90880,92834
90928,92858
90865,92831
90875,92783
90889,92816
90920,92825
90956,92867
90944,92854
90937,92843
90937,92816
90964,92888
91005,92869
90949,92853
90998,92828
90986,92880
91069,92897
91071,92901
91009,92894
91012,92886
91057,92867
91077,92896
91134,92926
91135,92902
91127,92914
91146,92892
91212,92948
91254,92956
91254,92936
91228,92964
91303,92978
91377,93008
91366,93027
91414,93037
91406,93020
91467,93070
91517,93068
91520,93129
91517,93053
91531,93075
91520,93074
91601,93107
91590,93095
91591,93091
91554,93062
91596,93117
91615,93119
91653,93100
91637,93138
91562,93092
91624,93086
91670,93120
91631,93126
91637,93120
91605,93058
91633,93144
91666,93140
91682,93116
91646,93097
91644,93085
91642,93125
91667,93123
91704,93151
91684,93140
91658,93089
91684,93134
91697,93172
91754,93154
91716,93129
91704,93150
91738,93155
91784,93161
91804,93146
91786,93179
91790,93142
91848,93179
91873,93235
91876,93205
91901,93229
91852,93209
91964,93213
91995,93250
91985,93266
92034,93252
91993,93242
92051,93313
92107,93301
92129,93291
92110,93298
92156,93275
92183,93350
92245,93347
92297,93396
92291,93331
92276,93365
92355,93429
92390,93425
92445,93435
92442,93461
92427,93415
92532,93480
92572,93493
92588,93472
92586,93498
92567,93442
92633,93521
92661,93545
92689,93546
92726,93543
92675,93513
92782,93591
92761,93595
92798,93570
92801,93627
92797,93573
92837,93608
92872,93604
92899,93622
92914,93618
92919,93590
92921,93648
93004,93676
93012,93647
92987,93676
93004,93615
93031,93661
93076,93686
93070,93683
93090,93662
93108,93687
93126,93702
93207,93746
93206,93735
93145,93715
93144,93684
93233,93768
93239,93746
93225,93749
93248,93753
93225,93747
93275,93750
93328,93808
93275,93739
93267,93774
93269,93754
93328,93798
93321,93798
93361,93801
93350,93779
93323,93774
93397,93821
93408,93822
93441,93802
93407,93819
93407,93798
93498,93837
93508,93863
93490,93838
93537,93818
93528,93862
93555,93874
93542,93922
93572,93915
93531,93888
93525,93847
93582,93923
93623,93915
93594,93914
93617,93862
93570,93867
93639,93903
93643,93963
93635,93890
93650,93913
93650,93888
93695,93920
93734,93975
93681,93965
93712,93942
93720,93960
93754,93978
93807,93964
93762,94006
93788,93950
93804,93994
93882,94021
93873,94043
93854,94012
93872,93997
93864,94038
93917,94031
93935,94047
93918,94032
93939,94014
93900,94004
93991,94055
94007,94062
94009,94060
93992,94049
93964,94096
94063,94080
94107,94120
94060,94078
94054,94099
94062,94095
94140,94112
94169,94168
94126,94110
94133,94130
94157,94113
94185,94151
94215,94145
94196,94185
94185,94103
94131,94108
94130,94165
94091,94103
94020,94065
93843,93971
93749,93910
93625,93888
93461,93824
93328,93731
93132,93646
93032,93544
92914,93549
92802,93492
92641,93424
92515,93347
92373,93316
92317,93253
92186,93254
92062,93141
91957,93099
91815,93072
91804,93043
91683,93050
91553,92926
91492,92910
91445,92922
91390,92926
91309,92883
91277,92832
91192,92867
91140,92812
91169,92836
91133,92825
91089,92793
91033,92750
91073,92786
91081,92821
91097,92798
91036,92770
91052,92781
91027,92816
91080,92810
91089,92837
91081,92823
91032,92794
91097,92788
91089,92842
91115,92800
91141,92830
91111,92829
91091,92858
91121,92852
91159,92821
91146,92853
91133,92817
91140,92833
91217,92884
91221,92848
91174,92852
91158,92800
91216,92854
91237,92861
91272,92891
91296,92867
91256,92904
91288,92869
91374,92947
91334,92957
91381,92938
91363,92904
91415,92982
91444,92949
91488,92984
91467,92974
91487,92985
91477,92980
91513,93023
91511,93026
91545,93012
91473,92965
91549,92982
91572,93019
91574,93000
91555,93009
91557,92985
91564,92990
91593,93034
91640,93049
91624,93003
91590,93005
91588,92980
91628,93041
91625,92996
91620,93032
91570,92965
91622,93017
91619,93034
91591,93002
91619,93047
91552,92967
91633,93031
91608,93030
91650,93040
91620,93032
91643,93007
91642,92998
91670,93053
91675,93032
91696,93059
91659,93048
91760,93090
91739,93093
91736,93045
91761,93091
91758,93047
91802,93116
91839,93125
91815,93116
91849,93144
91812,93080
91901,93159
91894,93174
91944,93127
91978,93185
91930,93122
91985,93168
92008,93193
92042,93202
92062,93162
92066,93166
92093,93207
92146,93271
92143,93238
92136,93244
92170,93198
92185,93291
92230,93272
92267,93292
92281,93289
92244,93263
92334,93331
92329,93364
92305,93300
92367,93345
92307,93277
92393,93363
92410,93343
92461,93405
92403,93342
92388,93347
92447,93347
92511,93389
92480,93400
92474,93358
92494,93390
92531,93383
92551,93410
92553,93416
92533,93395
92540,93414
92556,93396
92600,93436
92592,93437
92573,93411
92568,93402
92587,93482
92617,93430
92634,93478
92637,93452
92583,93433
92667,93498
92632,93456
92696,93458
92667,93477
92633,93425
92702,93499
92731,93474
92730,93499
92730,93449
92748,93491
92808,93503
92819,93546
92787,93507
92821,93503
92786,93472
92883,93563
92872,93555
92900,93533
92853,93540
92847,93510
92915,93613
92916,93565
92945,93567
92911,93578
92907,93535
92988,93627
92992,93590
93021,93603
93007,93568
93022,93613
93043,93616
93127,93638
93069,93658
93078,93625
93054,93619
93173,93682
93136,93667
93137,93683
93184,93671
93162,93683
93211,93652
93214,93694
93192,93686
93204,93678
93195,93670
93226,93731
93260,93709
93267,93707
93244,93686
93268,93715
93341,93751
93320,93745
93343,93745
93333,93737
93331,93746
93418,93772
93418,93790
93418,93795
93436,93787
93426,93791
93491,93811
93531,93844
93536,93832
93503,93811
93537,93817
93584,93846
93590,93874
93570,93849
93611,93824
93599,93852
93659,93877
93664,93893
93683,93880
93638,93827
93707,93884
93706,93921
93775,93880
93745,93898
93717,93914
93734,93891
93798,93962
93787,93940
93807,93911
93786,93932
93815,93962
93916,93984
93920,93976
93917,93955
93887,93960
93925,93994
93922,93979
93932,93995
93889,93962
93774,93899
93732,93874
93612,93791
93498,93744
93345,93687
93170,93603
93047,93532
92929,93482
92824,93434
92626,93337
92529,93271
92383,93274
92303,93219
92152,93148
92040,93087
91908,93019
91762,93014
91726,92991
91604,92945
91454,92857
91386,92816
91267,92784
91217,92817
91153,92750
91097,92678
91002,92686
90943,92645
90945,92697
90896,92663
90856,92589
90810,92601
90770,92638
90797,92622
90808,92619
90748,92613
90708,92588
90749,92609
90750,92639
90765,92634
90755,92594
90735,92594
90758,92644
90804,92631
90769,92645
90766,92609
90778,92609
90826,92641
90825,92643
90811,92636
90803,92632
90813,92602
90851,92689
90884,92653
90870,92670
90848,92685
90823,92606
90890,92687
90908,92652
90914,92693
90938,92659
90877,92684
90972,92680
90972,92689
90978,92716
90985,92740
90976,92697
91054,92740
91105,92770
91123,92765
91141,92762
91098,92742
91195,92769
91209,92819
91227,92802
91237,92809
91188,92774
91260,92804
91280,92829
91283,92796
91275,92827
91260,92806
91294,92790
91299,92864
91257,92834
91273,92826
91247,92792
91299,92801
91330,92813
91316,92846
91291,92791
91251,92802
91296,92830
91295,92851
91308,92804
91259,92787
91237,92752
91297,92810
91305,92805
91311,92800
91331,92808
91257,92804
91321,92800
91359,92846
91332,92830
91369,92836
91348,92831
91385,92837
91456,92885
91446,92883
91436,92857
91418,92865
91534,92889
91540,92933
91537,92885
91594,92948
91600,92921
91654,92934
91686,92972
91729,92949
91710,92981
91716,92988
91789,92993
91858,93054
91864,93064
91885,93038
91899,93065
91957,93067
91981,93117
92042,93123
91998,93116
92028,93102
92110,93169
92152,93209
92173,93179
92186,93185
92177,93137
92304,93249
92339,93238
92340,93234
92404,93270
92376,93277
92464,93280
92520,93332
92490,93286
92531,93301
92556,93318
92603,93341
92648,93376
92643,93361
92654,93374
92685,93395
92742,93430
92804,93405
92794,93445
92806,93405
92836,93447
92882,93480
92921,93483
92877,93483
92885,93445
92922,93455
92946,93520
92988,93487
92966,93506
92984,93478
93002,93516
93025,93508
93051,93546
93010,93522
93041,93527
93032,93531
93074,93550
93103,93531
93070,93570
93084,93519
93096,93558
93125,93548
93164,93573
93124,93609
93155,93547
93161,93550
93168,93601
93223,93604
93225,93633
93196,93563
93236,93617
93267,93653
93261,93626
93320,93651
93272,93597
93315,93624
93338,93679
93412,93654
93372,93668
93397,93659
93363,93657
93448,93715
93459,93717
93499,93731
93476,93680
93508,93716
93579,93765
93568,93789
93549,93744
93547,93740
93602,93764
93661,93772
93658,93812
93627,93751
93659,93767
93680,93796
93707,93834
93716,93840
93748,93801
93704,93831
93751,93848
93813,93852
93840,93877
93804,93843
93818,93854
93865,93900
93901,93873
93935,93901
93942,93942
93948,93860
93974,93921
94027,93968
94052,93974
94050,93955
94009,93926
94073,93958
94100,93984
94116,94021
94137,93965
94116,93987
94190,94008
94200,94019
94239,94005
94209,94038
94224,93998
94286,94040
94252,94080
94319,94109
94288,94064
94342,94039
94365,94100
94397,94084
94414,94106
94390,94120
94393,94066
94471,94102
94501,94163
94511,94162
94500,94160
94533,94111
94565,94195
94608,94173
94627,94198
94642,94164
94578,94161
94659,94203
94641,94221
94600,94150
94541,94137
94419,94064
94285,94017
94186,93989
94022,93895
93785,93788
93600,93690
93433,93652
93316,93559
93173,93461
92988,93470
92848,93306
92753,93321
92646,93236
92565,93226
92440,93153
92276,93114
92190,93030
92097,93040
92046,92999
91978,92946
91852,92927
91807,92874
91798,92925
91715,92860
91642,92850
91556,92826
91584,92802
91556,92851
91515,92771
91483,92817
91461,92777
91444,92779
91515,92809
91482,92796
91428,92777
91444,92748
91451,92816
91536,92857
91498,92816
91502,92810
91524,92782
91528,92835
91576,92884
91568,92837
91594,92860
91582,92833
91651,92908
91667,92889
91694,92894
91675,92900
91631,92909
91685,92910
91748,92940
91707,92915
91685,92908
91714,92906
91733,92933
91811,92959
91769,92963
91778,92938
91765,92930
91789,92955
91840,92987
91828,92993
91890,92948
91855,92964
91930,93021
91984,93053
91953,93014
92032,93061
91984,93055
92090,93066
92072,93066
92096,93080
92079,93065
92093,93047
92150,93133
92128,93103
92180,93100
92117,93081
92134,93081
92153,93098
92189,93136
92184,93104
92130,93088
92130,93071
92187,93104
92158,93115
92144,93061
92154,93094
92112,93054
92148,93066
92181,93104
92132,93121
92133,93039
92117,93067
92132,93085
92139,93120
92153,93061
92121,93118
92094,93038
92139,93092
92172,93102
92164,93092
92181,93082
92141,93046
92222,93163
92186,93117
92193,93076
92203,93117
92187,93108
92260,93148
92281,93166
92294,93136
92288,93173
92270,93150
92387,93201
92379,93154
92406,93167
92392,93176
92408,93169
92475,93253
92469,93232
92541,93227
92498,93279
92568,93267
92619,93312
92673,93290
92628,93316
92676,93327
92685,93316
92770,93329
92819,93377
92822,93390
92832,93356
92871,93379
92882,93401
92948,93408
92944,93425
92977,93433
92999,93452
93026,93484
93054,93506
93040,93480
93070,93476
93082,93484
93139,93524
93154,93535
93125,93540
93133,93537
93168,93503
93221,93579
93253,93573
93203,93546
93208,93554
93244,93558
93289,93579
93297,93596
93297,93570
93309,93593
93318,93585
93359,93628
93354,93626
93387,93629
93328,93574
93382,93608
93420,93643
93456,93602
93410,93665
93408,93612
93432,93647
93431,93618
93446,93654
93490,93663
93428,93616
93460,93615
93492,93704
93495,93685
93504,93646
93473,93635
93489,93684
93532,93673
93553,93707
93510,93644
93514,93687
93515,93685
93599,93728
93562,93726
93596,93676
93551,93714
93615,93716
93654,93712
93666,93751
93644,93701
93673,93762
93696,93736
93749,93753
93747,93798
93758,93760
93714,93796
93766,93749
93828,93844
93833,93810
93868,93813
93823,93785
93857,93822
93894,93878
93904,93854
93902,93859
93914,93789
93906,93858
93975,93889
93977,93884
93989,93830
93936,93867
94024,93861
94057,93918
94039,93920
94074,93888
94065,93863
94138,93922
94165,93978
94177,93944
94193,93925
94159,93919
94229,93978
94264,94016
94266,93987
94289,94004
94275,93958
94297,93991
94359,94033
94336,94030
94343,94060
94337,94008
94381,94046
94454,94092
94480,94103
94469,94048
94467,94043
94555,94110
94571,94122
94629,94144
94608,94126
94635,94146
94633,94170
94733,94196
94732,94229
94717,94156
94695,94188
94723,94167
94734,94187
94657,94138
94564,94059
94415,93989
94258,93981
94129,93880
93932,93787
93725,93690
93542,93581
93331,93537
93247,93484
93069,93410
92924,93339
92733,93264
92662,93198
92627,93199
92455,93133
92349,93052
92216,92997
92165,93001
92111,92983
91989,92941
91888,92856
91758,92839
91772,92838
91708,92826
91665,92781
91576,92786
91514,92744
91533,92746
91545,92774
91516,92766
91415,92720
91431,92722
91445,92774
91466,92752
91447,92719
91419,92703
91421,92706
91442,92775
91503,92739
91486,92741
91480,92730
91445,92771
91493,92743
91540,92827
91492,92749
91529,92779
91506,92784
91554,92783
91624,92838
91541,92829
91579,92806
91541,92783
91593,92837
91639,92842
91584,92834
91614,92770
91560,92804
91590,92823
91607,92846
91593,92819
91629,92797
91622,92821
91643,92843
91698,92859
91711,92863
91722,92850
91685,92878
91754,92856
91846,92922
91795,92898
91842,92908
91820,92903
91867,92964
91935,92950
91890,92958
91863,92937
91852,92927
91940,92959
91931,92972
91888,92913
91908,92971
91844,92927
91931,92924
91885,92932
91882,92928
91860,92909
91841,92915
91834,92947
91872,92901
91823,92902
91772,92892
91748,92859
91825,92905
91775,92877
91757,92879
91738,92842
91714,92852
91772,92912
91775,92854
91758,92847
91724,92849
91745,92860
91762,92893
91755,92870
91768,92845
91767,92859
91764,92870
91797,92877
91839,92916
91788,92919
91783,92857
91807,92876
91868,92947
91843,92932
91900,92908
91848,92948
91867,92901
91949,92930
91931,92974
91976,92960
91976,92930
91973,92987
92019,92966
92066,92984
92080,93005
92037,92993
92111,93029
92164,93033
92166,93082
92178,93073
92155,93032
92191,93068
92237,93114
92249,93102
92291,93069
92247,93110
92294,93125
92351,93142
92378,93168
92316,93155
92399,93126
92431,93151
92464,93192
92472,93185
92543,93199
92471,93191
92539,93199
92586,93222
92590,93244
92621,93255
92574,93242
92638,93255
92683,93326
92701,93304
92674,93310
92699,93295
92712,93319
92746,93282
92769,93350
92780,93335
92738,93289
92784,93302
92829,93372
92860,93341
92850,93344
92816,93327
92832,93348
92904,93380
92920,93379
92911,93400
92931,93341
92918,93401
92963,93415
92973,93405
92932,93396
92952,93398
92965,93408
93024,93430
93028,93408
93011,93448
93017,93379
93068,93438
93053,93441
93104,93465
93049,93428
93090,93439
93094,93492
93158,93433
93164,93511
93177,93515
93106,93468
93190,93504
93193,93502
93229,93512
93231,93540
93208,93476
93263,93542
93302,93548
93311,93572
93277,93534
93271,93540
93344,93580
93351,93582
93388,93583
93400,93600
93342,93528
93454,93614
93433,93629
93468,93622
93471,93618
93495,93634
93493,93637
93577,93661
93597,93659
93566,93683
93557,93637
93678,93709
93671,93747
93715,93726
93748,93734
93682,93698
93788,93734
93803,93784
93839,93763
93841,93796
93866,93760
93884,93826
93922,93828
93923,93825
93910,93782
93898,93819
93949,93847
93969,93819
93981,93841
93976,93864
93971,93779
94013,93863
94051,93861
94062,93878
94031,93880
93998,93857
94107,93879
94143,93925
94135,93906
94156,93905
94128,93903
94215,93926
94272,93989
94259,93960
94277,93981
94328,93968
94363,94012
94419,94017
94464,94050
94423,94039
94416,94024
94506,94068
94473,94061
94460,94009
94449,94040
94337,93933
94253,93932
94110,93866
93962,93759
93748,93704
93532,93569
93407,93543
93212,93484
93035,93364
92905,93277
92728,93222
92599,93172
92548,93155
92381,93052
92229,92990
92093,92947
92050,92905
91973,92896
91833,92838
91741,92784
91618,92719
91581,92719
91513,92739
91422,92653
91374,92640
91296,92603
91276,92629
91261,92629
91180,92602
91159,92548
91082,92550
91119,92584
91131,92552
91097,92558
91044,92521
91059,92529
91062,92582
91084,92553
91065,92555
91002,92565
91027,92571
91069,92576
91083,92613
91089,92571
91061,92560
91050,92595
91076,92558
91122,92610
91076,92601
91079,92589
91076,92562
91140,92639
91116,92585
91113,92594
91078,92593
91047,92573
91117,92598
91079,92614
91049,92568
91053,92592
91035,92584
91071,92582
91105,92587
91089,92588
91070,92549
91090,92591
91091,92606
91107,92644
91090,92597
91115,92592
91129,92618
91099,92646
91144,92648
91115,92640
91105,92608
91122,92602
91197,92662
91122,92633
91151,92626
91139,92605
91145,92600
91159,92672
91146,92608
91154,92640
91080,92606
91070,92607
91127,92624
91107,92608
91097,92595
91055,92575
91013,92574
91064,92610
91082,92585
91020,92563
90994,92549
90983,92538
91002,92593
91006,92584
90959,92551
90940,92514
90919,92529
90959,92543
90937,92539
90915,92540
90897,92502
90880,92509
90930,92517
90942,92539
90913,92511
90911,92538
90899,92541
90977,92557
90955,92545
90952,92500
90961,92547
90978,92548
91005,92556
91056,92597
91039,92578
91032,92572
91061,92617
91089,92597
91099,92616
91127,92625
91136,92593
91161,92636
91199,92672
91220,92668
91219,92670
91191,92616
91287,92653
91323,92733
91344,92712
91354,92692
91336,92701
91367,92719
91439,92760
91457,92754
91423,92757
91471,92771
91532,92793
91533,92809
91569,92797
91599,92799
91593,92791
91646,92857
91681,92887
91686,92844
91692,92833
91686,92859
91739,92873
91796,92881
91809,92931
91775,92891
91799,92902
91829,92928
91894,92944
91884,92932
91934,92931
91854,92892
91941,92938
91981,92962
91994,92985
91988,92953
91965,92978
92038,93013
92096,93027
92077,93022
92070,93009
92101,92990
92118,93017
92152,93063
92183,93034
92179,93081
92162,93023
92247,93062
92246,93115
92265,93089
92321,93073
92241,93107
92325,93083
92360,93148
92346,93120
92381,93130
92327,93113
92407,93152
92422,93159
92417,93157
92473,93186
92430,93125
92477,93179
92538,93227
92555,93236
92552,93200
92543,93203
92590,93219
92646,93263
92653,93259
92663,93260
92670,93218
92765,93291
92755,93334
92797,93289
92829,93338
92795,93297
92855,93355
92922,93331
92944,93374
92893,93365
92916,93357
92991,93405
92975,93441
93001,93393
93050,93429
92983,93389
93094,93450
93117,93456
93114,93463
93178,93471
93116,93471
93197,93500
93285,93534
93276,93510
93300,93552
93321,93510
93390,93558
93403,93578
93448,93572
93433,93590
93458,93565
93505,93649
93541,93607
93531,93646
93538,93604
93546,93617
93622,93694
93677,93698
93601,93672
93649,93646
93615,93659
93685,93682
93713,93722
93683,93707
93694,93683
93697,93706
93753,93750
93772,93716
93787,93718
93798,93752
93764,93700
93883,93772
93869,93795
93911,93760
93870,93794
93903,93742
94001,93817
93957,93824
93992,93827
93975,93826
93959,93847
94021,93828
94062,93888
94004,93820
94008,93805
93943,93773
93936,93821
93890,93746
93776,93726
93568,93592
93422,93563
93312,93458
93174,93445
92962,93319
92756,93232
92614,93144
92490,93109
92347,93087
92193,92976
92069,92898
91933,92861
91817,92833
91731,92775
91568,92724
91469,92631
91333,92603
91216,92575
91130,92559
91001,92492
90904,92439
90808,92416
90743,92398
90662,92369
90572,92316
90480,92266
90422,92229
90379,92282
90341,92226
90328,92233
90219,92222
90184,92183
90218,92208
90201,92196
90139,92149
90157,92177
90095,92147
90139,92190
90098,92173
90104,92152
90042,92146
90065,92119
90144,92205
90125,92181
90073,92192
90083,92184
90074,92160
90134,92186
90128,92195
90112,92177
90070,92188
90071,92187
90156,92180
90147,92221
90124,92172
90105,92178
90126,92187
90184,92209
90125,92200
90159,92186
90105,92205
90139,92179
90204,92251
90172,92234
90155,92208
90205,92234
90158,92204
90221,92251
90261,92271
90214,92244
90226,92244
90199,92242
90253,92270
90274,92257
90211,92243
90251,92220
90231,92265
90224,92234
90281,92253
90224,92234
90226,92193
90215,92228
90221,92277
90252,92225
90222,92255
90193,92178
90220,92239
90202,92224
90206,92210
90211,92219
90171,92141
90186,92239
90189,92210
90181,92180
90201,92201
90110,92162
90192,92188
90202,92197
90185,92229
90176,92209
90167,92163
90202,92233
90194,92196
90246,92246
90221,92218
90217,92197
90238,92258
90262,92242
90296,92248
90309,92228
90271,92222
90324,92277
90336,92275
90381,92278
90355,92299
90370,92256
90427,92294
90436,92316
90463,92303
90494,92359
90450,92292
90505,92337
90573,92379
90577,92364
90592,92359
90595,92378
90629,92437
90677,92426
90676,92391
90713,92423
90701,92403
90741,92461
90748,92471
90803,92456
90802,92464
90793,92478
90828,92478
90888,92514
90887,92509
90909,92507
90894,92515
90950,92517
90979,92584
90978,92552
91012,92561
90986,92544
91039,92579
91070,92606
91072,92580
91090,92556
91054,92587
91114,92638
91146,92617
91117,92640
91141,92633
91168,92610
91175,92676
91226,92663
91207,92625
91190,92672
91175,92603
91273,92670
91269,92713
91281,92652
91247,92667
91237,92650
91294,92657
91333,92734
91313,92674
91334,92694
91277,92671
91340,92694
91353,92760
91384,92723
91346,92721
91345,92699
91441,92750
91442,92730
91433,92758
91428,92735
91433,92744
91471,92767
91506,92798
91510,92786
91476,92771
91484,92759
91546,92793
91565,92819
91565,92830
91572,92762
91577,92814
91572,92825
91632,92844
91606,92841
91621,92815
91585,92782
91644,92827
91652,92880
91674,92861
91659,92842
91656,92837
91720,92890
91755,92883
91695,92876
91717,92839
91720,92864
91763,92895
91798,92897
91765,92918
91766,92885
91776,92860
91812,92921
91830,92932
91828,92921
91801,92918
91852,92916
91866,92974
91920,92966
91911,92966
91910,92949
91908,92977
91946,92950
92022,93000
91981,92979
91996,93000
91964,92967
92053,93009
92080,93056
92055,93008
92051,93006
92088,93013
92168,93106
92149,93040
92169,93086
92140,93064
92135,93085
92188,93091
92235,93087
92219,93085
92179,93064
92175,93071
92179,93079
92183,93056
92039,93013
91997,92952
91848,92949
91778,92866
91725,92876
91565,92794
91405,92684
91281,92610
91200,92587
91041,92543
90914,92458
90745,92359
90644,92343
90511,92335
90382,92243
90270,92217
90094,92096
89980,92024
89928,92059
89760,91991
89687,91947
89548,91891
89469,91846
89418,91830
89364,91846
89282,91782
89170,91737
89132,91726
89122,91710
89097,91728
89056,91689
88974,91666
88973,91686
89016,91673
89019,91711
88970,91685
88913,91653
88943,91658
88981,91687
88982,91682
88973,91683
88969,91673
88980,91689
89003,91701
89039,91711
89033,91708
89044,91691
89058,91727
89096,91727
89144,91753
89113,91777
89098,91733
89147,91762
89181,91784
89203,91790
89199,91767
89184,91769
89205,91793
89204,91799
89243,91822
89215,91799
89207,91811
89225,91798
89303,91812
89281,91886
89290,91838
89291,91812
89347,91854
89364,91896
89403,91875
89396,91864
89398,91813
89436,91880
89400,91929
89445,91878
89457,91888
89421,91854
89458,91913
89448,91904
89486,91939
89455,91919
89453,91876
89507,91935
89515,91904
89501,91931
89501,91889
89501,91895
89542,91914
89552,91937
89559,91940
89528,91930
89524,91888
89534,91923
89551,91944
89561,91904
89569,91927
89496,91886
89552,91937
89604,91933
89554,91937
89537,91896
89548,91948
89581,91935
89578,91937
89568,91943
89603,91952
89543,91907
89607,91932
89671,91980
89640,91947
89685,91970
89634,91952
89706,91998
89712,92018
89736,92029
89758,92013
89744,91986
89808,92061
89839,92052
89875,92110
89890,92088
89888,92051
89935,92124
89984,92107
89972,92154
90015,92138
90016,92106
90073,92176
90090,92160
90143,92174
90110,92176
90118,92162
90197,92236
90200,92234
90255,92244
90228,92213
90232,92222
90322,92292
90312,92293
90375,92273
90355,92317
90349,92279
90410,92337
90476,92331
90452,92378
90449,92328
90453,92350
90537,92372
90542,92376
90553,92401
90532,92376
90591,92372
90594,92420
90612,92436
90684,92447
90641,92416
90650,92408
90662,92452
90731,92479
90711,92461
90699,92453
90729,92436
90773,92500
90779,92476
90802,92501
90786,92508
90766,92447
90819,92523
90836,92540
90834,92483
90886,92552
90840,92540
90894,92539
90903,92539
90911,92540
90894,92571
90930,92523
90936,92552
90963,92569
90955,92549
90989,92569
90963,92546
91021,92595
91053,92612
91057,92607
91073,92616
91043,92610
91113,92631
91100,92657
91150,92665
91144,92640
91091,92619
91187,92669
91223,92688
91189,92679
91186,92660
91168,92657
91255,92718
91271,92715
91239,92680
91242,92692
91264,92699
91289,92732
91365,92743
91338,92714
91301,92710
91330,92697
91339,92740
91428,92751
91383,92767
91348,92729
91387,92765
91426,92789
91460,92791
91467,92770
91436,92810
91444,92746
91527,92811
91533,92811
91536,92814
91521,92833
91581,92823
91598,92860
91631,92854
91642,92845
91647,92843
91621,92873
91710,92906
91706,92910
91743,92906
91701,92893
91731,92908
91775,92918
91819,92981
91834,92955
91810,92959
91818,92929
91905,92985
91881,92995
91889,92981
91911,92953
91858,92957
91882,92975
91890,92971
91797,92927
91678,92862
91616,92832
91526,92812
91413,92720
91289,92652
91128,92584
90969,92529
90905,92496
90770,92477
90612,92371
90450,92267
90344,92222
90228,92195
90141,92163
90039,92098
89833,92028
89770,91990
89661,91960
89583,91889
89466,91862
89355,91835
89280,91766
89230,91803
89127,91774
89090,91702
89047,91726
88970,91650
88991,91662
88954,91694
88906,91633
88857,91616
88855,91654
88850,91663
88899,91657
88877,91645
88854,91620
88849,91630
88902,91675
88927,91669
88911,91676
88914,91640
88965,91717
88999,91701
89016,91729
89022,91714
89052,91711
89055,91734
89136,91759
89143,91777
89126,91810
89125,91706
89159,91781
89200,91796
89188,91789
89209,91778
89175,91775
89252,91819
89236,91835
89259,91837
89249,91800
89238,91798
89305,91836
89334,91850
89348,91836
89353,91847
89333,91825
89419,91900
89422,91936
89453,91867
89462,91908
89444,91900
89464,91944
89515,91916
89539,91952
89505,91900
89467,91916
89533,91916
89567,91959
89580,91935
89569,91965
89489,91923
89533,91944
89564,91952
89556,91977
89565,91962
89519,91907
89559,91960
89557,91971
89576,91925
89562,91947
89499,91943
89517,91915
89569,91939
89545,91931
89551,91914
89472,91942
89493,91934
89548,91929
89506,91957
89529,91898
89520,91915
89551,91926
89578,92003
89554,91924
89553,91950
89514,91921
89550,91966
89614,91981
89624,91963
89635,91979
89570,91959
89644,91995
89667,92005
89695,91997
89681,92046
89655,91960
89737,92052
89740,92079
89775,92044
89767,92037
89758,92056
89818,92070
89904,92090
89900,92109
89907,92105
89907,92112
89949,92145
90021,92148
90015,92152
90038,92151
90044,92151
90088,92232
90134,92204
90181,92228
90154,92233
90158,92197
90225,92264
90230,92267
90276,92293
90282,92307
90275,92251
90354,92320
90344,92294
90400,92320
90390,92314
90384,92273
90460,92363
90470,92373
90424,92378
90456,92362
90442,92330
90517,92401
90491,92365
90549,92389
90520,92394
90509,92405
90542,92387
90596,92402
90555,92424
90588,92415
90552,92396
90636,92430
90625,92465
90641,92415
90678,92446
90640,92409
90711,92498
90705,92477
90702,92492
90658,92468
90687,92460
90730,92481
90747,92495
90708,92468
90729,92453
90714,92488
90745,92490
90804,92508
90755,92473
90803,92528
90803,92485
90826,92567
90831,92502
90852,92540
90785,92509
90841,92516
90882,92551
90870,92541
90921,92563
90883,92516
90853,92562
90901,92568
90925,92606
90922,92558
90954,92596
90903,92537
90985,92601
90996,92634
90977,92585
90972,92574
90963,92604
91023,92595
91053,92644
91045,92637
90991,92618
91042,92616
91036,92652
91070,92645
91052,92653
91080,92655
91081,92630
91105,92693
91119,92643
91117,92654
91124,92646
91176,92676
91181,92714
91182,92664
91222,92721
91184,92666
91222,92693
91235,92745
91292,92731
91269,92758
91285,92707
91275,92724
91374,92769
91368,92776
91381,92775
91370,92761
91416,92773
91451,92804
91469,92820
91469,92818
91474,92803
91474,92808
91448,92820
91409,92785
91333,92755
91250,92671
91118,92619
91081,92617
90967,92553
90811,92500
90660,92402
90538,92357
90454,92331
90359,92264
90188,92204
90033,92102
89929,92082
89799,92042
89687,91993
89574,91905
89421,91876
89331,91822
89222,91799
89107,91730
89026,91709
88891,91635
88781,91629
88755,91613
88684,91580
88617,91542
88567,91491
88507,91519
88467,91503
88458,91489
88451,91466
88425,91477
88429,91445
88434,91483
88437,91463
88427,91457
88438,91460
88406,91462
88471,91494
88449,91497
88483,91497
88478,91483
88518,91514
88572,91548
88544,91539
88566,91538
88523,91506
88545,91544
88593,91567
88621,91546
88639,91584
88583,91534
88613,91560
88660,91590
88644,91580
88634,91574
88609,91550
88632,91565
88662,91600
88679,91597
88680,91587
88632,91562
88742,91616
88763,91628
88744,91633
88792,91616
88748,91620
88829,91660
88866,91673
88886,91704
88908,91679
88875,91666
88925,91703
88948,91703
88974,91719
88965,91699
88926,91690
88995,91712
89020,91732
89011,91732
89006,91723
88945,91699
89008,91711
89023,91739
89046,91742
89008,91727
89018,91701
88993,91735
89049,91765
89012,91744
88997,91705
89015,91705
89046,91721
89057,91767
89054,91776
89016,91734
88992,91721
89038,91721
89018,91734
89042,91750
89046,91741
89045,91755
89073,91758
89097,91785
89079,91807
89042,91763
89070,91725
89109,91750
89131,91770
89116,91807
89121,91776
89152,91779
89162,91805
89198,91824
89211,91816
89218,91836
89170,91765
89242,91869
89271,91865
89267,91833
89290,91889
89233,91796
89286,91887
89357,91909
89354,91900
89325,91870
89309,91894
89390,91923
89441,91945
89414,91933
89430,91930
89436,91954
89505,91981
89517,91965
89524,92010
89483,91982
89529,91961
89596,92003
89586,92031
89610,92018
89620,92035
89619,91984
89670,92038
89705,92077
89658,92047
89724,92034
89674,92067
89754,92093
89758,92109
89747,92079
89817,92067
89745,92089
89837,92138
89873,92136
89844,92109
89856,92094
89838,92127
89894,92166
89909,92156
89927,92150
89941,92151
89923,92125
89970,92184
89988,92195
89970,92167
90037,92173
89991,92175
90057,92212
90042,92214
90085,92236
90001,92207
90066,92191
90074,92232
90117,92241
90113,92244
90106,92223
90073,92243
90134,92247
90191,92282
90181,92285
90158,92250
90171,92237
90239,92279
90230,92287
90240,92284
90256,92282
90246,92288
90312,92321
90304,92336
90339,92337
90319,92322
90279,92312
90333,92363
90372,92351
90371,92361
90364,92348
90353,92329
90406,92378
90464,92414
90449,92376
90401,92359
90400,92373
90449,92390
90498,92430
90484,92407
90453,92387
90471,92396
90517,92430
90544,92436
90523,92424
90540,92412
90544,92438
90571,92447
90586,92475
90586,92451
90595,92471
90624,92460
90639,92465
90686,92513
90669,92478
90654,92475
90675,92491
90725,92523
90758,92551
90736,92517
90705,92504
90750,92509
90774,92534
90804,92571
90800,92558
90760,92536
90779,92547
90826,92554
90855,92588
90858,92591
90842,92565
90823,92547
90865,92584
90878,92602
90816,92548
90712,92491
90672,92480
90609,92438
90521,92423
90387,92341
90258,92271
90138,92231
90035,92178
89889,92113
89750,92043
89602,91949
89441,91905
89369,91885
89257,91807
89076,91749
88929,91668
88829,91636
88725,91584
88578,91520
88489,91480
88354,91422
88255,91407
88216,91383
88138,91335
88028,91283
87966,91245
87908,91236
87890,91248
87856,91210
87762,91190
87740,91175
87746,91150
87750,91214
87738,91185
87742,91162
87697,91126
87707,91176
87752,91180
87748,91200
87772,91187
87776,91182
87792,91205
87818,91220
87853,91250
87864,91219
87794,91204
87855,91237
87881,91275
87888,91277
87879,91243
87869,91248
87899,91276
87929,91260
87937,91272
87886,91273
87894,91251
87928,91288
87967,91319
87969,91285
87983,91309
87966,91255
88022,91338
88026,91333
88089,91333
88091,91367
88085,91323
88122,91372
88183,91406
88191,91408
88232,91419
88206,91414
88256,91397
88314,91447
88297,91468
88255,91441
88268,91402
88344,91450
88342,91469
88366,91466
88337,91477
88306,91430
88351,91494
88382,91466
88384,91470
88395,91473
88360,91436
88350,91492
88402,91510
88398,91480
88410,91477
88381,91489
88410,91462
88447,91506
88401,91528
88430,91494
88382,91487
88466,91513
88440,91533
88436,91513
88438,91479
88401,91499
88456,91537
88473,91532
88504,91519
88514,91540
88465,91498
88537,91574
88560,91579
88551,91577
88560,91541
88542,91572
88605,91584
88646,91643
88666,91608
88646,91607
88634,91563
88684,91637
88750,91643
88726,91626
88812,91663
88738,91663
88824,91695
88865,91720
88886,91742
88900,91696
88891,91731
88993,91765
89011,91789
89019,91794
89063,91769
89066,91757
89109,91823
89185,91891
89161,91846
89207,91812
89204,91874
89291,91901
89308,91939
89310,91922
89310,91900
89375,91914
89385,91948
89449,91974
89466,91997
89440,91978
89468,91949
89534,91974
89561,92034
89563,91992
89602,92016
89576,92009
89649,92066
89678,92082
89685,92055
89679,92046
89727,92082
89771,92089
89778,92135
89806,92113
89792,92093
89812,92117
89867,92167
89893,92186
89908,92160
89900,92145
89937,92147
89989,92190
90020,92235
90018,92213
89985,92202
90009,92188
90096,92215
90098,92254
90104,92242
90105,92256
90114,92239
90159,92290
90182,92317
90202,92293
90203,92283
90170,92276
90255,92339
90286,92322
90297,92330
90295,92320
90263,92309
90346,92338
90351,92383
90387,92362
90372,92370
90351,92361
90405,92397
90444,92394
90460,92397
90447,92378
90433,92390
90529,92444
90539,92431
90524,92435
90544,92429
90550,92432
90616,92478
90631,92486
90646,92504
90639,92474
90643,92483
90709,92510
90725,92511
90754,92537
90757,92530
90748,92515
90799,92563
90804,92578
90860,92570
90837,92570
90833,92575
90887,92609
90913,92618
90957,92630
90953,92607
90991,92635
91048,92658
91065,92674
91064,92650
91076,92658
91123,92693
91168,92718
91201,92729
91179,92702
91191,92713
91205,92752
91291,92776
91288,92771
91284,92776
91277,92743
91287,92774
91342,92797
91308,92770
91305,92764
91187,92706
91106,92665
91072,92649
90972,92577
90800,92509
90634,92431
90522,92382
90459,92342
90348,92289
90171,92207
90050,92128
89931,92075
89823,92058
89707,92013
89561,91904
89421,91840
89348,91818
89183,91793
89132,91769
89009,91697
88913,91628
88784,91605
88772,91641
88659,91532
88619,91565
88548,91493
88478,91494
88494,91457
88430,91498
88430,91461
88353,91412
88369,91460
88422,91443
88363,91451
88403,91453
88369,91401
88416,91487
88418,91481
88457,91453
88443,91501
88467,91467
88518,91474
88538,91535
88608,91522
88595,91515
88601,91492
88607,91562
88661,91576
88679,91559
88712,91594
88634,91575
88716,91565
88767,91601
88725,91628
88725,91576
88761,91593
88812,91645
88820,91621
88833,91610
88855,91625
88793,91637
88902,91636
88917,91697
88957,91703
88956,91699
88967,91653
89023,91755
89067,91747
89123,91744
89138,91749
89098,91744
89195,91790
89188,91795
89231,91786
89205,91822
89173,91785
89229,91819
89274,91815
89332,91857
89297,91820
89287,91827
89301,91840
89352,91853
89366,91882
89359,91848
89327,91815
89368,91871
89390,91858
89375,91891
89366,91871
89362,91816
89385,91883
89436,91904
89390,91881
89410,91871
89380,91845
89442,91890
89458,91919
89447,91885
89428,91885
89439,91858
89454,91944
89483,91892
89519,91944
89504,91926
89512,91913
89527,91949
89604,91930
89598,91981
89619,91963
89576,91983
89669,91973
89734,92023
89702,92030
89695,92001
89746,92014
89768,92023
89827,92069
89807,92031
89838,92059
89852,92053
89921,92107
89936,92116
89925,92141
89965,92137
89928,92163
90006,92133
90054,92152
90019,92148
90062,92174
90098,92172
90111,92205
90186,92216
90146,92249
90214,92221
90165,92225
90297,92263
90326,92316
90296,92268
90347,92277
90344,92292
90394,92351
90420,92351
90431,92326
90455,92354
90406,92333
90513,92392
90527,92422
90558,92367
90569,92407
90550,92407
90611,92428
90617,92399
90622,92464
90618,92439
90644,92412
90688,92482
90722,92447
90719,92486
90727,92480
90740,92443
90802,92497
90807,92542
90820,92508
90844,92511
90809,92477
90917,92558
90937,92536
90926,92569
90928,92548
90953,92586
90988,92581
91051,92585
91054,92643
91063,92622
91054,92602
91149,92657
91150,92678
91177,92630
91175,92647
91173,92684
91242,92672
91269,92722
91266,92683
91287,92707
91237,92718
91350,92725
91356,92767
91364,92731
91370,92719
91386,92725
91485,92800
91482,92805
91503,92796
91489,92783
91517,92808
91596,92833
91615,92869
91595,92832
91623,92839
91689,92864
91670,92904
91729,92874
91738,92947
91757,92910
91783,92910
91857,92970
91865,92975
91919,92942
91898,92972
91914,92947
91999,93034
92000,93010
92046,93050
92023,93015
92036,92999
92125,93073
92115,93067
92137,93068
92118,93086
92150,93080
92172,93118
92232,93115
92246,93123
92278,93130
92291,93160
92376,93151
92407,93210
92378,93187
92430,93194
92433,93212
92534,93225
92577,93264
92507,93212
92490,93206
92423,93173
92415,93163
92241,93119
92122,93024
91909,92916
91786,92827
91615,92786
91483,92725
91347,92650
91177,92561
91061,92531
90920,92476
90816,92404
90686,92344
90560,92285
90459,92244
90376,92237
90257,92147
90157,92133
90024,92046
89982,92026
89918,92043
89830,91997
89781,91979
89706,91914
89643,91897
89654,91926
89580,91931
89592,91873
89505,91846
89531,91869
89518,91900
89541,91892
89473,91859
89492,91879
89474,91857
89535,91878
89541,91910
89553,91871
89519,91884
89553,91887
89641,91939
89639,91937
89591,91926
89582,91881
89646,91965
89637,91949
89660,91909
89637,91909
89596,91911
89647,91954
89674,91963
89677,91967
89673,91951
89609,91901
89646,91952
89678,91970
89693,91946
89659,91946
89636,91936
89695,91944
89715,91986
89740,91985
89773,91972
89743,91989
89835,92016
89856,92037
89877,92030
89854,92025
89880,92032
89911,92054
89926,92070
89958,92071
89939,92075
89926,92034
89978,92060
89993,92119
89929,92058
89966,92077
89927,92051
89964,92071
89965,92074
89947,92111
89966,92070
89930,92029
89965,92087
89986,92089
89956,92095
89950,92083
89904,92027
89963,92072
89950,92107
89931,92044
89912,92063
89923,92028
89944,92050
89963,92105
89959,92022
89965,92055
89930,92040
89942,92055
90021,92076
89976,92079
89946,92084
89960,92066
90008,92095
90029,92115
89989,92063
90024,92100
90032,92076
90041,92129
90069,92128
90100,92112
90083,92109
90069,92110
90096,92146
90134,92145
90169,92191
90177,92155
90140,92146
90206,92197
90266,92218
90220,92165
90212,92205
90263,92189
90294,92258
90323,92236
90319,92223
90326,92273
90337,92203
90358,92274
90403,92256
90463,92296
90420,92262
90398,92266
90502,92309
90503,92329
90528,92339
90498,92314
90546,92315
90541,92329
90598,92372
90609,92330
90608,92356
90600,92348
90626,92405
90661,92404
90665,92366
90673,92391
90624,92355
90668,92412
90679,92400
90681,92410
90674,92425
90634,92346
90714,92449
90698,92405
90727,92435
90714,92393
90691,92395
90715,92441
90756,92424
90745,92424
90729,92424
90729,92411
90806,92477
90773,92458
90790,92446
90763,92438
90722,92410
90815,92477
90832,92496
90784,92440
90798,92437
90756,92422
90849,92492
90861,92505
90839,92446
90843,92424
90808,92476
90869,92489
90874,92470
90854,92498
90870,92481
90877,92476
90922,92510
90935,92540
90895,92481
90922,92488
90918,92502
90940,92527
90987,92526
90988,92553
90945,92509
90961,92483
91022,92570
90993,92592
91013,92538
91017,92541
90974,92565
91046,92561
91091,92587
91016,92551
91042,92555
91012,92579
91096,92585
91134,92641
91109,92588
91118,92603
91144,92618
91139,92629
91209,92646
91189,92653
91178,92623
91187,92627
91254,92651
91260,92699
91266,92629
91273,92644
91249,92691
91280,92670
91336,92713
91339,92668
91325,92689
91329,92682
91315,92727
91281,92644
91255,92645
91157,92610
91038,92547
91003,92512
90895,92480
90727,92360
90563,92298
90447,92245
90336,92222
90251,92147
90031,92076
89892,91989
89787,91931
89664,91926
89508,91797
89394,91819
89212,91696
89123,91632
89040,91636
88885,91556
88771,91538
88636,91459
88591,91417
88507,91426
88429,91372
88354,91315
88291,91308
88252,91295
88172,91300
88140,91245
88120,91259
88094,91189
88081,91231
88039,91237
88078,91230
88075,91207
88006,91186
88022,91231
88064,91219
88069,91243
88060,91186
88033,91196
88051,91199
88098,91231
88088,91234
88108,91243
88073,91207
88128,91207
88144,91254
88138,91250
88107,91238
88109,91180
88123,91257
88136,91266
88150,91265
88134,91235
88086,91235
88126,91233
88196,91284
88153,91242
88156,91222
88162,91250
88201,91264
88254,91287
88267,91322
88254,91262
88260,91290
88323,91302
88396,91348
88351,91358
88406,91348
88329,91338
88445,91399
88447,91399
88474,91362
88447,91407
88478,91369
88487,91410
88567,91413
88502,91448
88560,91414
88494,91396
88545,91416
88588,91443
88542,91415
88560,91425
88512,91400
88550,91417
88622,91433
88604,91453
88557,91406
88576,91373
88593,91418
88637,91467
88593,91457
88653,91452
88573,91386
88624,91439
88704,91476
88655,91491
88666,91446
88643,91440
88675,91463
88746,91513
88716,91487
88739,91514
88713,91471
88773,91518
88802,91532
88802,91504
88814,91533
88810,91533
88888,91581
88921,91610
88909,91556
88932,91591
88890,91568
88979,91638
89024,91624
89061,91666
89050,91639
89090,91615
89122,91686
89178,91661
89191,91716
89198,91699
89216,91702
89277,91732
89336,91760
89344,91791
89382,91782
89357,91761
89423,91809
89445,91827
89510,91855
89498,91821
89524,91845
89550,91864
89616,91911
89603,91887
89645,91911
89676,91883
89705,91911
89792,91975
89770,91950
89760,91960
89791,91963
89815,91985
89847,92002
89871,92018
89863,91975
89852,91998
89920,92017
89912,92029
89957,92042
89934,92024
89926,91989
89976,92049
89980,92062
89998,92070
89969,92034
90014,92031
90031,92084
90106,92092
90077,92070
90092,92099
90074,92138
90168,92120
90141,92135
90140,92117
90162,92113
90169,92153
90233,92136
90246,92195
90205,92150
90252,92170
90240,92175
90282,92178
90312,92208
90297,92210
90299,92214
90324,92203
90399,92251
90392,92241
90437,92268
90440,92228
90383,92234
90476,92261
90545,92303
90497,92307
90488,92279
90548,92291
90580,92328
90581,92321
90652,92342
90614,92324
90610,92319
90692,92372
90690,92375
90682,92376
90665,92351
90725,92388
90746,92389
90789,92413
90805,92435
90799,92400
90761,92413
90883,92452
90876,92478
90871,92473
90883,92451
90933,92486
90980,92496
91001,92496
91013,92529
90978,92471
91002,92527
91110,92559
91108,92577
91128,92572
91115,92560
91115,92534
91182,92614
91220,92609
91224,92586
91220,92618
91216,92608
91302,92680
91312,92664
