11111,11111
0,0
82266,82352
110923,114277
110950,114293
110924,114248
110869,114247
110820,114207
110905,114225
110946,114306
110904,114261
110929,114235
110890,114227
110998,114262
111060,114325
111061,114297
111024,114246
111007,114277
111056,114281
111140,114301
111089,114326
111038,114268
111045,114236
111091,114318
111117,114282
111123,114294
111064,114258
111060,114251
111086,114309
111098,114312
111081,114253
111036,114223
110994,114230
111064,114272
111087,114325
111064,114297
111043,114231
110980,114226
111051,114276
111095,114260
111094,114267
110997,114169
111070,114237
111099,114333
111104,114273
111106,114286
111094,114239
111095,114281
111179,114293
111240,114331
111203,114302
111157,114277
111216,114315
111319,114352
111397,114379
111373,114391
111314,114346
111386,114374
111550,114455
111501,114480
111521,114423
111546,114433
111579,114473
111658,114528
111689,114528
111700,114542
111662,114478
111783,114558
111851,114598
111802,114558
111852,114590
111784,114545
111859,114603
111953,114655
111944,114566
111986,114554
111896,114556
111979,114607
112036,114610
112059,114620
112014,114609
111954,114568
112074,114602
112098,114674
112066,114604
112089,114608
112005,114601
112056,114629
112093,114679
112089,114616
112068,114638
111992,114545
112069,114622
112167,114661
112110,114633
112126,114631
112048,114584
112143,114633
112200,114659
112175,114691
112170,114651
112172,114643
112232,114679
112323,114728
112324,114729
112292,114700
112267,114685
112410,114756
112430,114786
112485,114761
112440,114756
112427,114783
112512,114831
112542,114849
112542,114802
112539,114811
112511,114773
112577,114850
112617,114845
112607,114863
112555,114821
112593,114812
112658,114902
112699,114887
112710,114904
112715,114874
113325,115173
112406,114661
112224,114532
111366,114147
111347,114157
111328,114107
111665,114292
111683,114274
111633,114248
111604,114245
111815,114376
111888,114385
111920,114422
111910,114372
111836,114344
111806,114340
111921,114381
111908,114407
111871,114370
111847,114339
111802,114350
111890,114391
111877,114395
111887,114374
111840,114335
111809,114347
111888,114372
111911,114375
111881,114387
111838,114307
111845,114365
111880,114376
111946,114407
111893,114397
111828,114363
111884,114367
111950,114418
112012,114401
111979,114435
111942,114386
111996,114417
112117,114504
112126,114506
112150,114501
112125,114450
112160,114512
112265,114562
112299,114584
112268,114558
112271,114546
112330,114596
112434,114671
112463,114668
112447,114666
112423,114635
112489,114652
112592,114737
112615,114728
112593,114735
112593,114707
112687,114735
112746,114760
112785,114796
112759,114782
112737,114779
112759,114802
112824,114839
112791,114808
112756,114813
112682,114728
112747,114810
112760,114802
112757,114812
112684,114753
112640,114702
112659,114752
112728,114811
112675,114751
112677,114755
112594,114694
112664,114740
112735,114802
112679,114777
112655,114755
112597,114711
112692,114730
112754,114829
112686,114797
112704,114752
112656,114733
112733,114779
112791,114827
112720,114803
112722,114768
112655,114750
112716,114798
112769,114813
112751,114801
112719,114773
112684,114745
112747,114791
112781,114836
112780,114790
112703,114772
112706,114763
112772,114815
112793,114837
112788,114842
112701,114746
112693,114761
112816,114819
112831,114870
112758,114833
112763,114760
112767,114796
112798,114815
112852,114848
112856,114862
112780,114792
112789,114815
112875,114873
112902,114895
112902,114882
112913,114837
112940,114861
113006,114932
113081,114962
113057,114948
113050,114918
113083,114951
113139,114966
113228,115029
113226,115036
113143,114987
113204,114990
113313,115067
113326,115065
113350,115073
113308,115049
113356,115062
113481,115127
113477,115155
113494,115144
113497,115146
113558,115157
113634,115242
113662,115222
113644,115214
113650,115202
113712,115248
113776,115310
113841,115317
113840,115325
113787,115247
113886,115324
113967,115388
113980,115374
113939,115362
113938,115327
114014,115398
114063,115412
114085,115425
114072,115427
113967,115375
114047,115368
114086,115430
113980,115364
113865,115291
113705,115209
113581,115132
113434,115057
113200,114944
112970,114803
112709,114670
112553,114596
112431,114576
112256,114460
112105,114365
111948,114328
111871,114286
111859,114300
111772,114255
111623,114154
111525,114099
111545,114131
111546,114139
111486,114092
111409,114069
111363,114017
111405,114089
111413,114065
111383,114058
111390,114046
111325,114026
111383,114082
111470,114109
111434,114121
111401,114059
111383,114075
111439,114123
111530,114155
111483,114112
111495,114123
111473,114107
111502,114143
111552,114177
111527,114155
111520,114147
111452,114105
111529,114147
111571,114179
111546,114139
111498,114136
111459,114101
111523,114143
111556,114170
111539,114154
111478,114112
111423,114096
111501,114116
111527,114184
111505,114145
111458,114094
111431,114080
111487,114097
111547,114179
111485,114112
111456,114108
111472,114115
111531,114141
111602,114181
111602,114153
111505,114144
111537,114143
111597,114182
111666,114222
111620,114190
111589,114113
111584,114176
111657,114180
111639,114193
111648,114199
111559,114118
111618,114153
111612,114198
111663,114185
111584,114150
111533,114079
111559,114118
111573,114132
111594,114149
111566,114109
111466,114032
111487,114096
111536,114110
111579,114121
111518,114119
111454,114045
111485,114067
111514,114117
111562,114118
111541,114122
111431,114022
111518,114072
111594,114142
111593,114130
111597,114115
111504,114086
111608,114115
111683,114181
111672,114178
111674,114140
111613,114141
111712,114176
111751,114237
111779,114216
111769,114204
111710,114182
111771,114201
111885,114253
111843,114257
111823,114234
111811,114221
111857,114239
111949,114305
111882,114263
111902,114248
111810,114241
111905,114278
111936,114284
111940,114292
111927,114299
111896,114234
111966,114307
112029,114357
112034,114363
112009,114309
112018,114328
112138,114375
112203,114431
112180,114399
112211,114388
112182,114400
112320,114420
112386,114512
112357,114482
112371,114462
112365,114440
112429,114533
112469,114548
112484,114524
112470,114501
112388,114502
112483,114523
112562,114566
112478,114559
112460,114485
112459,114497
112504,114521
112550,114586
112515,114538
112519,114535
112461,114491
112561,114569
112584,114598
112618,114599
112550,114522
112565,114585
112633,114600
112658,114625
112703,114623
112644,114587
112641,114564
112753,114644
112750,114674
112731,114657
112701,114585
112727,114612
112803,114673
112815,114675
112802,114663
112717,114617
112735,114617
112819,114678
112823,114667
112772,114665
112703,114616
112725,114643
112765,114660
112779,114648
112762,114643
112676,114608
112676,114585
112744,114635
112735,114642
112675,114593
112618,114553
112629,114610
112706,114599
112699,114605
112689,114621
112631,114528
112660,114609
112728,114637
112754,114649
112765,114647
112669,114584
112792,114641
112835,114696
112843,114660
112863,114696
112811,114635
112908,114713
112996,114762
112989,114731
113027,114758
112950,114705
113059,114756
113137,114839
113133,114807
113138,114770
113116,114764
113129,114815
113191,114856
113186,114852
113181,114806
113129,114793
113139,114783
113223,114856
113238,114844
113161,114805
113139,114809
113203,114821
113241,114868
113229,114851
113228,114819
113143,114786
113198,114833
113249,114840
113185,114787
113084,114767
112985,114674
112895,114653
112835,114622
112665,114492
112454,114392
112286,114309
112220,114279
112098,114235
111956,114159
111850,114083
111683,113986
111680,114011
111648,113994
111518,113954
111426,113900
111329,113825
111388,113907
111380,113879
111329,113831
111295,113811
111205,113805
111290,113835
111361,113874
111312,113852
111308,113798
111306,113822
111367,113858
111483,113927
111483,113930
111472,113898
111500,113926
111561,113955
111673,114010
111671,114029
111635,113966
111656,113985
111748,114054
111815,114086
111789,114060
111788,114033
111771,114059
111846,114074
111904,114096
111838,114124
111810,114040
111845,114048
111883,114122
111902,114081
111850,114082
111775,114019
111794,114044
111819,114048
111821,114048
111747,114050
111717,113998
111702,114005
111774,114053
111782,114061
111739,114036
111685,113988
111741,113985
111777,114058
111821,114082
111838,114064
111793,114015
111849,114099
111953,114161
111963,114145
111949,114151
111899,114069
111963,114140
112020,114165
112028,114191
111998,114138
111937,114109
111942,114117
112009,114159
111963,114141
111951,114115
111893,114065
111868,114103
111961,114134
111918,114130
111886,114084
111806,114054
111830,114061
111878,114082
111851,114086
111812,114055
111764,113992
111794,114066
111860,114063
111853,114060
111790,114054
111712,114015
111829,114076
111874,114111
111839,114073
111852,114052
111794,114030
111840,114084
111929,114113
111941,114108
111881,114085
111875,114045
111938,114124
111988,114124
111978,114141
111995,114125
111956,114111
111996,114147
112077,114193
112075,114206
112052,114153
112046,114165
112120,114203
112199,114269
112187,114260
112212,114235
112206,114231
112295,114297
112354,114324
112384,114347
112344,114284
112350,114284
112461,114356
112548,114390
112518,114388
112489,114375
112459,114363
112580,114401
112647,114448
112615,114447
112600,114390
112576,114410
112618,114436
112713,114474
112682,114443
112626,114429
112664,114434
112666,114479
112740,114483
112740,114506
112665,114413
112672,114437
112703,114501
112754,114520
112684,114464
112602,114422
112615,114435
112654,114451
112674,114493
112639,114471
112596,114396
112608,114439
112654,114442
112675,114483
112661,114436
112601,114423
112670,114435
112723,114500
112744,114489
112699,114455
112662,114452
112666,114441
112761,114523
112744,114503
112707,114478
112635,114402
112706,114476
112726,114481
112737,114494
112754,114475
112661,114438
112685,114470
112783,114534
112790,114542
112765,114476
112750,114474
112806,114513
112904,114563
112868,114525
112901,114556
112863,114534
112919,114522
113004,114630
112989,114625
113024,114620
112944,114581
113051,114583
113145,114694
113156,114654
113168,114652
113121,114611
113261,114713
113290,114747
113334,114772
113382,114745
113382,114756
113489,114831
113587,114894
113648,114888
113676,114929
113660,114917
113793,114961
113927,115059
113963,115042
114024,115049
114005,115092
114116,115103
114254,115209
114283,115172
114286,115209
114261,115160
114387,115254
114438,115281
114441,115293
114420,115266
114390,115244
114487,115296
114506,115325
114482,115321
114455,115258
114363,115235
114407,115275
114369,115257
114299,115192
114103,115092
113954,115019
113802,114958
113691,114878
113447,114755
113129,114614
112919,114441
112772,114425
112597,114360
112402,114226
112253,114126
112092,114116
112102,114091
112020,114102
111921,114004
111834,113940
111748,113910
111808,113940
111800,113965
111756,113920
111678,113874
111637,113894
111734,113907
111717,113939
111656,113900
111638,113863
111627,113882
111680,113922
111741,113944
111680,113909
111638,113865
111695,113892
111721,113960
111774,113950
111770,113956
111713,113889
111754,113932
111821,113981
111859,114025
111849,113966
111819,113925
111816,113982
111888,114015
111956,114031
111915,114002
111876,113969
111854,113989
111924,114023
111926,114038
111894,113989
111788,113941
111817,113939
111884,114009
111834,113960
111800,113961
111721,113903
111787,113944
111808,113997
111813,113947
111799,113952
111752,113899
111813,113966
111864,113990
111939,114030
111898,114007
111892,113965
111967,114025
112080,114132
112100,114100
112101,114079
112052,114064
112116,114128
112167,114137
112193,114124
112148,114098
112058,114072
112141,114088
112188,114141
112134,114106
112104,114078
112049,114038
112085,114091
112106,114105
112103,114096
112049,114049
112008,114008
112072,114068
112096,114123
112062,114054
112022,114044
111963,114012
112033,114067
112078,114123
112048,114058
112058,114056
111972,114002
112053,114078
112140,114104
112093,114086
112089,114046
112053,114055
112134,114073
112176,114131
112147,114095
112120,114072
112092,114065
112178,114136
112229,114156
112190,114162
112147,114110
112154,114070
112243,114144
112296,114183
112258,114135
112234,114116
112206,114140
112272,114159
112358,114178
112296,114199
112290,114146
112259,114145
112367,114207
112421,114255
112370,114239
112352,114180
112397,114202
112466,114250
112547,114288
112507,114261
112486,114244
112513,114302
112630,114338
112649,114359
112651,114362
112584,114288
112640,114325
112710,114384
112736,114353
112692,114375
112662,114319
112677,114339
112728,114371
112748,114399
112691,114357
112642,114328
112645,114340
112707,114384
112686,114357
112714,114358
112614,114303
112654,114324
112740,114381
112743,114393
112725,114382
112669,114311
112735,114366
112807,114421
112834,114446
112851,114414
112791,114390
112829,114405
112925,114496
112919,114466
112945,114465
112901,114435
112927,114486
113008,114511
113045,114512
113036,114536
112984,114490
113060,114536
113136,114571
113176,114601
113163,114584
113127,114510
113237,114609
113294,114659
113276,114625
113292,114592
113238,114596
113297,114608
113329,114686
113326,114634
113239,114620
113194,114543
113289,114636
113313,114642
113314,114596
113240,114622
113182,114543
113245,114617
113323,114656
113285,114614
113264,114614
113201,114611
113284,114654
113355,114652
113358,114655
113327,114614
113323,114620
113384,114679
113427,114720
113409,114666
113381,114656
113346,114631
113451,114701
113468,114730
113462,114677
113401,114674
113363,114662
113446,114690
113492,114736
113495,114704
113421,114676
113422,114647
113476,114708
113552,114713
113529,114729
113446,114693
113428,114707
113538,114719
113588,114779
113574,114752
113523,114719
113547,114719
113646,114800
113662,114813
113681,114780
113626,114768
113667,114779
113731,114810
113765,114848
113750,114831
113690,114799
113746,114804
113768,114864
113812,114875
113781,114841
113709,114811
113752,114834
113816,114865
113778,114839
113752,114804
113635,114733
113541,114715
113527,114720
113363,114620
113199,114540
112953,114385
112753,114314
112658,114262
112480,114174
112311,114078
112098,113984
112031,113935
111958,113949
111862,113870
111750,113812
111606,113709
111573,113724
111563,113715
111507,113697
111399,113678
111281,113595
111310,113600
111340,113672
111330,113625
111309,113595
111227,113549
111265,113580
111355,113608
111329,113637
111324,113613
111246,113572
111344,113617
111422,113684
111411,113673
111382,113645
111360,113633
111438,113676
111466,113718
111508,113691
111459,113694
111399,113662
111481,113693
111518,113757
111507,113729
111514,113711
111425,113693
111476,113672
111573,113752
111504,113723
111463,113693
111418,113640
111469,113693
111491,113708
111480,113670
111415,113659
111333,113609
111372,113652
111438,113685
111380,113653
111330,113578
111301,113589
111338,113638
111341,113642
111381,113650
111328,113596
111328,113601
111408,113672
111464,113668
111431,113678
111391,113668
111405,113641
111526,113717
111563,113713
111530,113707
111497,113671
111490,113680
111563,113687
111574,113729
111579,113709
111510,113675
111482,113658
111538,113715
111550,113699
111532,113690
111485,113663
111483,113646
111523,113688
111554,113680
111490,113672
111429,113630
111438,113614
111510,113663
111509,113699
111493,113637
111406,113611
111421,113607
111515,113675
111494,113679
111466,113663
111437,113628
111420,113626
111514,113660
111515,113651
111481,113670
111435,113615
111481,113661
111523,113643
111567,113716
111523,113678
111514,113644
111532,113676
111621,113756
111655,113734
111629,113706
111604,113708
111624,113713
111696,113771
111748,113799
111703,113733
111698,113755
111702,113742
111784,113806
111817,113796
111760,113793
111692,113747
111728,113757
111819,113855
111817,113801
111819,113796
111717,113750
111786,113776
111863,113846
111826,113801
111842,113822
111774,113761
111850,113797
111912,113846
111925,113876
111906,113848
111850,113824
111942,113869
112034,113911
112008,113927
111997,113884
111996,113873
112008,113893
112096,113944
112089,113952
112071,113912
112009,113915
112097,113923
112174,113988
112142,113955
112146,113935
112066,113926
112173,113967
112221,114005
112182,113973
112173,113937
112147,113961
112217,113987
112250,114014
112234,113993
112207,113981
112201,113937
112278,114013
112292,114043
112302,114011
112299,114015
112273,113970
112357,114048
112405,114089
112351,114049
112368,114010
112339,114047
112422,114070
112483,114114
112471,114097
112424,114077
112430,114090
112509,114105
112569,114167
112561,114134
112509,114095
112483,114100
112595,114157
112660,114223
112636,114167
112600,114157
112611,114160
112704,114191
112767,114277
112746,114227
112712,114207
112741,114201
112807,114281
112847,114290
112856,114260
112825,114261
112845,114266
112915,114326
112964,114326
112972,114325
112892,114294
112963,114307
113048,114362
113060,114383
113061,114387
113017,114346
113072,114388
113150,114418
113177,114442
113187,114437
113163,114409
113187,114429
113323,114476
113347,114535
113326,114516
113304,114479
113398,114527
113482,114577
113556,114602
113540,114621
113507,114587
113655,114656
113727,114715
113818,114719
113844,114751
113830,114715
113932,114757
114026,114842
114080,114863
114043,114837
113996,114786
114087,114892
114150,114885
114126,114889
114083,114877
113947,114793
113985,114812
113961,114831
113878,114729
113721,114665
113503,114535
113362,114499
113205,114392
112973,114309
112702,114128
112445,113997
112310,113928
112189,113915
111981,113777
111859,113717
111657,113603
111670,113642
111645,113622
111497,113555
111455,113516
111312,113485
111349,113478
111366,113492
111325,113475
111245,113461
111191,113393
111260,113476
111295,113480
111278,113472
111277,113434
111236,113461
111307,113485
111387,113538
111375,113531
111358,113505
111365,113495
111497,113591
111528,113617
111571,113602
111524,113609
111551,113569
111626,113666
111733,113665
111655,113693
111638,113627
111653,113628
111749,113717
111755,113715
111737,113692
111685,113654
111675,113658
111746,113697
111753,113682
111724,113648
111670,113628
111617,113639
111735,113667
111739,113693
111689,113681
111644,113616
111648,113619
111708,113717
111730,113652
111740,113710
111716,113677
111732,113692
111826,113725
111887,113737
111856,113756
111838,113709
111863,113732
111949,113798
112031,113804
111964,113807
111963,113777
111973,113806
112022,113824
112063,113842
111999,113798
111949,113767
111971,113798
112036,113835
112006,113801
111981,113796
111890,113724
111940,113772
111931,113754
111947,113764
111957,113744
111841,113714
111849,113744
111954,113754
111940,113784
111906,113752
111812,113692
111902,113757
111930,113787
111931,113735
111967,113789
111912,113738
111957,113772
112074,113837
112067,113820
112070,113792
112068,113807
112065,113838
112164,113872
112188,113874
112165,113868
112155,113815
112258,113899
112297,113935
112255,113914
112274,113923
112227,113865
112309,113922
112365,113979
112344,113958
112378,113947
112311,113921
112394,113980
112491,114035
112496,114015
112494,113988
112429,113970
112547,114039
112607,114060
112586,114068
112578,114054
112527,114023
112640,114099
112706,114123
112672,114117
112655,114089
112644,114077
112694,114130
112796,114170
112789,114188
112783,114158
112746,114132
112864,114161
112921,114215
112946,114201
112918,114214
112876,114198
113015,114258
113073,114291
113083,114292
113021,114248
113037,114253
113083,114334
113116,114308
113133,114329
113080,114298
113075,114267
113156,114324
113165,114345
113101,114283
113070,114281
113002,114270
113056,114273
113057,114273
112999,114251
112913,114196
112891,114163
112952,114215
112915,114224
112860,114174
112835,114150
112812,114140
112890,114190
112918,114203
112863,114209
112816,114152
112818,114181
112928,114230
112922,114217
112929,114188
112913,114181
112913,114220
113033,114266
113056,114278
113037,114238
113015,114203
113058,114269
113120,114340
113148,114297
113175,114337
113133,114263
113202,114350
113245,114380
113290,114370
113294,114368
113233,114315
113316,114362
113401,114447
113418,114436
113435,114443
113379,114402
113472,114444
113545,114528
113604,114519
113583,114510
113584,114508
113702,114557
113805,114620
113872,114648
113907,114670
113925,114657
114044,114750
114175,114786
114231,114842
114254,114857
114248,114822
114367,114902
114453,114938
114455,114954
114468,114924
114456,114910
114531,114987
114584,114987
114569,114970
114525,114967
114461,114897
114416,114900
114347,114894
114163,114773
113957,114633
113612,114484
113454,114404
113271,114317
113027,114178
112758,114053
112488,113899
112384,113855
112253,113819
112080,113698
111961,113652
111851,113573
111828,113601
111810,113604
111776,113584
111685,113487
111628,113486
111692,113531
111721,113562
111697,113553
111652,113519
111656,113532
111722,113586
111809,113602
111785,113602
111783,113590
111773,113595
111904,113648
111986,113678
112000,113705
111965,113657
111964,113691
112098,113769
112143,113765
112117,113755
112119,113745
112113,113756
112238,113843
112247,113836
112251,113829
112235,113813
112230,113784
112290,113849
112356,113881
112305,113871
112282,113817
112276,113825
112390,113885
112356,113885
112338,113843
112323,113833
112302,113836
112347,113898
112422,113907
112398,113889
112315,113831
112345,113865
112468,113941
112459,113920
112489,113935
112452,113941
112494,113948
112607,114001
112644,114002
112641,114010
112607,113990
112648,114017
112695,114045
112716,114070
112687,114044
112638,113968
112674,114013
112728,114077
112673,114022
112668,113993
112581,113975
112594,113991
112668,114036
112640,114013
112588,113964
112525,113928
112526,113924
112568,113995
112507,113903
112482,113913
112356,113819
112387,113874
112423,113903
112403,113870
112338,113862
112282,113801
112284,113854
112341,113868
112299,113843
112321,113830
112258,113795
112318,113877
112355,113905
112384,113881
112364,113878
112363,113869
112421,113904
112546,113985
112509,113978
112545,113953
112495,113965
112600,114038
112728,114083
112701,114045
112714,114060
112657,114074
112765,114122
112829,114144
112830,114143
112791,114134
112747,114074
112847,114160
112860,114157
112828,114177
112803,114126
112723,114113
112835,114140
112871,114180
112837,114170
112820,114128
112767,114119
112874,114152
112900,114214
112882,114187
112850,114172
112860,114141
112953,114216
112983,114202
112944,114245
112896,114171
112903,114181
112984,114226
113018,114246
112993,114230
112939,114217
112876,114187
112983,114246
112998,114261
112993,114257
112935,114212
112939,114236
113004,114244
113067,114294
113071,114240
113015,114228
113005,114205
113137,114305
113112,114334
113099,114281
113092,114253
113102,114266
113205,114332
113216,114351
113248,114322
113178,114290
113225,114320
113327,114389
113363,114380
113313,114395
113300,114322
113339,114405
113445,114463
113515,114477
113484,114451
113430,114406
113524,114480
113613,114530
113597,114507
113616,114538
113557,114484
113638,114516
113735,114594
113703,114576
113702,114590
113660,114506
113752,114561
113810,114631
113800,114584
113826,114592
113749,114548
113830,114640
113930,114662
113940,114679
113921,114640
113922,114654
113995,114717
114141,114780
114144,114732
114198,114773
114166,114782
114282,114824
114378,114916
114429,114855
114489,114895
114424,114908
114554,114936
114601,115000
114676,115030
114622,115005
114617,114981
114659,115057
114765,115083
114749,115075
114760,115094
114772,115066
114886,115159
114960,115193
114940,115181
114973,115138
114947,115163
115072,115221
115177,115275
115149,115247
115177,115251
115176,115244
115255,115316
115285,115324
115333,115362
115257,115330
115216,115278
115276,115318
115264,115322
115128,115252
114916,115136
114707,114980
114531,114950
114300,114863
114018,114638
113671,114486
113416,114327
113229,114294
113048,114178
112869,114089
112644,113971
112451,113858
112390,113832
112366,113835
112243,113782
112139,113738
112077,113681
112135,113728
112141,113759
112074,113668
112055,113689
112022,113655
112120,113729
112141,113757
112160,113780
112100,113712
112127,113737
112231,113790
112260,113817
112264,113835
112234,113761
112308,113820
112366,113865
112438,113906
112427,113884
112412,113836
112415,113875
112538,113964
112579,113990
112551,113932
112496,113903
112543,113940
112584,113986
112606,113973
112587,113970
112439,113906
112489,113926
112518,113985
112492,113910
112448,113902
112316,113840
112343,113846
112326,113864
112348,113853
112238,113845
112177,113733
112211,113795
112247,113827
112258,113820
112230,113789
112177,113779
112213,113784
112318,113868
112330,113819
112319,113871
112273,113808
112363,113848
112421,113930
112420,113898
112438,113882
112346,113860
112361,113903
112434,113906
112411,113906
112372,113874
112241,113810
112314,113827
112365,113885
112321,113883
112277,113802
112188,113785
112250,113823
112255,113851
112213,113832
112197,113772
112077,113723
112140,113780
112208,113818
112161,113793
112141,113751
112060,113711
112170,113784
112198,113793
112138,113774
112132,113764
112061,113716
112133,113799
112203,113791
112182,113793
112126,113757
112098,113761
112203,113802
112277,113867
112210,113820
112193,113790
112169,113790
112249,113847
112308,113847
112271,113845
112260,113821
112250,113795
112306,113846
112369,113911
112334,113893
112302,113813
112289,113841
112349,113878
112407,113909
112378,113905
112351,113852
112342,113874
112381,113894
112447,113966
112427,113921
112363,113881
112364,113868
112470,113945
112492,113979
112458,113957
112462,113926
112433,113916
112542,113980
112531,114018
112518,113948
112487,113921
112489,113952
112544,113956
112607,113992
112582,113991
112495,113910
112542,113962
112592,114012
112643,114022
112564,114002
112535,113951
112545,113982
112608,113992
112652,114018
112602,114013
112552,113934
112575,113975
112604,113995
112620,114034
112605,113997
112561,113929
112617,113975
112652,114025
112656,114016
112650,114020
112582,113974
112626,113986
112682,114057
112726,114041
112678,114067
112632,113970
112701,114044
112778,114091
112806,114075
112804,114059
112749,114096
112848,114101
112941,114177
112952,114180
112994,114145
112959,114144
113027,114185
113126,114262
113150,114256
113157,114256
113112,114214
113186,114277
113273,114327
113274,114325
113244,114274
113204,114264
113272,114315
113322,114348
113340,114335
113300,114319
113270,114295
113367,114339
113418,114376
113412,114376
113424,114376
113401,114332
113504,114396
113597,114445
113614,114454
113617,114467
113626,114465
113749,114539
113867,114604
113891,114605
113928,114580
113953,114610
114030,114691
114115,114698
114170,114717
114150,114696
114183,114710
114272,114789
114353,114849
114355,114847
114338,114779
114353,114832
114450,114843
114492,114897
114507,114877
114463,114876
114462,114867
114550,114924
114617,114980
114596,114944
114598,114928
114604,114918
114722,114997
114804,115027
114794,115041
114748,114973
114784,115007
114895,115058
114947,115115
114921,115074
114889,115047
114887,115027
114933,115083
114935,115104
114851,115037
114669,114945
114528,114876
114356,114818
114192,114700
113869,114548
113534,114341
113326,114232
113161,114154
112914,114047
112676,113916
112416,113771
112290,113746
112243,113718
112158,113686
112035,113596
111922,113540
111889,113544
111900,113551
111911,113552
111841,113538
111747,113440
111741,113483
111797,113502
111796,113515
111785,113485
111744,113448
111772,113497
111884,113563
111901,113561
111888,113546
111873,113541
111939,113571
112022,113641
112098,113657
112116,113662
112053,113600
112129,113685
112258,113756
112297,113775
112277,113743
112249,113716
112346,113783
112425,113837
112443,113818
112445,113829
112338,113764
112425,113808
112468,113844
112451,113826
112427,113779
112318,113766
112362,113768
112386,113819
112365,113768
112306,113766
112217,113676
112263,113737
112288,113761
112283,113743
112258,113722
112175,113700
112236,113731
112338,113753
112283,113765
112291,113738
112278,113716
112354,113763
112473,113822
112441,113831
112456,113813
112441,113817
112529,113873
112564,113892
112568,113880
112523,113861
112473,113791
112531,113862
112538,113893
112505,113838
112439,113788
112399,113803
112441,113799
112489,113837
112427,113814
112388,113772
112316,113773
112394,113795
112483,113838
112393,113815
112392,113757
112340,113763
112464,113830
112486,113828
112502,113859
112445,113816
112497,113827
112564,113873
112628,113909
112666,113924
112635,113919
112634,113934
112758,113969
112856,114023
112859,114026
112868,113996
112947,114053
113066,114102
113152,114156
113141,114154
113162,114117
113208,114190
113332,114251
113400,114261
113420,114283
113432,114260
113426,114322
113575,114360
113656,114401
113668,114423
113653,114395
113735,114445
113826,114503
113901,114527
113914,114525
113916,114492
114011,114577
114119,114638
114141,114652
114197,114654
114209,114641
114258,114685
114360,114742
114442,114773
114455,114743
114474,114762
114495,114801
114600,114867
114651,114850
114651,114860
114584,114836
114684,114878
114718,114903
114759,114936
114694,114907
114693,114860
114711,114901
114787,114936
114768,114931
114734,114909
114649,114871
114676,114893
114743,114923
114685,114918
114625,114865
114560,114803
114575,114846
114615,114867
114601,114851
114531,114828
114462,114786
114487,114848
114566,114872
114583,114801
114502,114833
114450,114737
114540,114813
114598,114853
114557,114833
114550,114834
114443,114766
114551,114827
114584,114838
114553,114831
114512,114792
114456,114756
114481,114824
114545,114833
114523,114815
114493,114759
114410,114748
114494,114773
114558,114829
114496,114823
114505,114782
114430,114768
114520,114801
114620,114808
114570,114838
114567,114770
114538,114802
114638,114872
114683,114886
114668,114861
114654,114828
114630,114865
114748,114903
114801,114931
114799,114925
114750,114903
114776,114908
114858,114969
114932,115001
114903,114996
114858,114958
114901,114956
115008,115044
115064,115048
115081,115053
115040,115034
115123,115054
115188,115126
115283,115127
115344,115185
115341,115135
115389,115181
115509,115263
115556,115278
115569,115265
115548,115255
115591,115277
115693,115338
115727,115324
115750,115359
115677,115299
115710,115357
115784,115394
115771,115365
115767,115338
115690,115290
115636,115315
115628,115292
115545,115269
115336,115142
115038,114982
114764,114884
114497,114743
114220,114604
113910,114400
113569,114229
113364,114130
113209,114046
112967,113965
112757,113826
112529,113685
112430,113691
112327,113648
112250,113583
112126,113549
112001,113437
112020,113502
112058,113502
111978,113464
111944,113479
111853,113404
111925,113444
111974,113451
111971,113474
111980,113465
111905,113443
111945,113477
112066,113551
112076,113558
112053,113530
112036,113543
112125,113566
112236,113647
112254,113637
112261,113649
112265,113632
112392,113689
112466,113737
112476,113772
112493,113757
112485,113725
112596,113768
112663,113862
112655,113819
112670,113856
112614,113774
112680,113869
112778,113872
112711,113866
112670,113851
112581,113769
112695,113823
112691,113852
112674,113811
112616,113773
112575,113770
112641,113822
112699,113850
112681,113802
112660,113816
112674,113829
112766,113855
112859,113952
112908,113936
112861,113935
112930,113922
113003,114024
113095,114041
113141,114037
113048,113991
113048,113984
113107,114041
113141,114076
113076,114025
113003,113976
112966,113954
113041,113984
113006,114022
112949,113961
112898,113929
112840,113882
112945,113972
112965,113954
112904,113907
112877,113899
112807,113911
112892,113916
112921,113932
112873,113918
112842,113863
112856,113897
112912,113905
112960,113985
112908,113931
112900,113889
112935,113942
113005,114015
113080,114013
113096,114043
113061,113978
113164,114065
113287,114100
113380,114153
113395,114157
113414,114127
113509,114229
113583,114282
113667,114332
113707,114314
113700,114332
113772,114340
113922,114454
113955,114469
113989,114448
113959,114405
114038,114478
114100,114517
114159,114548
114156,114532
114137,114516
114209,114577
114288,114629
114349,114644
114354,114649
114315,114624
114385,114668
114474,114697
114532,114726
114490,114757
114485,114685
114574,114730
114658,114794
114657,114788
114659,114753
114605,114777
114662,114786
114757,114829
114775,114843
114715,114821
114677,114773
114727,114836
114820,114892
114780,114868
114794,114834
114767,114833
114761,114864
114881,114908
114848,114896
114857,114874
114795,114827
114861,114885
114932,114942
114949,114900
114906,114889
114864,114888
114958,114914
115001,114959
114982,114928
114961,114904
114921,114898
115026,114956
115084,114983
115069,114979
115052,114942
115023,114943
115129,115001
115198,115036
115161,115019
115169,114997
115168,114986
115253,115035
115311,115091
115307,115043
115293,115062
115208,115017
115353,115096
115398,115121
115371,115113
115366,115076
115364,115073
115477,115152
115463,115155
115448,115125
115454,115113
115457,115122
115512,115201
115581,115187
115575,115185
115508,115149
115552,115164
115621,115237
115710,115268
115689,115239
115646,115208
115709,115244
115765,115318
115801,115308
115794,115290
115755,115248
115754,115240
115866,115318
115841,115345
115883,115317
115780,115279
115832,115318
115897,115345
115926,115375
115906,115338
115859,115299
115900,115346
116006,115395
116025,115390
116007,115389
115949,115363
115996,115388
116093,115437
116079,115429
116060,115419
116018,115362
116034,115437
116100,115432
116092,115447
116031,115404
115933,115314
115897,115336
115829,115339
115647,115173
115384,115079
115002,114886
114699,114715
114461,114596
114137,114447
113883,114296
113559,114159
113356,114038
113215,113960
112997,113885
112801,113777
112583,113655
112490,113618
112468,113615
112342,113552
112281,113505
112169,113449
112194,113486
112239,113544
112232,113480
112176,113489
112098,113438
112186,113509
112236,113531
112227,113515
112232,113531
112242,113527
112314,113554
112407,113620
112411,113635
112433,113626
112421,113606
112542,113697
112615,113724
112640,113735
112625,113713
112654,113744
112739,113782
112818,113821
112769,113815
112776,113787
112726,113743
112807,113808
112855,113855
112827,113822
112745,113786
112687,113734
112752,113792
112699,113772
112670,113710
112575,113659
112482,113624
112529,113663
112531,113662
112440,113634
112350,113560
112362,113590
112362,113588
112409,113646
112419,113582
112353,113573
112307,113554
112420,113623
112479,113671
112458,113622
112453,113604
112461,113629
112522,113712
112548,113690
112541,113685
112483,113645
112480,113635
112543,113692
112550,113677
112515,113680
112422,113606
112435,113635
112521,113677
112520,113650
112498,113636
112413,113604
112423,113604
112487,113657
112505,113659
112450,113606
112391,113613
112450,113616
112469,113656
112505,113641
112462,113665
112394,113595
112427,113626
112503,113660
112551,113674
112496,113656
112485,113628
112533,113654
112654,113748
112612,113733
112627,113712
112620,113694
112695,113735
112756,113806
112773,113823
112785,113790
112789,113773
112865,113815
112991,113887
112945,113923
112968,113896
112947,113859
113075,113943
113144,113967
113153,113984
113138,114010
113073,113950
113188,114013
113207,114031
113194,114027
113166,113974
113100,113944
113152,114000
113169,114020
113170,113963
113158,113970
113076,113934
113140,113972
113159,114004
113164,113992
113178,113987
113099,113929
113212,113989
113274,114016
113288,114046
113240,113981
113243,114012
113290,114026
113363,114098
113305,114066
113314,114044
113211,114003
113303,114033
113324,114057
113267,114063
113222,114012
113159,113966
113219,114030
113249,114011
113222,113980
113150,113974
113120,113944
113188,114025
113199,114018
113176,113990
113112,113978
113099,113945
113170,114009
113198,114013
113202,113989
113095,113962
113084,113956
113131,113993
113205,114017
113147,113986
113114,113927
113062,113920
113133,114009
113143,114007
113131,113982
113101,113936
113095,113961
113163,113979
113204,114035
113200,113980
113167,113971
113147,113992
113257,114045
113303,114060
113250,114053
113227,114007
113278,114034
113336,114092
113388,114112
113320,114075
113292,114036
113334,114062
113396,114124
113411,114115
113400,114101
113303,114051
113352,114080
113456,114138
113440,114130
113425,114124
113339,114064
113379,114078
113441,114142
113502,114161
113484,114148
113422,114129
113468,114104
113599,114203
113627,114224
113603,114198
113591,114187
113645,114240
113776,114264
113794,114320
113823,114301
113782,114280
113815,114308
113950,114366
113966,114365
113933,114386
113910,114325
113942,114379
114071,114445
114039,114418
114086,114405
113997,114400
114057,114402
114181,114491
114132,114486
114179,114431
114110,114440
114150,114482
114260,114530
114234,114516
114232,114469
114190,114448
114214,114521
114289,114517
114261,114508
114217,114481
114071,114392
114042,114407
113982,114350
113787,114253
113569,114140
113280,113974
113155,113908
112987,113837
112713,113687
112528,113552
112294,113454
112208,113436
112096,113425
111987,113325
111862,113296
111738,113202
111699,113223
111694,113213
111568,113134
111517,113108
111401,113079
111444,113097
111493,113109
111400,113076
111357,113046
111293,113039
111364,113037
111435,113116
111385,113088
111377,113044
111339,113046
111463,113128
111512,113131
111505,113128
111450,113092
111458,113100
111555,113186
111597,113169
111627,113169
111555,113176
111542,113189
111656,113238
111717,113247
111726,113234
111661,113188
111665,113217
111755,113258
111796,113273
111780,113270
111701,113193
111712,113209
111746,113255
111755,113275
111714,113215
111634,113174
111602,113167
111646,113215
111674,113195
111612,113190
111564,113108
111582,113148
111624,113187
111639,113212
111615,113168
111588,113154
111621,113174
111687,113230
111734,113246
111717,113242
111675,113175
111711,113228
111774,113266
111823,113281
111818,113292
111748,113203
111776,113278
111807,113305
111856,113326
111796,113288
111731,113194
111795,113236
111821,113317
111840,113285
111805,113258
111711,113180
111785,113219
111831,113286
111800,113260
111744,113241
111659,113174
111716,113221
111805,113269
111796,113220
111768,113257
111674,113143
111757,113232
111836,113275
111812,113297
111784,113230
111726,113213
111802,113256
111825,113290
111867,113303
111873,113273
111771,113263
111837,113290
111932,113317
111921,113300
111927,113309
111835,113245
111916,113321
111997,113371
111978,113358
111972,113334
111955,113318
112058,113407
112113,113392
112121,113437
112125,113412
112118,113411
112206,113497
112295,113503
112334,113535
112299,113510
112258,113481
112377,113553
112420,113609
112430,113575
112405,113557
112397,113525
112491,113597
112574,113688
112574,113650
112570,113631
112564,113633
112669,113712
112753,113744
112734,113730
112743,113698
112714,113688
112819,113770
112930,113808
112851,113778
112855,113767
112878,113759
112936,113813
112987,113844
112983,113833
112894,113800
112928,113820
112963,113845
113024,113878
112961,113843
112934,113821
112927,113805
112975,113860
113037,113850
113023,113857
112945,113804
112991,113834
113030,113865
113121,113898
113087,113886
113068,113859
113059,113872
113136,113919
113228,113978
113219,113926
113212,113899
113219,113955
113343,113984
113408,114037
113409,114033
113401,114017
113421,114008
113531,114122
113556,114111
113553,114101
113544,114060
113570,114133
113676,114160
113677,114157
113665,114166
113638,114124
113709,114162
113815,114244
113837,114229
113846,114265
113809,114229
113933,114265
114040,114354
114112,114352
114116,114353
114076,114346
114189,114392
114286,114456
114323,114496
114368,114493
114323,114433
114450,114533
114521,114608
114561,114607
114574,114598
114577,114554
114611,114626
114733,114700
114758,114650
114807,114694
114683,114652
114834,114695
114918,114775
114907,114745
114907,114728
114858,114715
114966,114785
115010,114844
114998,114768
115002,114768
114941,114764
115028,114819
115145,114858
115081,114853
115078,114835
115063,114803
115121,114869
115183,114876
115164,114892
115158,114859
115142,114830
115217,114902
115283,114915
115319,114945
115265,114913
115253,114889
115356,114929
115431,115010
115407,114962
115390,114970
115393,114939
115488,115026
115520,115036
115548,115035
115499,115016
115454,114970
115494,115013
115467,115021
115346,114942
115189,114851
114950,114717
114765,114656
114527,114547
114132,114319
113821,114139
113522,113961
113388,113958
113166,113842
112950,113696
112683,113583
112487,113498
112414,113483
112298,113397
112208,113353
112039,113263
111976,113229
112019,113269
111990,113283
112002,113228
111901,113218
111901,113213
111972,113260
112002,113262
111985,113291
111936,113225
112017,113281
112097,113335
112159,113365
112172,113366
112136,113336
112168,113355
112288,113440
112379,113473
112362,113477
112350,113441
112422,113513
112510,113520
112590,113600
112570,113576
112541,113519
112560,113590
112637,113590
112676,113619
112635,113585
112520,113511
112560,113525
112579,113593
112529,113569
112501,113526
112392,113430
112380,113461
112430,113492
112392,113443
112303,113457
112255,113362
112273,113408
112352,113451
112317,113431
112343,113463
112246,113391
112346,113452
112445,113514
112415,113512
112485,113502
112474,113508
112550,113568
112652,113623
112673,113624
112650,113614
112648,113562
112685,113633
112769,113669
112739,113678
112714,113613
112636,113558
112680,113628
112723,113657
112693,113589
112607,113589
112582,113554
112647,113607
112661,113623
112624,113575
112575,113585
112505,113497
112574,113546
112606,113582
112616,113571
112530,113523
112491,113480
112573,113590
112623,113585
112575,113598
112557,113528
112550,113539
112573,113619
112665,113605
112639,113606
112592,113574
112608,113564
112634,113608
112747,113657
112684,113626
112671,113601
112670,113585
112756,113677
112833,113697
112821,113674
112816,113697
112819,113652
112889,113761
112941,113769
112959,113764
112947,113733
112993,113776
113042,113832
113137,113842
113132,113867
113097,113796
113136,113826
113226,113932
113293,113931
113289,113919
113280,113906
113300,113926
113412,113994
113455,114017
113479,114011
113402,113967
113475,114040
113589,114063
113628,114081
113614,114061
113588,114063
113628,114076
113741,114154
113796,114190
113745,114134
113711,114134
113768,114150
113878,114215
113899,114221
113860,114178
113834,114179
113837,114203
113912,114258
113939,114246
113930,114226
113877,114198
113908,114248
113982,114246
114033,114276
113979,114275
113910,114226
113958,114250
113988,114261
114051,114293
113989,114269
113940,114212
113956,114250
114030,114311
114058,114317
114035,114273
113948,114237
114019,114279
114101,114308
114118,114359
114075,114290
114017,114252
114092,114303
114179,114346
114181,114343
114104,114287
114075,114285
114148,114307
114159,114359
114167,114323
114150,114301
114058,114276
114108,114313
114194,114366
114196,114339
114154,114332
114097,114308
114160,114328
114258,114405
114237,114387
114210,114358
114195,114326
114316,114409
114363,114427
114418,114443
114406,114421
114358,114409
114466,114466
114580,114536
114553,114546
114579,114500
114534,114527
114643,114560
114689,114609
114724,114573
114722,114606
114696,114572
114810,114670
114899,114705
114904,114712
114927,114665
114934,114703
115060,114740
115133,114824
115148,114802
115154,114800
115150,114793
115219,114829
115303,114873
115338,114909
115272,114808
115236,114829
115335,114880
115370,114920
115293,114903
115246,114856
115152,114798
115126,114763
115037,114757
114776,114605
114517,114459
114258,114317
114024,114243
113828,114102
113604,113985
113347,113795
113127,113767
113040,113708
112859,113589
112675,113522
112452,113366
112343,113338
112330,113382
112294,113341
112164,113263
112035,113200
112017,113186
112098,113261
112085,113220
112046,113233
111993,113167
112032,113194
112104,113291
112131,113258
112151,113290
112119,113232
112193,113303
112273,113368
112359,113379
112353,113370
112367,113402
112456,113468
112572,113504
112632,113549
112693,113559
112654,113507
112765,113602
112859,113677
112908,113678
112897,113679
112844,113615
112932,113689
112950,113717
112927,113692
112894,113656
112757,113564
112803,113601
112797,113643
112733,113565
112668,113552
112521,113466
112589,113516
112594,113529
112555,113489
112509,113477
112421,113436
112510,113472
112535,113529
112549,113514
112611,113503
112530,113486
112626,113544
112743,113635
112752,113633
112747,113606
112758,113600
112795,113654
112889,113678
112860,113650
112847,113626
112752,113584
112812,113608
112872,113677
112795,113608
112762,113573
112639,113537
112698,113577
112752,113571
112716,113561
112635,113518
112559,113486
112617,113515
112619,113547
112585,113491
112585,113468
112552,113470
112577,113517
112628,113539
112605,113515
112561,113507
112538,113470
112612,113538
112686,113582
112627,113529
112623,113521
112589,113510
112696,113578
112735,113606
112780,113591
112726,113584
112696,113567
112792,113638
112905,113670
112871,113654
112848,113625
112831,113653
112956,113710
113046,113735
113051,113739
113014,113740
113028,113750
113157,113826
113231,113877
113244,113851
113231,113821
113255,113875
113370,113911
113439,113940
113470,113960
113430,113923
113477,113944
113589,114031
113658,114049
113604,114030
113602,113991
113643,114023
113668,114069
113706,114083
113698,114088
113643,114032
113671,114056
113781,114104
113773,114099
113769,114103
113733,114087
113757,114120
113867,114157
113885,114199
113901,114179
113841,114112
113926,114192
114009,114207
114046,114250
114029,114231
113979,114188
114016,114250
114103,114243
114155,114295
114105,114289
114056,114217
114132,114292
114191,114302
114174,114345
114183,114299
114109,114231
114188,114322
114262,114336
114259,114339
114252,114339
114151,114274
114219,114328
114274,114364
114267,114369
114282,114362
114200,114314
114304,114355
114351,114417
114369,114405
114333,114367
114297,114328
114401,114373
114439,114434
114463,114423
114464,114425
114409,114375
114514,114443
114587,114512
114596,114476
114573,114483
114527,114451
114642,114507
114706,114583
114739,114548
114759,114534
114719,114511
114847,114641
114936,114680
114970,114672
115003,114664
114974,114676
115076,114708
115187,114789
115194,114761
115149,114738
115154,114706
115267,114827
115291,114843
115306,114831
115273,114793
115203,114785
115310,114839
115378,114850
115338,114862
115279,114792
115277,114799
115377,114853
115417,114889
115405,114878
115345,114866
115355,114827
115448,114912
115498,114928
115500,114886
115499,114892
115464,114904
115577,114942
115630,114977
115621,114942
115579,114908
115575,114934
115649,115008
115664,114998
115671,114993
115592,114928
115565,114924
115621,114957
115556,114946
115456,114861
115199,114768
115014,114638
114817,114556
114536,114417
114172,114241
113818,114025
113583,113931
113391,113850
113207,113742
112908,113601
112628,113429
112491,113382
112337,113340
112200,113279
112093,113181
111908,113112
111841,113054
111870,113116
111756,113045
111715,113038
111571,112948
111568,112967
111608,112996
111583,112953
111571,112947
111508,112900
111550,112960
111609,113040
111581,112972
111612,112988
111517,112956
111617,112995
111725,113051
111713,113073
111712,113032
111654,113003
111703,113069
111754,113090
111795,113105
111776,113086
111664,113043
111754,113066
111806,113107
111770,113094
111732,113061
111612,112977
111662,113054
111677,113054
111704,113052
111618,112999
111569,112962
111571,112996
111648,113043
111587,112975
111568,112969
111483,112948
111550,112983
111608,112970
111576,112979
111536,112972
111490,112925
111561,112993
111618,113037
111604,112989
111578,112991
111535,112962
111590,113034
111671,113075
111659,113018
111618,113016
111559,112972
111658,113054
111675,113058
111658,113021
111595,113005
111576,112948
111619,113023
111669,113040
111638,113016
111600,112986
111579,112967
111653,113026
111680,113063
111651,112985
111587,112996
111544,112958
111626,113022
111652,113022
111642,113020
111531,112951
111514,112954
111559,112982
111601,113012
111587,112964
111503,112946
111462,112933
111538,112981
111570,112996
111527,112953
111519,112914
111512,112929
111583,113021
111654,113034
111593,112974
111595,112975
111622,113012
111729,113055
111805,113080
111812,113085
111772,113070
111831,113110
111960,113175
112022,113188
112083,113219
112026,113188
112110,113227
112219,113336
112277,113323
112317,113343
112257,113305
112306,113344
112429,113403
112462,113421
112482,113439
112484,113403
112507,113419
112641,113510
112643,113525
112636,113485
112572,113466
112607,113455
112724,113555
112731,113561
112716,113540
112646,113467
112695,113536
112799,113600
112781,113572
112811,113552
112737,113521
112836,113591
112933,113628
112936,113637
112918,113634
112879,113586
112899,113629
112997,113670
113002,113664
112933,113604
112837,113594
112896,113610
112916,113626
112855,113587
112767,113528
112721,113508
112714,113529
112722,113520
112684,113486
112617,113484
112529,113441
112559,113443
112633,113496
112591,113462
112525,113438
112461,113389
112593,113474
112614,113498
112621,113477
112586,113451
112547,113469
112687,113512
112745,113544
112767,113542
112724,113550
112724,113512
112866,113618
112943,113668
112947,113656
112937,113611
112944,113626
113043,113686
113096,113736
113153,113726
113081,113715
113078,113705
113182,113772
113207,113772
113216,113776
113154,113757
113121,113726
113280,113797
113286,113832
113265,113797
113255,113782
113236,113789
113349,113831
113411,113908
113401,113844
113352,113885
113370,113851
113473,113904
113567,113952
113547,113935
113506,113901
113501,113910
113580,113969
113661,114004
113596,113990
113544,113890
113567,113943
113586,113940
113644,113973
113604,113981
113562,113892
113572,113940
113629,113966
113678,113980
113685,114000
113633,113953
113653,113987
113753,114018
113784,114064
113804,114074
113793,114032
113823,114067
113926,114131
113999,114139
113974,114143
113912,114097
113984,114137
114075,114194
114121,114237
114087,114189
114063,114165
114106,114223
114176,114263
114217,114262
114244,114251
114148,114193
114244,114254
114333,114321
114316,114308
114323,114284
114218,114255
114251,114270
114290,114293
114163,114226
114072,114115
113785,114009
113659,113945
113454,113865
113247,113741
112955,113581
112691,113451
112510,113336
112328,113285
112105,113160
111965,113053
111778,112990
111710,112957
111655,112942
111576,112906
111456,112836
111333,112753
111334,112781
111304,112783
111283,112740
111218,112720
111119,112639
111183,112701
111228,112732
111180,112700
111179,112703
111087,112627
111187,112723
111258,112770
111224,112750
111251,112733
111205,112727
111272,112788
111367,112791
111367,112828
111342,112782
111319,112776
111421,112827
111495,112913
111509,112871
111456,112854
111417,112865
111491,112889
111553,112923
111521,112898
111466,112875
111453,112838
111524,112890
111546,112916
111495,112895
111433,112814
111397,112840
111443,112868
111488,112885
111398,112846
111343,112769
111346,112774
111374,112817
111435,112840
111384,112796
111310,112788
111286,112753
111395,112839
111394,112820
111394,112823
111383,112822
111417,112822
111503,112884
111507,112900
111567,112901
111520,112859
111518,112842
111623,112949
111643,112962
111591,112939
111587,112867
111584,112906
111671,112950
111677,112960
111638,112924
111573,112894
111591,112909
111641,112939
111651,112963
111635,112917
111563,112883
111592,112893
111636,112927
111688,112940
111654,112942
111581,112893
111653,112920
111712,112976
111755,112979
111749,112958
111660,112931
111728,112962
111799,113034
111832,113032
111822,113013
111753,112970
111802,113000
111887,113069
111867,113049
111901,113056
111779,112982
111871,113071
111966,113096
111926,113076
111963,113106
111903,113046
111961,113079
112046,113145
112061,113156
112056,113141
111994,113098
112062,113145
112154,113200
112161,113200
112136,113167
112108,113142
112208,113219
112273,113251
112250,113239
112279,113227
112222,113189
112268,113244
112371,113283
112359,113268
112334,113250
112299,113236
112394,113318
112457,113335
112420,113312
112408,113302
112383,113296
112465,113345
112551,113390
112531,113386
112534,113370
112515,113342
112615,113411
112718,113460
112676,113438
112688,113450
112701,113436
112792,113517
112881,113541
112860,113553
112881,113510
112896,113520
112983,113590
113052,113639
113025,113588
113018,113571
112967,113578
113020,113620
113076,113664
113048,113590
112974,113554
112917,113542
113034,113595
113041,113621
112964,113580
112927,113533
112906,113520
112978,113602
112990,113582
112966,113589
112909,113544
112907,113545
112992,113599
113012,113616
113006,113616
112927,113547
112925,113556
113008,113600
113079,113651
113021,113591
112997,113581
112968,113556
113023,113631
113066,113630
113067,113617
112971,113578
113028,113589
113067,113614
113137,113658
113098,113636
113049,113603
113087,113649
113191,113675
113213,113700
113201,113670
113179,113674
113208,113703
113294,113733
113348,113756
113336,113783
113295,113706
113390,113747
113454,113804
113449,113850
113446,113822
113447,113770
113469,113830
113556,113902
113597,113874
113575,113863
113567,113835
113608,113912
113752,113953
113743,113972
113765,113953
113732,113947
113831,113985
113940,114065
113981,114054
113980,114072
113981,114038
114071,114082
114140,114179
114192,114182
114215,114198
114178,114155
114280,114220
114404,114249
114410,114294
114469,114272
114415,114286
114495,114322
114610,114400
114632,114374
114652,114399
114620,114338
114762,114419
114820,114510
114826,114471
114848,114469
114789,114429
114826,114470
114884,114480
114754,114438
114585,114287
114317,114184
114127,114088
113874,113968
113581,113834
113278,113628
112910,113456
112786,113403
112585,113296
112360,113179
112104,113054
111897,112960
111872,112968
111794,112932
111701,112864
111588,112781
111482,112754
111523,112804
111552,112813
111485,112779
111434,112728
111381,112729
111477,112780
111503,112821
111488,112784
111451,112790
111483,112783
111564,112832
111657,112893
111657,112871
111632,112866
111659,112908
111783,112946
111856,112978
111874,112992
111817,112961
111835,112970
111947,113027
111976,113061
111986,113038
111938,112993
111935,113032
111994,113082
112029,113069
111960,113044
111915,113006
111881,113027
111940,113064
111984,113053
111901,113006
111816,112966
111861,112981
111883,113009
111850,113005
111848,112987
111755,112930
111788,112952
111848,112989
111833,112993
111815,112978
111772,112919
111807,112965
111872,113025
111865,112993
111884,113016
111850,112962
111832,112979
111951,113027
111917,113026
111871,113013
111816,112953
111839,112977
111881,113042
111861,112986
111809,112954
111722,112912
111746,112939
111762,112957
111735,112929
111707,112912
111600,112844
111636,112869
111712,112923
111690,112884
111616,112871
111539,112828
111607,112849
111671,112900
111622,112871
111607,112856
111494,112819
111588,112879
111660,112891
111604,112890
111598,112876
111541,112819
111603,112856
111686,112909
111700,112922
111662,112888
111590,112859
111674,112921
111753,112953
111740,112947
111732,112914
111698,112916
111776,112966
111840,113002
111837,113006
111835,112976
111793,112941
111893,113050
111992,113063
111954,113056
111928,113033
111901,113025
111974,113085
112064,113144
112074,113098
112015,113076
112007,113090
112140,113146
112179,113173
112166,113163
112152,113145
112134,113120
112227,113211
112293,113241
112297,113238
112274,113201
112274,113206
112351,113257
112440,113286
112423,113302
112401,113258
112358,113243
112457,113311
112518,113339
112449,113313
112410,113295
112417,113279
112474,113326
112532,113336
112537,113334
112474,113303
112478,113296
112584,113375
112626,113359
112556,113340
112525,113308
112529,113329
112579,113374
112654,113397
112586,113382
112527,113286
112547,113304
112598,113349
112608,113402
112594,113361
112500,113277
112552,113348
112575,113381
112646,113372
112547,113361
112543,113293
112565,113319
112665,113385
112689,113410
112670,113382
112601,113370
112660,113383
112788,113457
112799,113441
112786,113442
112766,113416
112807,113449
112866,113540
112862,113484
112911,113487
112821,113456
112869,113508
113009,113547
112984,113581
112986,113569
112929,113497
112980,113540
113102,113605
113104,113590
113124,113635
113038,113552
113130,113634
113252,113688
113222,113651
113261,113680
113181,113622
113289,113698
113428,113745
113412,113782
113427,113738
113360,113758
113480,113804
113593,113846
113597,113869
113575,113804
113544,113805
113661,113871
113774,113930
113721,113922
113757,113939
113758,113915
113866,113993
113975,114043
113974,114010
113963,114021
113963,114047
114038,114068
114173,114121
114169,114111
114185,114108
114162,114133
114248,114160
114351,114183
114342,114208
114306,114158
114244,114156
114284,114178
114309,114184
114192,114095
114012,113999
113814,113884
113698,113856
113455,113728
113200,113607
112969,113443
112712,113309
112553,113250
112352,113187
112163,113036
111947,112940
111765,112841
111710,112845
111680,112828
111553,112777
111443,112705
111358,112654
111416,112702
111414,112692
111331,112669
111257,112623
111257,112616
111316,112677
111346,112683
111323,112662
111331,112650
111327,112660
111436,112726
111497,112773
111518,112748
111520,112729
111525,112758
111672,112836
111733,112881
111721,112885
111689,112851
111765,112883
111889,112945
111912,112964
111891,112944
111849,112922
111887,112954
111964,113016
112006,113005
111982,113006
111912,112965
111951,112987
112035,113008
112019,113037
111983,112995
111890,112934
111916,112972
111967,113015
111997,113029
111957,112975
111853,112920
111901,112967
111965,113013
111988,113008
111978,113001
111928,112964
112038,113043
112144,113100
112159,113128
112206,113142
112197,113103
112257,113177
112433,113234
112465,113234
112446,113237
112388,113195
112478,113244
112506,113285
112500,113266
112452,113231
112357,113171
112384,113195
112423,113211
112366,113189
112308,113140
112198,113081
112216,113114
112239,113119
112185,113100
112129,113057
112031,112999
112076,113056
112089,113075
112013,113012
111996,113011
111903,112947
111919,112972
111991,113004
111956,112984
111870,112938
111795,112897
111862,112934
111885,112963
111895,112963
111808,112925
111800,112884
111840,112945
111913,112995
111892,112955
111888,112950
111841,112915
111905,112994
111978,113022
111930,112999
111946,112996
111938,112977
112011,113039
112065,113081
112029,113035
112004,113023
111994,113021
112071,113052
112123,113104
112106,113060
112069,113066
112060,113057
112109,113106
112184,113121
112203,113132
112156,113120
112160,113078
112255,113163
112305,113205
112304,113174
112253,113146
112287,113181
112421,113250
112447,113267
112470,113249
112476,113218
112458,113240
112555,113318
112630,113338
112623,113350
112580,113299
112621,113322
112718,113407
112774,113416
112719,113393
112691,113359
112750,113377
112762,113427
112817,113437
112813,113428
112735,113371
112747,113391
112827,113429
112850,113457
112830,113437
112725,113368
112778,113384
112857,113434
112828,113449
112799,113403
112763,113357
112774,113398
112833,113436
112848,113463
112827,113423
112739,113366
112778,113389
112844,113472
112859,113432
112798,113424
112746,113378
112796,113399
112888,113446
112839,113433
112823,113419
112733,113351
112813,113396
112824,113439
112809,113416
112795,113392
112736,113354
112746,113375
112795,113450
112811,113398
112787,113399
112665,113330
112750,113413
112809,113447
112794,113425
112779,113437
112731,113360
112817,113397
112900,113465
112871,113454
112860,113432
112847,113430
112917,113487
112976,113545
112973,113509
112971,113525
112904,113445
113036,113549
113082,113572
113060,113558
113042,113539
112954,113507
113066,113563
113125,113593
113111,113554
113055,113533
113003,113542
113149,113573
113216,113630
113170,113615
113167,113559
113149,113596
113239,113603
113287,113670
113336,113700
113296,113648
113288,113661
113361,113726
113457,113776
113466,113731
113424,113739
113424,113698
113524,113805
113623,113844
113610,113819
113588,113822
113556,113787
113684,113872
113738,113925
113750,113885
113731,113857
113703,113839
113822,113958
113878,113959
113848,113952
113790,113888
113818,113890
113825,113955
113825,113930
113773,113885
113657,113796
113539,113767
113457,113703
113313,113621
113061,113517
112778,113324
112561,113231
112393,113192
112222,113088
112015,112991
111778,112851
111711,112807
111624,112805
111524,112775
111419,112703
111251,112613
111148,112567
111165,112607
111101,112556
110990,112505
110887,112458
110857,112441
110903,112479
110876,112455
110824,112414
110683,112371
110746,112390
110801,112435
110815,112432
110742,112432
110732,112371
110775,112424
110882,112470
110895,112516
110877,112455
110852,112449
110961,112511
110962,112556
111045,112565
111001,112549
110974,112493
111036,112567
111093,112593
111098,112582
111082,112552
111044,112525
111042,112558
111111,112589
111092,112590
111023,112550
110952,112493
111047,112559
111044,112527
111005,112524
110976,112489
110901,112461
110936,112515
110981,112508
110976,112491
110871,112474
110828,112428
110925,112458
110950,112528
110935,112514
110905,112485
110872,112452
110929,112480
111063,112576
111012,112551
111008,112501
110988,112498
111068,112581
111124,112605
111104,112586
111097,112550
111057,112521
111164,112636
111200,112608
111187,112618
111137,112576
111149,112544
111212,112621
111215,112607
111222,112615
111186,112547
111168,112568
111196,112627
111300,112650
111227,112629
111205,112575
111171,112574
111245,112645
111310,112644
111276,112633
111202,112617
111210,112581
111318,112679
111346,112656
111337,112671
111263,112630
111241,112605
111329,112674
111381,112689
111373,112685
111325,112634
111308,112672
111422,112696
111499,112784
111489,112730
111475,112697
111519,112758
111673,112852
111733,112852
111750,112897
111728,112850
111802,112925
111948,113005
111970,112998
112009,113021
111970,113000
112035,113025
112140,113075
112184,113122
112183,113102
112159,113053
112208,113108
112264,113153
112349,113165
112285,113163
112235,113080
112298,113163
112359,113216
112389,113205
112375,113195
112326,113130
112377,113180
112413,113255
112467,113214
112431,113215
112392,113175
112476,113230
112500,113286
112552,113249
112497,113245
112474,113206
112528,113269
112596,113325
112617,113304
112596,113297
112540,113234
112616,113303
112719,113365
112672,113338
112700,113334
112655,113293
112712,113358
112769,113395
112802,113379
112795,113366
112721,113325
112771,113369
112844,113402
112818,113423
112806,113384
112762,113320
112825,113396
112909,113450
112872,113406
112876,113383
112799,113386
112907,113432
112977,113492
112964,113434
112975,113467
112949,113455
113071,113524
113160,113547
113174,113574
113175,113545
113216,113559
113321,113615
113413,113701
113458,113703
113453,113693
113434,113676
113579,113765
113681,113818
113680,113789
113675,113784
113640,113785
113746,113857
113852,113898
113846,113903
113805,113857
113814,113850
113881,113933
113937,113939
113931,113941
113944,113918
113896,113903
114031,113985
114049,114004
114031,113999
113979,113958
114025,113958
114088,114039
114142,114022
114123,114039
114100,113999
114125,114015
114244,114087
114283,114098
114260,114099
114238,114037
114222,114071
114328,114134
114344,114170
114353,114159
114285,114086
114292,114124
114417,114167
114448,114214
114458,114189
114390,114155
114470,114193
114580,114265
114644,114261
114646,114290
114642,114282
114720,114286
114847,114381
114857,114377
114913,114427
114893,114371
114970,114437
115047,114492
115106,114469
115104,114484
115023,114435
115065,114474
115126,114508
115043,114486
114973,114426
114729,114282
114584,114254
114382,114123
114113,113976
113761,113802
113419,113607
113199,113533
112976,113415
112810,113313
112560,113191
112271,113037
112154,112996
112087,112961
111943,112889
111838,112841
111683,112777
111670,112765
111710,112776
111637,112789
111619,112737
111513,112682
111573,112729
111626,112756
111621,112763
111616,112747
111588,112751
111671,112765
111758,112868
111763,112858
111800,112840
111801,112851
111881,112890
112026,112980
112025,113017
112040,112966
112041,112955
112128,113044
112242,113113
112268,113100
112230,113079
112223,113055
112297,113141
112343,113139
112355,113138
112309,113132
112243,113078
112313,113124
112380,113142
112315,113114
112249,113069
112187,113027
112287,113122
112313,113127
112269,113103
112228,113067
112202,113065
112277,113099
112332,113124
112316,113131
112314,113095
112279,113094
112396,113163
112474,113208
112490,113194
112461,113182
112505,113211
112563,113271
112658,113282
112628,113274
112584,113225
112593,113248
112630,113294
112688,113304
112613,113293
112585,113240
112552,113215
112650,113297
112629,113306
112639,113249
112563,113199
112558,113228
112643,113295
112626,113285
112636,113253
112568,113189
112600,113245
112696,113280
112668,113308
112670,113261
112585,113231
112623,113266
112664,113271
112687,113274
112690,113302
112605,113262
112623,113268
112733,113314
112709,113315
112725,113315
112656,113294
112704,113284
112804,113356
112815,113376
112800,113343
112754,113311
112827,113330
112880,113426
112964,113422
112924,113420
112885,113354
112989,113447
113073,113479
113094,113518
113120,113518
113051,113463
113160,113519
113252,113593
113252,113587
113289,113595
113228,113555
113282,113625
113366,113632
113332,113655
113351,113608
113304,113591
113343,113641
113426,113683
113379,113679
113386,113648
113308,113593
113417,113642
113444,113694
113433,113666
113435,113658
113374,113605
113444,113711
113546,113719
113516,113743
113525,113706
113477,113706
113587,113735
113651,113784
113657,113787
113626,113759
113570,113754
113666,113780
113761,113851
113737,113827
113709,113773
113675,113782
113739,113823
113809,113835
113792,113825
113717,113810
113734,113813
113781,113848
113806,113856
113772,113819
113753,113818
113673,113792
113791,113851
113841,113875
113785,113840
113784,113815
113745,113818
113809,113852
113890,113885
113838,113872
113789,113799
113781,113824
113890,113906
113895,113900
113883,113893
113838,113848
113877,113877
113936,113906
114008,113966
113985,113928
113972,113916
113947,113915
114053,113959
114099,113983
114065,113959
114046,113942
114015,113947
114140,113994
114189,113995
114114,113996
114088,113948
114116,113968
114160,114042
114173,114049
114158,114004
114110,113962
114143,113982
114217,114058
114254,114058
114260,114079
114180,114004
114260,114056
114370,114115
114427,114118
114458,114153
114369,114101
114478,114135
114574,114235
114606,114217
114629,114200
114621,114193
114656,114269
114747,114281
114793,114321
114791,114321
114775,114261
114839,114333
114886,114367
114962,114399
114945,114401
114915,114335
115016,114399
115153,114483
115103,114458
115172,114477
115126,114432
115228,114493
115299,114583
115305,114560
115329,114534
115296,114523
115353,114566
115457,114644
115442,114599
115415,114605
115339,114525
115402,114585
115419,114613
115310,114547
115208,114487
115002,114357
114868,114311
114616,114199
114313,114059
114008,113859
113643,113664
113472,113613
113298,113508
113045,113399
112820,113274
112590,113142
112472,113094
112374,113087
112200,112983
112104,112911
111947,112859
111963,112874
111986,112868
111924,112828
111854,112844
111799,112755
111886,112827
111928,112855
111918,112830
111903,112813
111884,112823
111950,112899
112014,112933
112024,112911
112039,112906
112026,112918
112130,112990
112195,113014
112192,113006
112212,112999
112196,113033
112292,113068
112431,113135
112401,113103
112379,113082
112361,113077
112447,113167
112479,113145
112466,113145
112383,113107
112347,113083
112413,113104
112415,113168
112370,113087
112293,113046
112262,113046
112279,113068
112334,113092
112259,113037
112195,112998
112139,112981
112225,113030
112243,113057
112201,113026
112178,112975
112201,113000
112237,113075
112291,113042
112280,113046
112175,113011
112230,113038
112337,113110
112315,113075
112294,113083
112227,113026
112201,113052
112262,113057
112299,113088
112238,113051
112151,112974
112209,113043
112237,113035
112249,113048
112189,113018
112153,112958
112183,113002
112252,113054
112227,113054
112225,113040
112148,112985
112169,113009
112269,113052
112275,113071
112226,113056
112155,112979
112219,113031
112245,113054
112252,113075
112220,113045
112146,112985
112192,113052
112242,113062
112259,113073
112221,113063
112145,113013
112244,113034
112327,113121
112306,113095
112310,113089
112266,113071
