11111,11111
0,0
81689,80633
104275,100512
104300,100533
104256,100457
104310,100521
104394,100570
104380,100544
104368,100562
104333,100539
104467,100607
104485,100595
104524,100578
104510,100610
104491,100549
104580,100610
104632,100642
104637,100696
104633,100603
104636,100631
104653,100689
104753,100708
104686,100689
104734,100656
104682,100664
104715,100674
104744,100702
104744,100711
104715,100657
104717,100648
104727,100725
104751,100719
104732,100676
104684,100622
104687,100611
104699,100645
104757,100708
104699,100662
104645,100607
104596,100621
104695,100635
104650,100682
104619,100599
104616,100600
104512,100585
104607,100639
104609,100646
104607,100593
104532,100616
104495,100552
104617,100580
104624,100639
104607,100636
104543,100607
104529,100547
104647,100657
104687,100646
104639,100640
104596,100652
104602,100594
104689,100707
104743,100692
104703,100679
104719,100684
104697,100656
104753,100703
104829,100728
104815,100723
104779,100741
104799,100708
104849,100749
104945,100810
104902,100792
104943,100808
104857,100765
105002,100842
105031,100834
104981,100864
104990,100798
105011,100817
105074,100894
105102,100877
105107,100897
105057,100874
105059,100832
105165,100925
105196,100956
105176,100943
105141,100877
105166,100904
105203,100919
105239,100948
105233,100965
105196,100912
105183,100922
105276,100951
105308,101008
105278,100996
105285,100938
105237,100970
105385,100997
105325,101048
105353,100960
105351,100988
105279,100961
105422,100995
105421,101071
105384,101012
105418,101016
105385,101000
105498,101073
105497,101081
105484,101090
105455,101057
105474,101037
105528,101081
105575,101124
105561,101082
105548,101103
105530,101073
105640,101115
105671,101156
105623,101144
105642,101127
105619,101089
106112,101359
106299,101456
106261,101418
103150,100037
103118,100019
103119,99999
104147,100467
104178,100523
104180,100467
104212,100507
104657,100726
104765,100763
104810,100778
104836,100802
104793,100773
104853,100770
104926,100849
104966,100831
104921,100845
104891,100788
104986,100829
104978,100839
104993,100872
104994,100882
104922,100782
104985,100833
104987,100836
105035,100860
104960,100831
104910,100820
104924,100817
105031,100853
104998,100887
104968,100802
104943,100811
104957,100838
104977,100871
104969,100807
104969,100850
104900,100800
104910,100810
104988,100855
104982,100877
104960,100802
104918,100781
104906,100804
105010,100848
104999,100849
105023,100830
104951,100823
104991,100871
105073,100866
105052,100895
105048,100863
105055,100853
105064,100896
105137,100932
105171,100923
105169,100920
105135,100907
105234,100914
105258,100967
105299,100989
105313,100994
105221,100954
105299,100978
105392,101054
105388,101019
105351,100987
105363,100990
105382,101057
105498,101072
105482,101066
105490,101072
105457,101039
105543,101073
105595,101137
105607,101125
105607,101073
105583,101087
105648,101144
105690,101151
105756,101164
105726,101185
105670,101152
105776,101178
105842,101239
105795,101189
105873,101226
105807,101181
105866,101238
105904,101256
105933,101235
105880,101213
105899,101213
105941,101239
106041,101316
106005,101271
105993,101290
105959,101255
106009,101245
106072,101330
106044,101332
106057,101292
106005,101274
106036,101293
106109,101312
106109,101328
106088,101336
106006,101256
106101,101268
106134,101347
106119,101352
106102,101304
106068,101288
106093,101307
106125,101320
106153,101350
106098,101278
106057,101254
106090,101295
106157,101334
106136,101304
106130,101319
106080,101305
106131,101275
106198,101340
106210,101315
106151,101342
106098,101260
106189,101304
106228,101361
106220,101330
106226,101322
106185,101307
106248,101298
106272,101385
106284,101307
106233,101323
106237,101283
106277,101348
106317,101383
106326,101315
106325,101331
106274,101285
106358,101319
106386,101411
106391,101360
106331,101357
106310,101317
106404,101357
106464,101389
106409,101413
106432,101361
106401,101324
106429,101353
106431,101392
106308,101338
106272,101260
106130,101182
106021,101147
105884,101097
105591,100967
105292,100833
105012,100627
104798,100606
104606,100485
104321,100409
104166,100318
103927,100200
103820,100159
103772,100153
103564,100071
103456,100015
103370,99935
103331,99953
103290,99989
103239,99886
103180,99929
103086,99858
103100,99849
103131,99885
103089,99862
103049,99853
103037,99797
103120,99881
103157,99908
103137,99917
103171,99894
103157,99914
103246,99903
103333,100006
103324,100007
103316,99982
103346,99938
103426,100061
103506,100056
103543,100100
103544,100055
103567,100073
103635,100120
103672,100158
103697,100142
103688,100141
103718,100141
103754,100189
103849,100196
103836,100252
103812,100194
103790,100198
103855,100227
103917,100273
103911,100211
103863,100232
103836,100151
103896,100255
103971,100274
103966,100278
103954,100287
103926,100212
104023,100307
104113,100349
104104,100336
104154,100328
104161,100292
104280,100406
104308,100414
104358,100446
104367,100427
104361,100390
104420,100440
104489,100505
104456,100471
104464,100457
104410,100409
104499,100471
104554,100500
104535,100518
104521,100447
104505,100424
104580,100497
104585,100493
104604,100522
104573,100459
104542,100470
104604,100510
104616,100522
104594,100504
104556,100475
104587,100442
104594,100511
104659,100507
104604,100542
104581,100492
104580,100442
104615,100515
104654,100505
104633,100537
104608,100487
104563,100461
104593,100512
104661,100516
104613,100535
104583,100484
104553,100481
104659,100493
104680,100567
104663,100501
104722,100528
104682,100466
104786,100577
104858,100571
104848,100589
104870,100590
104885,100587
105020,100605
105083,100661
105042,100682
105054,100627
105107,100633
105165,100701
105251,100744
105257,100733
105223,100692
105234,100671
105294,100757
105377,100760
105350,100767
105345,100767
105385,100699
105411,100784
105487,100791
105437,100818
105405,100765
105474,100778
105497,100797
105568,100827
105544,100823
105535,100812
105547,100800
105573,100835
105647,100890
105641,100828
105607,100848
105602,100812
105643,100873
105705,100903
105678,100840
105674,100846
105645,100859
105754,100886
105800,100923
105735,100865
105756,100883
105692,100877
105788,100913
105794,100965
105789,100937
105752,100904
105760,100887
105805,100948
105819,100943
105811,100946
105803,100915
105789,100900
105885,100958
105840,100970
105874,100968
105855,100894
105835,100921
105912,100959
105945,100991
105913,100985
105860,100941
105915,100943
105942,100968
105951,101034
105945,100990
105900,100952
105892,100942
105959,100995
105980,101012
105929,101021
105883,100961
105900,100917
105946,101004
105981,101056
105963,100990
105907,100962
105896,100954
105989,101038
105959,100995
105938,101029
105911,100990
105944,100963
105983,101055
105983,101014
105973,101049
105941,101002
105964,100993
105981,101064
106014,101023
105965,101059
105917,100995
105964,100990
105989,101033
106066,101066
105991,101064
106014,101017
106008,101019
106062,101056
106089,101102
106034,101014
105932,100973
105845,100912
105780,100896
105652,100851
105422,100724
105092,100595
104810,100405
104595,100337
104323,100245
104027,100134
103763,99939
103560,99924
103478,99885
103353,99800
103137,99724
103022,99633
102928,99603
102914,99664
102888,99608
102776,99563
102736,99527
102710,99507
102755,99574
102713,99559
102726,99565
102708,99545
102753,99505
102798,99595
102872,99621
102893,99616
102849,99602
102930,99621
103068,99706
103088,99740
103142,99744
103129,99731
103226,99744
103353,99858
103412,99861
103467,99898
103455,99870
103576,99919
103695,99990
103731,99990
103750,100035
103749,99993
103798,99996
103920,100053
103988,100093
103969,100091
103989,100108
104005,100121
104098,100151
104150,100203
104108,100145
104110,100149
104147,100199
104220,100226
104227,100210
104253,100235
104248,100193
104300,100194
104410,100300
104428,100292
104373,100295
104419,100271
104472,100258
104559,100367
104584,100393
104609,100352
104575,100322
104621,100370
104654,100403
104727,100397
104656,100368
104651,100353
104655,100345
104744,100401
104689,100418
104731,100403
104663,100334
104666,100361
104736,100424
104711,100454
104702,100390
104645,100364
104694,100353
104720,100420
104683,100395
104680,100434
104622,100336
104648,100338
104721,100402
104700,100429
104677,100362
104605,100329
104651,100386
104684,100391
104730,100406
104706,100395
104667,100326
104703,100365
104732,100412
104790,100457
104769,100422
104689,100354
104757,100444
104803,100468
104809,100442
104856,100484
104803,100441
104907,100445
104978,100518
104923,100502
104952,100513
104888,100490
104975,100471
105054,100558
105068,100564
105030,100573
105003,100483
105129,100589
105174,100611
105150,100583
105158,100601
105198,100549
105222,100609
105340,100681
105331,100687
105299,100653
105329,100620
105357,100660
105479,100722
105428,100737
105446,100732
105454,100686
105478,100741
105568,100796
105593,100776
105567,100792
105506,100714
105604,100774
105621,100811
105620,100793
105647,100792
105572,100770
105690,100792
105683,100834
105681,100841
105707,100842
105666,100797
105703,100834
105756,100892
105771,100867
105739,100860
105731,100854
105794,100868
105815,100943
105783,100874
105815,100895
105766,100810
105828,100910
105834,100923
105849,100897
105820,100906
105818,100857
105862,100887
105857,100946
105894,100900
105847,100940
105798,100828
105855,100863
105914,100954
105890,100899
105881,100899
105804,100882
105880,100910
105917,100895
105903,100949
105892,100903
105840,100888
105867,100878
105936,100986
105935,100965
105901,100909
105807,100865
105903,100934
105905,100962
105909,100921
105902,100907
105816,100863
105903,100922
105916,100959
105888,100895
105885,100929
105827,100832
105875,100910
105928,100935
105904,100941
105875,100885
105844,100886
105900,100951
105961,100972
105931,100962
105941,100912
105874,100911
105970,100924
105966,101003
105953,100958
105930,100934
105817,100876
105847,100891
105882,100886
105674,100801
105528,100704
105195,100577
105043,100453
104850,100427
104470,100225
104221,100151
103915,99966
103781,99947
103565,99869
103396,99781
103199,99679
103059,99579
102984,99595
102970,99581
102845,99536
102729,99504
102615,99385
102643,99496
102641,99470
102528,99424
102517,99385
102467,99365
102471,99380
102537,99421
102509,99432
102494,99389
102502,99367
102544,99445
102629,99492
102640,99508
102643,99487
102613,99466
102766,99508
102867,99602
102822,99551
102888,99573
102855,99548
102998,99646
103041,99682
103061,99651
103059,99696
103085,99619
103163,99723
103251,99749
103249,99769
103217,99739
103245,99728
103327,99773
103350,99814
103348,99832
103327,99790
103347,99743
103412,99826
103460,99857
103430,99872
103405,99813
103465,99823
103492,99851
103566,99896
103581,99929
103573,99887
103602,99872
103688,99931
103793,99981
103772,100002
103778,99980
103816,99948
103886,100029
103913,100061
103950,100069
103912,100030
103886,99989
103997,100046
103985,100108
103998,100049
103961,100044
103936,99989
104002,100061
103999,100089
103975,100020
103981,100055
103926,99948
103986,100052
104017,100107
103976,100054
103960,100040
103949,99974
103969,100055
104032,100064
103962,100004
103969,100030
103919,100007
103985,100023
104033,100069
104009,100044
103972,100006
103923,99983
104011,100042
104064,100104
104044,100015
104039,100039
103994,100003
104099,100045
104169,100119
104092,100076
104129,100063
104119,100056
104190,100119
104252,100162
104248,100118
104233,100140
104246,100135
104319,100178
104378,100179
104351,100186
104375,100152
104339,100196
104473,100197
104509,100239
104480,100231
104516,100235
104525,100234
104606,100315
104643,100275
104668,100301
104660,100311
104671,100270
104766,100377
104786,100380
104795,100399
104808,100356
104813,100351
104895,100442
104926,100416
104967,100458
104931,100408
104942,100397
105019,100467
105077,100509
105055,100503
105052,100428
105088,100485
105138,100531
105166,100523
105132,100556
105166,100511
105149,100477
105233,100532
105315,100587
105256,100547
105280,100564
105266,100553
105331,100581
105378,100628
105342,100590
105346,100601
105362,100593
105446,100657
105436,100645
105476,100673
105433,100612
105478,100628
105498,100675
105518,100667
105531,100668
105477,100670
105457,100599
105569,100695
105529,100703
105541,100669
105564,100667
105485,100627
105568,100702
105614,100713
105576,100702
105545,100657
105591,100680
105615,100719
105632,100759
105637,100740
105634,100702
105606,100718
105670,100731
105740,100760
105699,100753
105644,100689
105687,100711
105734,100776
105794,100821
105702,100738
105699,100730
105739,100729
105817,100801
105801,100839
105779,100760
105785,100734
105755,100748
105827,100793
105852,100802
105854,100821
105786,100798
105817,100751
105844,100819
105830,100840
105790,100799
105698,100713
105653,100661
105547,100688
105399,100592
105160,100440
104864,100327
104640,100226
104489,100143
104211,100082
103972,99928
103806,99828
103630,99741
103535,99758
103402,99730
103320,99624
103192,99580
103081,99560
103081,99586
103036,99519
102956,99540
102850,99457
102898,99447
102916,99502
102939,99502
102925,99502
102819,99438
102893,99483
102974,99540
103028,99581
102993,99544
103000,99547
103077,99565
103172,99652
103235,99654
103240,99687
103262,99660
103347,99688
103473,99759
103525,99792
103554,99801
103537,99771
103636,99847
103760,99899
103793,99898
103819,99907
103809,99892
103886,99926
103966,99998
104009,100017
104024,100005
103998,99983
104045,99980
104101,100054
104141,100080
104150,100054
104108,100034
104205,100058
104201,100132
104278,100131
104286,100110
104311,100136
104318,100083
104425,100197
104419,100216
104446,100198
104481,100184
104494,100182
104568,100276
104588,100311
104603,100249
104520,100232
104582,100253
104629,100291
104638,100269
104607,100280
104563,100232
104584,100247
104588,100275
104606,100304
104550,100211
104521,100195
104554,100183
104586,100243
104569,100286
104494,100243
104484,100152
104454,100200
104516,100221
104496,100187
104438,100207
104365,100132
104412,100191
104424,100198
104407,100169
104405,100149
104279,100135
104364,100140
104376,100198
104388,100198
104384,100204
104326,100103
104402,100207
104491,100225
104493,100217
104502,100226
104470,100217
104520,100197
104573,100280
104591,100263
104562,100298
104538,100224
104633,100274
104706,100313
104676,100332
104661,100335
104671,100262
104728,100316
104788,100397
104777,100392
104800,100348
104811,100351
104874,100342
104926,100454
104933,100406
104946,100420
104871,100395
104947,100426
104990,100464
105024,100486
105032,100505
104962,100404
105059,100485
105123,100492
105126,100528
105129,100495
105049,100426
105107,100510
105209,100558
105203,100566
105175,100516
105174,100516
105246,100545
105302,100555
105257,100564
105280,100544
105241,100574
105306,100575
105350,100598
105364,100600
105356,100599
105288,100544
105418,100587
105414,100655
105435,100639
105378,100635
105357,100578
105446,100632
105446,100643
105457,100670
105439,100624
105421,100590
105466,100679
105456,100651
105506,100677
105486,100665
105442,100609
105491,100667
105542,100687
105497,100712
105472,100662
105505,100641
105533,100682
105520,100716
105555,100706
105556,100713
105475,100636
105562,100702
105609,100750
105598,100733
105575,100742
105563,100646
105603,100696
105643,100755
105627,100732
105560,100733
105587,100688
105613,100734
105680,100750
105634,100754
105652,100761
105592,100706
105637,100771
105718,100817
105669,100798
105675,100766
105653,100741
105732,100803
105732,100815
105742,100840
105714,100796
105675,100762
105736,100818
105836,100863
105774,100821
105802,100830
105729,100756
105846,100830
105863,100869
105858,100865
105895,100871
105811,100807
105929,100854
105969,100891
105878,100872
105903,100872
105821,100827
105822,100814
105805,100797
105623,100719
105450,100640
105180,100469
105003,100422
104743,100324
104484,100193
104205,100085
103926,99906
103758,99876
103657,99845
103429,99699
103303,99666
103113,99543
103106,99585
103010,99557
102951,99527
102818,99457
102770,99438
102733,99463
102769,99422
102693,99433
102683,99421
102604,99380
102680,99405
102697,99475
102707,99444
102688,99450
102696,99426
102810,99501
102829,99546
102867,99551
102860,99526
102876,99475
102978,99579
103033,99644
103096,99596
103138,99660
103103,99601
103254,99667
103304,99697
103358,99717
103354,99756
103367,99724
103473,99812
103554,99836
103569,99836
103554,99857
103552,99761
103650,99843
103653,99904
103654,99891
103650,99833
103620,99872
103721,99884
103736,99969
103749,99941
103770,99889
103714,99877
103816,99913
103866,100022
103882,99974
103876,99978
103870,99932
104016,100001
104015,100046
104047,100040
104063,100030
104023,99984
104083,100068
104152,100086
104115,100089
104062,100014
104043,100000
104134,100054
104102,100104
104074,100031
104091,100046
103990,100005
104092,100067
104118,100080
104039,100032
104029,100024
103957,99958
104052,100009
104082,100040
104014,100006
103970,99980
103935,99948
104016,100009
103986,100037
103982,99976
103955,99968
103904,99916
104026,100001
103984,100053
103982,99999
103949,99948
103934,99912
104020,100021
104028,100024
104022,100025
103975,99981
104006,99999
104059,100044
104079,100073
104082,100030
104075,100068
104041,99983
104151,100102
104173,100104
104170,100140
104151,100047
104193,100090
104272,100129
104319,100155
104302,100174
104290,100171
104341,100110
104417,100224
104453,100206
104459,100223
104415,100223
104423,100173
104556,100255
104555,100306
104563,100255
104574,100253
104555,100243
104666,100286
104688,100349
104683,100308
104673,100320
104661,100320
104755,100346
104834,100376
104806,100391
104799,100313
104826,100380
104915,100396
104874,100457
104890,100394
104900,100440
104876,100364
105015,100457
105011,100482
104991,100467
104982,100427
104943,100404
105018,100430
105059,100513
105007,100469
105003,100459
104997,100408
105090,100482
105078,100474
105093,100475
105036,100479
105038,100461
105126,100473
105104,100562
105087,100462
105092,100473
105072,100479
105132,100508
105129,100531
105150,100507
105097,100503
105089,100461
105152,100529
105201,100557
105117,100513
105176,100502
105113,100496
105211,100544
105203,100575
105172,100546
105166,100492
105199,100508
105258,100594
105270,100556
105243,100551
105221,100535
105201,100501
105297,100552
105267,100616
105249,100558
105221,100544
105217,100523
105311,100589
105346,100611
105288,100622
105257,100538
105289,100553
105327,100619
105355,100656
105330,100592
105350,100598
105324,100569
105409,100626
105427,100651
105376,100636
105398,100596
105387,100633
105452,100652
105516,100669
105489,100662
105445,100653
105472,100618
105594,100714
105573,100719
105572,100703
105528,100691
105558,100683
105658,100718
105628,100730
105598,100690
105518,100656
105459,100610
105352,100604
105233,100523
104961,100421
104682,100225
104448,100108
104231,100079
104019,99953
103826,99876
103522,99741
103363,99667
103297,99653
103170,99608
102988,99533
102878,99432
102793,99428
102795,99423
102721,99369
102639,99378
102586,99346
102564,99305
102575,99331
102558,99306
102519,99334
102504,99295
102480,99275
102570,99344
102581,99346
102592,99387
102582,99334
102598,99350
102704,99428
102730,99443
102753,99447
102741,99416
102820,99441
102899,99539
102955,99546
102936,99532
102950,99504
103027,99507
103106,99633
103157,99620
103157,99625
103149,99585
103196,99619
103305,99675
103328,99724
103303,99658
103308,99686
103342,99705
103394,99723
103431,99746
103401,99710
103357,99690
103395,99713
103487,99773
103483,99778
103478,99719
103430,99744
103452,99750
103571,99826
103603,99819
103614,99824
103613,99787
103644,99829
103740,99919
103741,99889
103759,99872
103705,99853
103781,99899
103847,99900
103835,99928
103802,99930
103747,99845
103801,99923
103827,99938
103857,99949
103807,99897
103751,99845
103816,99897
103862,99960
103806,99905
103813,99895
103763,99850
103747,99853
103861,99905
103806,99895
103781,99892
103672,99832
103761,99834
103810,99923
103799,99858
103745,99874
103728,99829
103729,99849
103800,99901
103768,99879
103731,99825
103740,99839
103756,99864
103797,99879
103843,99918
103778,99903
103759,99829
103834,99898
103895,99950
103924,99936
103903,99933
103835,99894
103945,99933
104012,99999
103998,100000
104026,99973
103955,99947
104056,99968
104148,100049
104120,100025
104136,100008
104109,99988
104202,100023
104231,100090
104294,100089
104274,100108
104267,100074
104303,100062
104368,100105
104410,100129
104363,100138
104355,100074
104417,100134
104459,100169
104484,100196
104470,100169
104501,100151
104541,100213
104584,100247
104600,100201
104584,100221
104587,100178
104633,100246
104700,100261
104679,100254
104702,100261
104670,100183
104736,100250
104774,100333
104778,100287
104795,100293
104742,100224
104812,100325
104835,100309
104875,100351
104822,100343
104798,100285
104830,100325
104877,100394
104874,100314
104905,100358
104857,100283
104907,100350
104946,100387
104959,100377
104887,100392
104901,100305
104941,100368
104988,100365
104915,100370
104971,100394
104946,100308
104963,100355
105048,100408
105005,100376
104969,100387
104985,100307
105041,100397
105066,100430
105084,100396
104998,100356
105004,100365
105096,100372
105082,100479
105055,100390
105101,100396
105040,100386
105082,100411
105117,100455
105098,100416
105100,100424
105012,100367
105129,100462
105165,100458
105114,100459
105118,100391
105056,100424
105151,100416
105209,100481
105184,100444
105120,100442
105140,100413
105204,100479
105235,100473
105224,100459
105178,100479
105166,100419
105211,100477
105264,100490
105241,100475
105254,100490
105228,100417
105292,100511
105314,100552
105291,100491
105337,100513
105244,100465
105368,100525
105374,100550
105401,100538
105328,100559
105329,100462
105429,100525
105412,100571
105429,100565
105423,100530
105403,100485
105471,100585
105472,100548
105399,100522
105313,100502
105125,100363
105068,100348
104879,100272
104617,100129
104348,100011
104032,99870
103825,99800
103676,99757
103393,99605
103224,99539
103036,99392
102926,99397
102884,99394
102685,99284
102598,99224
102471,99165
102476,99198
102468,99204
102335,99164
102319,99084
102251,99091
102301,99101
102273,99172
102234,99105
102247,99098
102229,99048
102315,99147
102302,99192
102307,99165
102351,99150
102301,99108
102419,99172
102466,99253
102486,99215
102505,99231
102536,99194
102622,99300
102649,99302
102705,99339
102729,99318
102699,99312
102803,99395
102920,99430
102895,99423
102924,99414
102920,99416
103058,99460
103120,99550
103084,99498
103160,99492
103124,99500
103231,99552
103294,99569
103289,99610
103239,99523
103253,99541
103329,99607
103402,99663
103403,99620
103369,99630
103379,99567
103534,99681
103594,99727
103557,99701
103593,99695
103634,99687
103744,99756
103755,99808
103765,99825
103768,99788
103738,99749
103850,99797
103828,99856
103838,99817
103815,99820
103803,99785
103866,99824
103868,99871
103808,99815
103819,99797
103788,99734
103837,99837
103882,99848
103831,99834
103818,99777
103787,99804
103824,99811
103859,99818
103844,99807
103791,99809
103758,99736
103808,99821
103823,99815
103820,99793
103795,99736
103813,99764
103828,99844
103880,99835
103872,99815
103862,99804
103852,99821
103914,99822
103983,99905
103947,99900
103922,99856
103947,99865
104017,99881
104060,99968
104019,99888
104080,99910
104093,99875
104167,99944
104154,99993
104159,99950
104153,99974
104143,99927
104275,100000
104259,100040
104285,100030
104261,100000
104293,99976
104364,100004
104409,100067
104420,100076
104376,100080
104385,100034
104519,100097
104498,100171
104519,100105
104494,100102
104531,100086
104567,100171
104650,100178
104586,100186
104610,100133
104628,100133
104685,100220
104711,100254
104712,100172
104710,100208
104702,100184
104826,100285
104872,100272
104820,100272
104840,100267
104800,100226
104948,100304
104959,100305
104959,100334
104906,100267
104916,100243
105035,100369
105033,100353
105016,100341
104992,100336
105007,100302
105084,100355
105082,100395
105079,100373
105027,100339
105097,100337
105118,100390
105182,100412
105118,100401
105120,100378
105140,100359
105193,100402
105205,100429
105172,100428
105164,100342
105162,100366
105252,100422
105258,100434
105267,100405
105198,100364
105224,100393
105269,100446
105286,100491
105265,100454
105251,100377
105291,100431
105313,100467
105332,100489
105311,100441
105283,100411
105315,100410
105349,100489
105417,100490
105360,100452
105367,100434
105343,100442
105456,100491
105446,100527
105439,100489
105359,100449
105435,100476
105497,100505
105514,100563
105469,100530
105476,100453
105476,100478
105534,100569
105559,100543
105550,100559
105514,100473
105532,100527
105599,100545
105598,100568
105563,100554
105533,100522
105542,100550
105577,100547
105524,100529
105429,100492
105245,100349
105112,100305
104902,100240
104687,100147
104422,99984
104094,99839
103942,99760
103718,99700
103584,99638
103329,99549
103176,99411
103052,99378
102971,99391
102860,99304
102793,99286
102649,99187
102622,99207
102621,99231
102566,99208
102505,99175
102446,99111
102465,99124
102485,99163
102492,99158
102440,99142
102453,99111
102477,99141
102548,99201
102578,99208
102559,99211
102579,99162
102637,99215
102732,99291
102791,99302
102775,99312
102771,99261
102884,99330
102979,99392
102979,99401
103027,99420
103000,99389
103082,99430
103171,99508
103189,99511
103224,99469
103187,99467
103249,99492
103341,99543
103367,99565
103351,99574
103351,99523
103391,99572
103476,99627
103434,99599
103458,99617
103393,99546
103518,99593
103545,99670
103558,99631
103600,99681
103559,99603
103662,99669
103709,99718
103737,99738
103777,99711
103688,99699
103817,99711
103861,99805
103860,99780
103875,99767
103812,99695
103883,99773
103877,99774
103866,99781
103832,99786
103815,99696
103832,99771
103835,99740
103846,99753
103776,99724
103753,99688
103785,99736
103810,99715
103765,99710
103736,99702
103695,99653
103723,99713
103758,99687
103725,99713
103659,99700
103632,99621
103726,99680
103690,99689
103690,99700
103684,99651
103666,99660
103677,99705
103733,99722
103745,99702
103698,99711
103673,99643
103756,99732
103815,99729
103807,99753
103763,99743
103778,99666
103851,99761
103870,99772
103885,99790
103865,99802
103865,99704
103958,99806
104030,99868
104038,99837
104033,99861
103961,99787
104053,99834
104136,99914
104113,99881
104137,99879
104107,99855
104159,99899
104253,99980
104241,99959
104215,99949
104211,99844
104325,99980
104352,99960
104340,99983
104349,99996
104346,99936
104411,100006
104431,100044
104473,100010
104442,100064
104428,99961
104539,100102
104577,100076
104577,100098
104553,100105
104501,100006
104579,100100
104650,100151
104614,100115
104578,100117
104569,100028
104690,100136
104689,100152
104668,100142
104637,100140
104627,100041
104707,100154
104747,100162
104716,100150
104716,100138
104594,100098
104729,100153
104737,100158
104744,100148
104703,100163
104665,100123
104759,100151
104770,100220
104726,100148
104771,100194
104703,100130
104744,100173
104835,100191
104756,100210
104775,100147
104725,100174
104800,100205
104855,100206
104820,100218
104808,100223
104741,100140
104842,100209
104891,100246
104839,100228
104872,100208
104769,100164
104872,100263
104917,100228
104896,100225
104885,100245
104838,100217
104890,100217
104969,100297
104894,100254
104881,100259
104845,100212
104954,100263
104955,100287
104956,100256
104937,100293
104945,100249
105001,100284
105042,100314
105043,100328
105005,100266
105018,100253
105055,100335
105078,100387
105077,100340
105083,100307
105024,100236
105072,100321
105034,100314
104969,100239
104793,100182
104571,100043
104468,100012
104250,99907
103938,99801
103727,99641
103455,99502
103285,99467
103124,99440
102911,99333
102775,99231
102592,99140
102532,99109
102501,99129
102348,99084
102247,98961
102181,98938
102153,98985
102137,98984
102103,98953
102046,98891
102004,98896
102058,98907
102053,98937
102031,98928
102023,98919
101975,98900
102069,98914
102109,99000
102115,99004
102082,98962
102098,98924
102238,99049
102252,99057
102232,99064
102276,99037
102312,99071
102355,99075
102459,99183
102431,99136
102447,99113
102468,99119
102544,99200
102612,99256
102599,99182
102619,99193
102617,99204
102706,99230
102728,99288
102692,99219
102707,99258
102689,99223
102756,99252
102793,99306
102773,99281
102747,99249
102770,99261
102815,99278
102899,99358
102840,99336
102860,99332
102835,99286
102986,99394
103007,99390
103047,99412
103032,99398
103081,99383
103152,99453
103179,99474
103183,99458
103192,99459
103159,99426
103277,99514
103233,99484
103240,99465
103160,99459
103171,99419
103228,99509
103239,99524
103203,99482
103187,99472
103124,99428
103234,99487
103236,99481
103224,99447
103124,99424
103119,99396
103196,99477
103190,99466
103165,99453
103145,99447
103092,99404
103231,99467
103195,99486
103168,99474
103128,99400
103141,99382
103198,99460
103253,99485
103184,99478
103169,99423
103146,99404
103227,99494
103243,99471
103273,99490
103232,99450
103248,99415
103298,99520
103364,99538
103330,99532
103332,99467
103346,99509
103452,99575
103461,99590
103444,99532
103464,99569
103452,99527
103567,99625
103582,99669
103601,99650
103554,99586
103625,99638
103683,99653
103756,99710
103728,99692
103717,99681
103725,99671
103872,99751
103896,99749
103868,99758
103837,99695
103869,99701
103915,99823
103982,99769
104002,99824
103936,99744
103965,99754
104072,99838
104099,99854
104053,99860
104079,99802
104060,99853
104144,99851
104200,99873
104129,99883
104143,99847
104194,99858
104221,99904
104280,99934
104284,99899
104234,99902
104239,99879
104361,99989
104341,99952
104368,99927
104307,99930
104313,99928
104423,99979
104417,100005
104380,99945
104363,99939
104402,99949
104465,99995
104482,100038
104453,99960
104408,99992
104416,99987
104500,100058
104525,100051
104476,100027
104479,99970
104481,99999
104553,100029
104552,100038
104529,100021
104543,100033
104509,100019
104584,100060
104613,100080
104576,100025
104551,100031
104512,100043
104624,100071
104612,100072
104602,100067
104553,100010
104602,100056
104614,100077
104646,100065
104635,100080
104603,100037
104594,100052
104680,100141
104696,100113
104652,100098
104639,100075
104682,100086
104711,100118
104750,100127
104724,100124
104681,100052
104756,100121
104827,100192
104813,100190
104798,100136
104810,100128
104787,100153
104857,100204
104837,100197
104853,100164
104833,100140
104816,100164
104899,100164
104823,100179
104720,100096
104587,99972
104464,99947
104286,99862
104081,99797
103765,99685
103484,99521
103319,99417
103154,99372
102913,99285
102780,99207
102562,99056
102431,99053
102399,99050
102230,98996
102132,98909
102018,98846
101996,98873
102020,98874
101934,98874
101903,98811
101769,98768
101820,98757
101818,98793
101813,98792
101792,98789
101704,98722
101772,98730
101817,98847
101817,98813
101813,98815
101761,98783
101881,98781
101924,98905
101906,98882
101925,98859
101906,98830
102000,98893
102038,98946
102040,98910
102068,98965
102065,98900
102118,98960
102191,99018
102202,99008
102212,99022
102149,98965
102221,99030
102312,99063
102280,99032
102288,99039
102254,98978
102309,99056
102340,99084
102355,99077
102332,99045
102266,99025
102326,99044
102378,99094
102412,99084
102384,99081
102331,99046
102442,99099
102524,99129
102493,99157
102501,99112
102500,99119
102546,99144
102633,99205
102622,99182
102594,99227
102604,99166
102618,99202
102689,99227
102652,99231
102605,99152
102594,99153
102603,99172
102660,99237
102652,99178
102575,99197
102575,99122
102579,99192
102587,99184
102595,99167
102540,99172
102498,99115
102524,99137
102582,99169
102522,99145
102564,99158
102502,99091
102499,99153
102559,99159
102558,99159
102492,99106
102479,99063
102524,99111
102576,99208
102499,99161
102534,99143
102482,99117
102589,99146
102629,99219
102628,99168
102571,99180
102561,99119
102612,99157
102718,99234
102688,99240
102673,99177
102662,99153
102692,99251
102791,99295
102779,99243
102829,99287
102761,99223
102857,99258
102961,99336
102923,99330
102917,99272
102884,99270
102971,99325
103066,99399
103024,99370
103055,99404
103015,99317
103145,99398
103157,99453
103170,99427
103168,99413
103153,99405
103241,99428
103299,99501
103240,99478
103308,99460
103248,99443
103340,99496
103364,99514
103364,99494
103377,99519
103320,99482
103406,99547
103483,99571
103481,99547
103441,99522
103450,99498
103512,99557
103573,99626
103537,99558
103513,99605
103483,99525
103607,99597
103636,99655
103616,99621
103599,99605
103565,99567
103647,99602
103724,99647
103622,99665
103652,99615
103620,99617
103645,99658
103711,99648
103730,99652
103668,99613
103654,99597
103741,99664
103764,99672
103705,99664
103736,99649
103670,99643
103759,99642
103762,99716
103758,99684
103699,99634
103719,99592
103751,99707
103801,99707
103772,99689
103761,99664
103753,99651
103823,99663
103839,99740
103821,99704
103821,99697
103769,99636
103855,99680
103913,99748
103860,99756
103861,99703
103860,99674
103891,99724
103951,99761
103891,99735
103956,99748
103875,99707
103941,99765
103979,99792
103954,99786
103932,99727
103902,99670
103978,99777
104045,99822
104003,99758
103962,99752
103960,99719
104055,99779
104053,99820
104042,99769
104047,99758
104012,99758
104093,99782
104124,99872
104088,99811
104095,99808
104086,99773
104170,99841
104230,99865
104193,99886
104204,99844
104192,99817
104234,99887
104293,99910
104249,99907
104295,99862
104249,99842
104303,99922
104339,99933
104362,99909
104344,99866
104347,99873
104339,99912
104326,99897
104231,99851
104067,99735
103886,99643
103739,99624
103505,99508
103215,99340
103000,99280
102745,99120
102599,99055
102468,99025
102230,98951
102058,98860
101884,98756
101835,98739
101790,98713
101672,98697
101593,98622
101495,98574
101487,98581
101471,98580
101355,98556
101313,98523
101270,98478
101304,98509
101312,98518
101255,98540
101246,98447
101226,98479
101268,98504
101334,98534
101255,98537
101267,98496
101303,98519
101349,98569
101398,98578
101381,98586
101393,98595
101370,98524
101515,98655
101490,98656
101503,98670
101511,98654
101544,98635
101607,98702
101633,98682
101673,98732
101659,98675
101657,98690
101697,98761
101791,98781
101751,98771
101732,98719
101763,98743
101795,98773
101843,98806
101809,98763
101834,98772
101790,98825
101878,98834
101871,98860
101898,98814
101898,98810
101886,98826
102010,98853
102026,98886
102026,98891
102017,98824
102076,98878
102115,98907
102191,98978
102130,98944
102128,98904
102109,98922
102171,98961
102204,98941
102167,98988
102138,98926
102115,98869
102183,98983
102178,98971
102150,98906
102138,98928
102156,98918
102166,98923
102197,98962
102133,98942
102074,98886
102095,98861
102125,98940
102148,98948
102126,98912
102049,98917
102039,98826
102105,98944
102117,98903
102069,98903
102065,98850
102007,98855
102112,98916
102115,98902
102078,98913
102036,98863
102089,98908
102115,98910
102153,98926
102154,98955
102118,98906
102112,98909
102205,98996
102216,98964
102234,98978
102161,98950
102233,98946
102290,99040
102333,99030
102355,98990
102342,98998
102354,99028
102429,99071
102488,99093
102433,99090
102433,99042
102462,99074
102576,99107
102607,99155
102563,99090
102589,99098
102608,99114
102669,99198
102664,99160
102670,99196
102643,99145
102699,99172
102734,99202
102848,99226
102751,99239
102771,99154
102825,99211
102848,99227
102928,99279
102877,99274
102902,99212
102932,99231
102959,99299
103026,99323
102967,99296
102988,99237
103019,99328
103071,99330
103065,99352
103089,99358
103014,99274
103082,99318
103127,99401
103116,99374
103139,99356
103112,99325
103106,99336
103206,99407
103177,99410
103136,99399
103141,99337
103197,99390
103219,99424
103237,99406
103185,99411
103176,99337
103239,99378
103308,99437
103274,99462
103276,99388
103245,99385
103274,99388
103340,99457
103291,99401
103349,99460
103247,99406
103345,99401
103408,99466
103366,99490
103374,99497
103305,99398
103422,99453
103429,99520
103412,99508
103452,99490
103363,99425
103427,99487
103464,99519
103503,99514
103481,99494
103441,99486
103532,99538
103520,99557
103528,99504
103518,99555
103496,99494
103530,99531
103602,99588
103621,99576
103553,99516
103570,99506
103588,99546
103685,99610
103633,99579
103649,99582
103595,99578
103665,99562
103732,99612
103716,99651
103710,99602
103695,99568
103733,99607
103829,99669
103804,99622
103808,99655
103751,99593
103881,99692
103909,99686
103919,99704
103903,99665
103898,99677
103969,99711
104010,99747
104034,99742
103996,99738
103949,99707
104056,99736
104074,99781
104000,99728
103902,99647
103729,99580
103603,99495
103461,99474
103200,99331
102942,99201
102689,99099
102509,98987
102343,98953
102174,98898
101971,98764
101822,98660
101722,98686
101657,98642
101540,98581
101447,98537
101372,98461
101345,98503
101345,98524
101294,98475
101220,98443
101156,98399
101150,98434
101189,98444
101154,98442
101131,98428
101103,98372
101167,98424
101225,98493
101206,98462
101219,98459
101199,98420
101265,98502
101339,98563
101383,98568
101400,98560
101342,98511
101486,98612
101558,98652
101508,98622
101550,98657
101550,98614
101638,98679
101684,98734
101748,98746
101729,98700
101716,98690
101816,98779
101828,98803
101870,98764
101873,98797
101848,98736
101910,98797
101978,98828
101992,98869
101987,98811
101909,98784
102028,98861
102050,98881
102083,98874
102060,98877
102087,98843
102158,98893
102244,98921
102241,98975
102274,98939
102208,98930
102352,98996
102405,99014
102363,99011
102396,99017
102379,98968
102406,99024
102468,99041
102450,99041
102399,98973
102388,98989
102439,99048
102463,99060
102407,98997
102386,99012
102349,98970
102391,98993
102459,99037
102358,99030
102358,99003
102315,98950
102344,98998
102351,99001
102358,99008
102353,98963
102268,98942
102352,98963
102345,99010
102323,99005
102323,98975
102240,98926
102348,98972
102362,99050
102332,98943
102324,98973
102356,98940
102371,99002
102416,99011
102433,99039
102436,99023
102394,98983
102475,99044
102500,99060
102514,99073
102504,99041
102466,98999
102588,99095
102627,99125
102621,99097
102597,99112
102613,99064
102720,99129
102720,99200
102777,99206
102716,99134
102706,99145
102820,99203
102851,99236
102875,99208
102862,99230
102840,99182
102973,99276
102981,99306
102978,99311
102984,99265
103035,99269
103083,99323
103145,99367
103129,99327
103143,99310
103117,99335
103197,99328
103299,99413
103242,99409
103232,99358
103253,99367
103291,99410
103358,99430
103324,99464
103316,99406
103343,99419
103421,99423
103461,99478
103427,99475
103444,99445
103415,99449
103496,99471
103534,99536
103543,99493
103487,99491
103449,99440
103578,99533
103564,99534
103541,99503
103543,99470
103533,99507
103614,99502
103627,99571
103625,99540
103553,99530
103593,99518
103641,99532
103694,99571
103671,99572
103669,99533
103683,99543
103726,99611
103726,99595
103749,99606
103731,99560
103690,99550
103799,99618
103793,99621
103770,99602
103726,99576
103732,99572
103827,99618
103837,99659
103820,99635
103762,99592
103789,99573
103870,99636
103891,99660
103868,99646
103869,99654
103875,99623
103915,99695
103939,99699
103927,99667
103927,99653
103937,99653
103955,99691
103989,99739
104035,99726
103978,99700
104005,99680
104018,99719
104103,99746
104035,99766
104069,99717
104035,99709
104159,99760
104146,99817
104147,99748
104127,99742
104118,99746
104155,99794
104190,99777
104098,99790
104014,99677
103961,99638
103854,99616
103696,99555
103409,99421
103181,99288
102912,99148
102789,99150
102538,99056
102355,98926
102145,98833
101971,98703
101870,98721
101832,98719
101672,98624
101537,98601
101439,98465
101431,98567
101433,98535
101315,98455
101299,98445
101201,98390
101232,98460
101288,98470
101252,98436
101145,98375
101163,98379
101244,98437
101269,98496
101219,98414
101231,98426
101255,98454
101318,98493
101377,98523
101324,98524
101355,98514
101394,98548
101451,98566
101552,98634
101496,98590
101524,98615
101592,98633
101645,98705
101693,98670
101660,98641
101685,98679
101724,98676
101800,98761
101831,98707
101807,98773
101824,98681
101807,98715
101902,98811
101920,98805
101896,98755
101866,98744
101912,98748
101980,98781
101977,98830
101929,98778
101958,98785
101963,98806
102043,98848
102117,98906
102051,98868
102064,98820
102147,98885
102189,98897
102247,98964
102216,98928
102211,98915
102236,98875
102305,99013
102284,98949
102268,98983
102239,98911
102258,98934
102307,98966
102305,98924
102277,98982
102207,98912
102235,98907
102298,98945
102273,98990
102203,98913
102203,98866
102173,98918
102202,98931
102223,98942
102206,98897
102159,98873
102165,98842
102196,98928
102227,98926
102163,98897
102111,98810
102173,98916
102213,98912
102227,98913
102226,98928
102193,98848
102230,98924
102251,98952
102283,98955
102253,98911
102253,98888
102299,98988
102351,98965
102426,99013
102386,99001
102350,98966
102441,99005
102487,99036
102544,99050
102513,99074
102490,99017
102557,99022
102665,99106
102667,99121
102651,99129
102632,99043
102706,99124
102803,99204
102815,99168
102828,99185
102783,99145
102875,99181
102938,99258
102942,99256
102956,99263
102897,99184
102991,99268
103034,99296
103080,99294
103053,99300
103064,99238
103128,99325
103144,99338
103216,99366
103191,99329
103149,99317
103263,99371
103286,99401
103326,99427
103289,99391
103295,99352
103336,99431
103389,99468
103436,99441
103403,99466
103387,99382
103428,99452
103501,99501
103497,99461
103460,99449
103476,99460
103482,99424
103541,99499
103563,99494
103562,99526
103505,99446
103582,99507
103593,99556
103650,99555
103645,99539
103590,99500
103677,99559
103665,99579
103708,99562
103685,99537
103683,99524
103717,99538
103774,99652
103748,99558
103742,99591
103687,99532
103791,99574
103809,99644
103815,99598
103756,99587
103757,99545
103806,99600
103856,99647
103816,99660
103816,99605
103857,99567
103865,99632
103897,99683
103870,99641
103918,99614
103873,99622
103918,99621
104008,99712
103959,99687
103965,99648
103908,99614
103987,99661
104014,99731
103997,99649
103976,99698
103940,99624
104014,99700
104072,99756
104027,99706
104061,99686
104047,99694
104108,99694
104169,99771
104094,99748
104132,99800
104079,99678
104217,99767
104250,99798
104225,99756
104258,99800
104169,99759
104288,99810
104311,99841
104305,99821
104284,99796
104294,99793
104331,99807
104405,99880
104361,99826
104332,99817
104213,99737
104257,99766
104127,99759
103976,99605
103729,99519
103438,99371
103246,99276
103012,99221
102779,99099
102519,99004
102273,98861
102212,98840
102065,98818
101913,98736
101777,98654
101638,98527
101602,98562
101573,98554
101496,98520
101409,98463
101319,98428
101337,98459
101365,98439
101292,98442
101258,98416
101213,98375
101274,98411
101258,98445
101254,98415
101276,98444
101243,98393
101321,98453
101322,98483
101360,98495
101375,98500
101348,98479
101454,98547
101504,98573
101511,98560
101549,98539
101531,98548
101594,98609
101669,98628
101676,98667
101656,98631
101699,98607
101783,98713
101805,98735
101819,98734
101788,98684
101817,98673
101850,98693
101916,98797
101869,98768
101895,98718
101853,98669
101917,98754
101987,98766
101940,98792
101925,98727
101962,98723
102034,98779
102053,98836
102083,98834
102066,98792
102045,98817
102144,98858
102202,98888
102178,98886
102180,98826
102184,98827
102280,98910
102341,98940
102297,98899
102303,98890
102226,98876
102283,98952
102350,98962
102280,98922
102253,98840
102260,98894
102330,98910
102316,98934
102320,98926
102251,98913
102239,98819
102286,98900
102309,98936
102260,98870
102269,98876
102207,98828
102259,98915
102287,98907
102262,98916
102244,98877
102209,98795
102252,98896
102314,98923
102302,98896
102269,98904
102250,98848
102326,98912
102322,98953
102299,98909
102280,98905
102320,98881
102395,98964
102444,98997
102404,98934
102408,98920
102379,98948
102492,99016
102522,99001
102539,99015
102507,99013
102554,98967
102621,99051
102629,99095
102653,99073
102614,99071
102670,99043
102741,99124
102785,99161
102841,99163
102817,99118
102797,99082
102873,99170
102937,99196
102930,99173
102904,99194
102916,99180
103016,99198
103071,99289
103037,99213
103034,99236
103059,99243
103133,99275
103133,99259
103166,99296
103155,99267
103153,99268
103247,99345
103251,99360
103214,99367
103222,99291
103261,99294
103346,99361
103350,99416
103385,99403
103343,99336
103380,99341
103428,99444
103424,99406
103443,99429
103371,99365
103410,99368
103526,99424
103487,99467
103500,99414
103497,99437
103513,99434
103556,99482
103591,99469
103599,99486
103525,99432
103556,99426
103643,99494
103627,99534
103628,99458
103621,99470
103589,99454
103693,99550
103688,99546
103690,99490
103644,99497
103680,99483
103760,99575
103746,99558
103726,99542
103713,99471
103713,99521
103785,99526
103821,99614
103753,99560
103790,99511
103739,99537
103826,99587
103903,99619
103835,99600
103819,99542
103830,99532
103916,99607
103883,99645
103883,99583
103916,99586
103876,99608
103951,99639
103992,99638
103980,99645
103909,99613
103939,99633
103991,99652
104044,99686
103978,99666
103959,99604
104004,99653
104035,99672
104089,99702
104047,99672
104033,99639
104042,99643
104143,99716
104113,99705
104115,99715
104086,99678
104139,99671
104184,99773
104208,99730
104201,99760
104116,99688
104221,99752
104259,99782
104273,99774
104258,99745
104233,99775
104225,99713
104333,99795
104304,99792
104309,99762
104181,99754
104187,99709
104147,99689
104026,99636
103771,99542
103512,99346
103346,99297
103072,99230
102864,99121
102609,98972
102322,98828
102220,98775
102088,98775
101913,98654
101765,98633
101625,98507
101580,98474
101534,98519
101448,98434
101374,98453
101280,98349
101227,98362
101257,98402
101216,98345
101174,98356
101131,98304
101113,98307
101156,98346
101115,98362
101118,98321
101142,98327
101140,98318
101230,98407
101189,98396
101231,98402
101164,98340
101287,98432
101333,98477
101339,98424
101354,98435
101313,98406
101426,98482
101438,98516
101489,98539
101473,98494
101473,98498
101525,98525
101611,98570
101615,98587
101586,98592
101582,98525
101606,98532
101679,98641
101677,98596
101656,98614
101584,98560
101651,98587
101680,98620
101698,98641
101662,98639
101619,98549
101713,98624
101731,98634
101745,98646
101721,98655
101696,98607
101816,98677
101858,98739
101861,98732
101862,98703
101888,98691
101938,98714
101935,98781
101982,98772
101942,98752
101924,98703
101953,98701
102001,98780
101992,98724
101992,98740
101916,98721
101977,98756
101995,98758
101989,98731
101992,98749
101939,98725
101985,98732
102027,98768
102015,98754
102020,98767
101923,98689
101992,98764
102060,98756
102004,98760
101996,98772
101934,98700
102024,98782
102054,98781
102056,98746
102023,98771
102005,98760
102019,98777
102102,98796
102068,98815
102056,98781
102067,98764
102130,98782
102163,98870
102140,98793
102187,98829
102173,98757
102204,98837
102272,98891
102313,98906
102254,98908
102247,98806
102295,98882
102413,98979
102348,98934
102376,98918
102396,98920
102472,98940
102533,98997
102502,98985
102513,99001
102492,98965
102589,98987
102654,99067
102646,99056
102637,99052
102602,98981
102731,99056
102743,99144
102743,99072
102741,99091
102673,99068
102796,99080
102895,99184
102789,99110
102861,99111
102801,99059
102897,99146
102961,99202
102915,99149
102955,99196
102869,99133
102967,99158
103034,99238
103020,99206
103023,99176
102966,99190
103057,99205
103128,99278
103056,99228
103113,99274
103055,99230
103124,99230
103173,99295
103153,99249
103186,99269
103127,99234
103233,99312
103237,99284
103251,99332
103228,99327
103204,99267
103258,99309
103329,99331
103273,99373
103292,99316
103281,99311
103361,99359
103334,99372
103373,99357
103364,99368
103301,99334
103371,99401
103413,99430
103409,99372
103428,99405
103374,99312
103457,99414
103470,99447
103485,99421
103478,99402
103453,99411
103485,99401
103569,99469
103531,99457
103541,99447
103513,99379
103593,99479
103592,99465
103625,99491
103596,99437
103550,99431
103605,99495
103648,99493
103656,99498
103622,99469
103596,99405
103688,99482
103673,99541
103691,99483
103723,99512
103675,99429
103793,99521
103749,99546
103760,99557
103716,99509
103765,99488
103804,99566
103821,99594
103809,99560
103793,99508
103801,99545
103847,99548
103908,99626
103889,99558
103873,99576
103854,99575
103960,99610
103989,99648
103981,99629
103951,99606
103967,99568
104046,99677
104066,99655
104076,99679
104054,99655
104056,99596
104139,99673
104135,99711
104145,99698
104131,99676
104048,99636
104055,99653
103990,99614
103798,99512
103568,99407
103298,99244
103175,99197
102933,99122
102623,98964
102409,98866
102182,98754
102092,98743
101949,98679
101760,98583
101642,98538
101538,98434
101471,98464
101436,98431
101362,98363
101258,98356
101197,98298
101234,98352
101190,98350
101162,98309
101077,98281
101051,98292
101081,98288
101137,98295
101110,98310
101038,98269
101092,98296
101172,98331
101187,98353
101195,98374
101145,98331
101200,98350
101283,98418
101342,98437
101327,98424
101320,98417
101355,98399
101451,98502
101464,98499
101476,98468
101478,98494
101462,98455
101591,98539
101582,98598
101603,98550
101584,98545
101616,98557
101664,98636
101673,98568
101664,98585
101644,98576
101646,98521
101718,98627
101686,98608
101697,98593
101699,98586
101666,98578
101748,98653
101791,98665
101745,98614
101805,98611
101812,98659
101905,98681
101901,98753
101890,98711
101936,98689
101901,98669
101998,98716
102037,98766
102004,98742
101948,98688
101991,98712
102008,98765
102046,98753
102015,98744
101967,98729
101965,98667
102037,98755
102007,98777
102002,98727
101972,98687
101973,98672
101999,98755
102019,98756
101980,98714
101949,98706
101988,98697
102002,98746
102010,98757
101973,98699
101955,98702
101983,98698
102002,98755
102032,98741
101990,98734
101987,98710
101963,98688
102057,98760
102078,98750
102036,98739
102019,98714
102022,98714
102122,98794
102132,98797
102102,98764
102095,98760
102129,98759
102178,98839
102222,98816
102176,98814
102204,98804
102201,98793
102287,98852
102310,98875
102321,98888
102313,98844
102335,98845
102406,98916
102397,98940
102421,98925
102438,98902
102437,98914
102535,98961
102515,98959
102527,98972
102526,98934
102575,98958
102644,99006
102630,99016
102613,98995
102593,98967
102651,99002
102731,99056
102731,99065
102733,99027
102700,99029
102743,99065
102822,99108
102805,99092
102800,99068
102783,99048
102809,99059
102891,99120
102904,99127
102890,99098
102838,99088
102879,99091
102959,99143
102969,99153
102953,99145
102934,99118
102942,99116
102990,99203
103011,99171
102992,99189
102965,99118
102982,99148
103056,99228
103106,99201
103055,99194
103036,99156
103062,99187
103130,99250
103138,99232
103097,99209
103103,99205
103156,99234
103197,99260
103207,99259
103158,99235
103144,99180
103186,99232
103281,99293
103250,99278
103215,99247
103191,99224
103240,99264
103311,99302
103302,99294
103249,99272
103242,99236
103268,99297
103364,99329
103325,99315
103345,99306
103300,99256
103331,99324
103394,99366
103379,99318
103378,99345
103329,99290
103400,99339
103459,99365
103433,99372
103418,99355
103370,99303
103422,99347
103470,99391
103445,99354
103449,99353
103410,99304
103462,99356
103491,99395
103503,99396
103463,99370
103439,99347
103499,99381
103577,99439
103543,99415
103548,99417
103490,99381
103596,99411
103652,99446
103658,99468
103620,99420
103604,99415
103639,99448
103726,99482
103725,99483
103720,99472
103663,99438
103755,99476
103771,99512
103733,99484
103681,99432
103550,99383
103520,99351
103404,99319
103194,99199
102957,99085
102709,98970
102520,98867
102348,98828
102133,98707
101925,98628
101710,98513
101630,98476
101508,98470
101386,98405
101311,98336
101161,98265
101134,98270
101092,98288
101027,98216
100963,98185
100837,98106
100886,98142
100880,98180
100818,98145
100769,98110
100694,98040
100749,98118
100768,98155
100763,98118
100738,98101
100670,98062
100751,98104
100800,98161
100812,98145
100799,98153
100750,98114
100845,98174
100892,98201
100904,98213
100875,98180
100868,98153
100932,98234
101025,98258
100962,98240
100989,98243
100956,98190
101028,98269
101085,98293
101067,98279
101022,98265
100962,98221
101048,98277
101099,98301
101079,98306
101043,98287
100963,98234
101056,98279
101084,98318
101087,98302
101066,98308
101017,98228
101096,98288
101173,98360
101136,98329
101146,98332
101138,98300
101230,98370
101266,98406
101258,98396
101244,98389
101225,98349
101295,98392
101327,98439
101300,98411
101257,98399
101236,98354
101283,98396
101330,98420
101290,98397
101264,98390
101232,98346
101264,98376
101311,98419
101254,98389
101280,98396
101192,98347
101301,98377
101277,98399
101289,98391
101235,98376
101237,98314
101247,98367
101298,98382
101274,98366
101242,98373
101189,98311
101287,98358
101251,98381
101281,98409
101262,98371
101221,98321
101287,98376
101332,98432
101326,98400
101301,98391
101278,98358
101373,98432
101402,98435
101371,98440
101414,98454
101421,98424
101451,98497
101500,98501
101498,98477
101471,98455
101512,98475
101532,98502
101638,98560
101622,98563
101600,98515
101625,98546
101664,98569
101734,98610
101759,98596
101704,98581
101727,98551
101825,98655
101838,98630
101827,98636
101846,98641
101847,98619
101965,98688
101955,98680
101982,98694
101978,98690
101965,98671
102046,98743
102107,98752
102104,98730
102115,98749
102083,98707
102166,98762
102187,98830
102175,98796
102215,98814
102171,98741
102279,98851
102281,98843
102290,98851
102308,98809
102263,98816
102366,98827
102382,98934
102376,98917
102375,98868
102388,98854
102467,98925
102498,98903
102474,98912
102437,98884
102450,98913
102549,98911
102554,98986
102495,98961
102522,98935
102501,98946
102572,98951
102631,99009
102579,98983
102586,98943
102582,98939
102665,99000
102656,99004
102635,99001
102631,98991
102605,98981
102720,99033
102751,99043
102704,99037
102673,99010
102678,98986
102738,99024
102777,99043
102757,99018
102755,99036
102735,99016
102816,99066
102841,99098
102822,99078
102818,99064
102793,99060
102880,99069
102939,99110
102865,99087
102836,99072
102834,99083
102888,99114
102982,99128
102911,99147
102898,99075
102890,99099
103017,99148
102979,99183
102964,99113
102978,99150
102974,99115
103011,99160
103040,99205
103012,99157
103041,99112
103025,99104
103119,99216
103083,99179
103103,99200
103055,99173
103077,99128
103176,99236
103137,99216
103172,99227
103152,99211
103122,99193
103213,99219
103203,99300
103202,99244
103220,99241
103211,99230
103289,99296
103292,99285
103301,99285
103294,99276
103268,99254
103389,99310
103384,99326
103401,99322
103332,99279
103406,99306
103450,99345
103455,99383
103409,99332
103359,99278
103281,99275
103196,99223
103121,99197
102853,99069
102589,98902
102370,98813
102200,98712
102016,98694
101743,98539
101551,98429
101412,98335
101323,98367
101224,98254
101082,98238
100967,98167
100871,98116
100883,98110
100771,98093
100705,98049
100587,98001
100587,97988
100597,97994
100524,97983
100502,97952
100405,97902
100417,97907
100464,97984
100455,97951
100422,97976
100355,97927
100400,97898
100447,97994
100463,97945
100472,97968
100426,97914
100474,97974
100499,98029
100583,98033
100534,98015
100545,97986
100572,97998
100607,98078
100649,98110
100620,98073
100631,98059
100650,98055
100716,98111
100737,98173
100685,98112
100692,98093
100685,98064
100764,98126
100730,98123
100741,98093
100698,98058
100747,98118
100742,98154
100762,98149
100733,98108
100682,98064
100759,98090
100815,98191
100820,98149
100800,98125
100785,98132
100822,98162
100943,98240
100934,98211
100939,98237
100932,98179
100938,98215
101017,98289
101031,98274
101025,98247
100976,98244
101001,98226
101074,98326
101116,98278
101071,98280
101019,98247
101065,98229
101106,98313
101089,98261
101065,98276
101030,98259
101050,98248
101128,98288
101092,98281
101079,98286
101044,98215
101066,98230
101099,98331
101128,98278
101072,98292
101050,98244
101105,98264
101124,98319
101169,98334
101138,98296
101093,98248
101134,98268
101188,98363
101206,98324
101195,98315
101182,98260
101197,98330
101261,98400
101265,98368
101234,98333
101221,98357
101265,98351
101359,98449
101350,98423
101362,98394
101297,98319
101405,98395
101421,98472
101431,98457
101470,98467
101407,98405
101460,98437
101572,98477
101562,98507
101577,98517
101532,98440
101616,98506
101624,98555
101648,98545
101676,98541
101640,98496
101710,98596
101787,98576
101757,98577
101769,98583
101706,98547
101809,98591
101843,98658
101836,98638
101893,98659
101829,98593
101908,98632
101976,98719
101963,98692
101979,98702
101952,98671
102032,98703
102033,98708
102066,98737
102063,98746
102074,98679
102115,98756
102132,98756
102144,98781
102147,98757
102115,98736
102198,98799
102190,98817
102214,98808
102243,98813
102189,98757
102282,98812
102289,98880
102272,98814
102327,98835
102264,98809
102339,98859
102398,98859
102380,98872
102347,98851
102346,98819
102349,98854
102434,98892
102396,98878
102442,98888
102362,98839
102460,98897
102512,98950
102460,98925
102469,98879
102400,98891
102497,98900
102519,98937
102495,98911
102525,98941
102454,98843
102549,98958
102605,98994
102577,98940
102552,98982
102528,98909
102584,98956
102628,98971
102600,98990
102623,98972
102539,98946
102622,99026
102739,99008
102696,99027
102684,99028
102676,98949
102756,99056
102810,99077
102783,99065
102802,99072
102771,99006
102802,99077
102899,99132
102862,99081
102888,99077
102824,99041
102907,99111
102939,99148
102931,99125
102906,99101
102884,99066
102972,99134
102997,99157
102970,99133
102950,99128
102941,99110
103017,99157
103067,99202
103042,99188
103066,99182
103036,99138
103096,99208
103155,99210
103085,99219
103131,99230
103097,99200
103169,99187
103275,99259
103234,99236
103175,99236
103205,99186
103272,99296
103315,99263
103254,99263
103203,99243
103109,99142
103089,99178
102945,99092
102754,99005
102512,98853
102244,98756
102073,98666
101878,98607
101675,98472
101524,98424
101276,98304
101232,98300
101121,98277
100974,98161
100926,98177
100812,98067
100790,98094
100758,98126
100665,98061
100614,97977
100520,97967
100547,97967
100511,98007
100471,97972
100419,97937
100385,97921
100428,97945
100422,97992
100400,97925
100395,97940
100359,97921
100416,97972
100487,97994
100421,97984
100466,97957
100441,97957
100543,98035
100599,98065
100590,98073
100601,98025
100583,98034
100697,98088
100707,98160
100700,98088
100723,98146
100745,98081
100809,98166
100813,98203
100793,98161
100774,98171
100787,98148
100848,98182
100851,98189
100832,98203
100838,98177
100780,98134
100905,98224
100891,98195
100875,98193
100888,98207
100861,98203
100949,98216
100996,98305
100977,98257
101017,98289
100985,98254
101080,98281
101167,98378
101149,98330
101161,98303
101157,98287
101237,98389
101278,98361
101249,98375
101239,98337
101195,98320
101268,98390
101315,98401
101253,98387
101238,98344
101182,98331
101288,98401
101345,98382
101296,98414
101252,98328
101242,98335
101303,98405
101312,98382
101287,98407
101268,98323
101238,98350
101284,98407
101317,98385
101296,98397
101267,98377
101262,98344
101318,98364
101344,98434
101274,98358
101294,98377
101245,98340
101352,98411
101395,98419
101335,98402
101375,98407
101362,98403
101453,98461
101473,98504
101430,98483
101481,98451
101474,98458
101562,98515
101575,98537
101582,98496
101592,98525
101592,98504
101730,98551
101726,98620
101717,98550
101747,98586
101756,98584
101834,98624
101889,98657
101862,98632
101828,98650
101870,98636
101976,98676
101991,98742
102012,98705
101950,98676
101995,98677
102086,98752
102086,98754
102121,98727
102095,98737
102140,98724
102220,98785
102253,98819
102220,98796
102247,98806
102256,98785
102296,98857
102357,98847
102376,98886
102347,98807
102373,98857
102436,98917
102481,98908
102472,98869
102392,98904
102427,98867
102527,98971
102526,98946
102524,98951
102519,98880
102525,98906
102600,98955
102623,99016
102566,98971
102558,98940
102595,98942
102644,98998
102664,99001
102644,98964
102602,98932
102620,98957
102691,99012
102736,99013
102733,99029
102679,98935
102721,99001
102769,99046
102813,99035
102737,99043
102730,98969
102753,99006
102794,99071
102827,99059
102816,99038
102759,99020
102825,99032
102832,99084
102887,99070
102830,99087
102835,99058
102801,99057
102877,99125
102897,99074
102920,99076
102854,99091
102877,99077
102955,99112
102961,99161
102926,99083
102951,99114
102966,99103
102969,99156
103015,99119
103013,99144
102963,99070
103011,99129
103038,99152
103092,99177
103084,99137
103006,99119
103071,99138
103100,99182
103145,99207
103130,99153
103069,99160
103118,99180
103171,99261
103164,99213
103143,99216
103169,99175
103173,99202
103260,99247
103243,99265
103242,99216
103225,99219
103268,99234
103349,99304
103340,99301
103326,99244
103273,99243
103310,99271
103331,99293
103220,99242
103099,99155
102950,99029
102780,99002
102653,98928
102427,98850
102146,98675
101938,98580
101756,98496
101618,98451
101466,98403
101300,98282
101098,98208
101048,98196
101028,98186
100924,98153
100829,98133
100775,98061
100706,98040
100755,98079
100648,98074
100567,97974
100537,97959
100511,97963
100552,97992
100523,97974
100494,98009
100471,97954
100474,97985
100532,98010
100520,98023
100545,98029
100525,97966
100541,98017
100623,98102
100592,98054
100621,98046
100577,98001
100680,98075
100720,98097
100722,98114
100778,98107
100709,98092
100804,98152
100887,98184
100870,98187
100847,98154
100797,98127
100847,98173
100885,98236
100883,98190
100909,98213
100808,98159
100904,98197
100892,98218
100913,98195
100848,98214
100859,98191
100857,98183
100978,98234
100952,98245
100896,98192
100905,98211
100992,98213
101015,98256
101058,98268
101021,98306
101038,98286
101069,98279
101140,98360
101160,98335
101154,98285
101135,98268
101194,98345
101221,98354
101244,98374
101211,98333
101143,98292
101249,98358
101256,98403
101258,98365
101187,98361
101188,98301
101269,98394
101297,98388
101293,98375
101249,98351
101246,98337
101249,98353
101279,98425
101253,98366
101237,98358
101210,98307
101290,98385
101270,98392
101260,98373
101267,98411
101212,98319
101293,98353
101301,98422
101285,98378
101269,98359
101277,98357
101343,98394
101362,98443
101326,98390
101365,98391
101306,98378
101419,98457
101441,98430
101440,98468
101410,98429
101411,98390
101471,98461
101532,98551
101491,98514
101575,98487
101540,98451
101618,98538
101661,98606
101662,98544
101712,98605
101679,98541
101751,98602
101794,98633
101811,98573
101780,98649
101811,98607
101887,98639
101940,98685
101945,98695
101944,98694
101944,98640
101983,98695
102052,98737
102058,98724
102047,98748
102050,98682
102108,98741
102154,98787
102130,98768
102186,98781
102128,98754
102218,98805
102261,98808
102246,98826
102279,98821
102252,98773
102305,98842
102365,98876
102376,98863
102331,98847
102349,98845
102413,98896
102417,98914
102397,98923
102465,98894
102433,98872
102465,98923
102551,98966
102529,98930
102491,98891
102508,98890
102588,98981
102578,99002
102605,98951
102585,98964
102540,98916
102678,99010
102674,98999
102692,98988
102667,98988
102645,98949
102737,99028
102745,99012
102777,99019
102724,99003
102703,98980
102786,99043
102817,99077
102815,99084
102777,99019
102805,99014
102840,99079
102854,99098
102862,99054
102869,99091
102810,99052
102940,99112
102924,99100
102936,99116
102905,99042
102887,99076
102958,99155
102967,99135
102953,99115
102927,99118
102916,99067
103026,99151
103020,99220
102986,99113
103003,99132
102979,99091
103075,99182
103119,99182
103031,99155
103081,99169
103042,99139
103144,99191
103163,99255
103104,99184
103155,99190
103124,99178
103202,99256
103180,99230
103214,99199
103158,99248
103161,99185
103255,99267
103301,99264
103228,99290
103284,99264
103238,99236
103358,99273
103399,99323
103359,99324
103378,99344
103355,99292
103473,99320
103457,99374
103466,99375
103428,99304
103414,99278
103391,99346
103333,99275
103214,99206
102987,99126
102780,98999
102637,98939
102390,98838
102150,98670
101879,98621
101702,98465
101581,98460
101410,98387
101288,98263
101085,98256
100987,98185
100959,98171
100900,98186
100797,98092
100720,98093
100649,98020
100641,98041
100639,98051
100561,97961
100501,98008
100435,97922
100489,97976
100507,98002
100420,97967
100430,97960
100397,97942
100440,97968
100480,97983
100473,98008
100440,97931
100437,97964
100508,98045
100535,98033
100559,98009
100498,97995
100555,98028
100606,98090
100600,98070
100616,98070
100588,98014
100627,98036
100643,98095
100692,98137
100691,98151
100688,98040
100670,98065
100694,98127
100738,98106
100679,98095
100664,98101
100671,98072
100700,98098
100752,98138
100684,98139
100696,98101
100650,98064
100743,98134
100788,98152
100756,98181
100774,98121
100783,98143
100847,98182
100914,98245
100877,98188
100836,98190
100905,98196
100984,98254
101009,98299
100971,98210
100973,98244
100979,98222
101060,98276
101056,98317
101034,98242
100972,98239
101026,98244
101091,98294
101068,98314
101021,98285
101023,98285
101024,98225
101067,98283
101117,98315
101043,98299
100996,98252
101025,98260
101046,98280
101069,98277
101043,98302
101023,98252
100999,98239
101090,98288
101047,98313
101016,98238
100985,98217
101021,98233
101052,98281
101091,98283
101016,98291
101015,98264
101025,98246
101068,98314
101091,98337
101106,98278
101072,98229
101071,98279
101139,98363
101158,98331
101174,98349
101138,98304
101169,98332
101274,98398
101239,98381
