11111,11111
0,0
15991,22469
16392,22977
16919,23633
17254,24190
17683,24687
17970,25041
18036,25191
18045,25174
17874,24964
17518,24430
17097,23802
16640,23178
16062,22450
15621,21760
15043,21101
14634,20497
14312,19909
13829,19437
13441,18811
13231,18594
13100,18406
13059,18369
13286,18739
13524,19179
14273,20117
15134,21362
16267,22870
17775,24851
19317,27035
21129,29231
22838,31450
24527,33581
26292,35729
28187,38165
30127,40549
32305,43276
34541,46138
36769,48844
38989,51516
40845,53696
42535,55688
44309,57726
46210,60007
48613,62726
51087,65665
53946,68657
56765,71637
59192,74091
61302,75861
62742,76947
63762,77396
64319,77302
64758,76886
65163,76727
65704,77043
66484,77791
67300,78470
67870,79007
68261,79252
68483,79371
68470,79265
68355,79076
68254,78927
68253,78882
68590,79225
69323,79866
70318,80806
71626,81944
73004,83024
74568,84558
76408,86429
78284,88138
80274,89728
82161,91179
84078,92616
86154,94009
88172,95180
90015,96293
91593,97215
92970,98152
94129,98722
95141,99340
95929,99782
96701,100157
97366,100678
97989,101097
98452,101424
98960,101793
99531,102041
100258,102533
100932,102926
101499,103202
102112,103510
102594,103744
103174,104042
103645,104322
103978,104416
104282,104591
104505,104641
104881,104832
105093,104961
105270,105011
105392,105066
105519,105091
105729,105235
105960,105382
106013,105416
106106,105390
106199,105435
106348,105555
106496,105652
106554,105635
106609,105650
106612,105656
106761,105721
106842,105799
106894,105798
106941,105786
106923,105797
107088,105842
107205,105919
107217,105913
107189,105829
107230,105860
107407,105409
107527,105267
107524,105285
107860,105338
107732,105220
107758,105233
108019,105307
107969,105224
107893,105161
107903,105216
107977,105152
108112,105186
108069,105151
108046,105118
107895,104992
107965,105077
108110,105158
108065,105121
108011,105052
107898,104946
107964,105016
108110,105098
108041,105066
107986,104978
107832,104867
107940,104954
108004,105006
107986,104932
107900,104889
107753,104741
107867,104860
107912,104899
107886,104798
107798,104772
107663,104646
107736,104734
107860,104796
107827,104745
107717,104672
107586,104567
107712,104673
107801,104728
107779,104683
107672,104625
107567,104496
107659,104605
107730,104657
107732,104651
107689,104596
107522,104456
107646,104581
107708,104620
107729,104601
107645,104539
107496,104409
107636,104565
107722,104607
107650,104545
107630,104495
107494,104402
107665,104517
107728,104618
107696,104565
107672,104496
107521,104424
107663,104523
107818,104616
107760,104567
107710,104533
107585,104474
107725,104590
107848,104677
107784,104638
107739,104593
107665,104521
107831,104663
107944,104774
107858,104716
107827,104625
107757,104599
107859,104714
107940,104779
107966,104768
107878,104693
107811,104636
107891,104747
108013,104808
108029,104786
107888,104689
107814,104655
107946,104759
108053,104822
108019,104790
107911,104674
107825,104640
108023,104782
108056,104825
108029,104742
107948,104678
107868,104636
108025,104744
108062,104771
108005,104738
107922,104655
107872,104569
108010,104740
108077,104756
108036,104676
107917,104633
107834,104570
107979,104690
108076,104748
108032,104726
107913,104583
107837,104587
108010,104711
108083,104751
108029,104657
107908,104585
107859,104547
108008,104675
108052,104728
108007,104678
107908,104564
107891,104546
107990,104665
108073,104725
108036,104662
107906,104545
107899,104514
108034,104701
108098,104699
108033,104632
107979,104558
107902,104574
108031,104662
108111,104726
108044,104643
107920,104584
107907,104548
108098,104687
108114,104736
108027,104622
107962,104571
107923,104558
108102,104666
108140,104685
108075,104616
107969,104527
107948,104509
108046,104663
108118,104668
108104,104631
107952,104488
107954,104516
108102,104652
108135,104644
108108,104611
107948,104477
107974,104497
108080,104673
108140,104673
108084,104581
107987,104476
107981,104535
108117,104635
108172,104654
108109,104610
107996,104486
107996,104538
108159,104668
108189,104651
108104,104597
108003,104486
108002,104518
108129,104647
108159,104636
108132,104570
108010,104479
108027,104503
108174,104639
108190,104636
108157,104571
108012,104500
108038,104510
108196,104660
108183,104626
108156,104568
108010,104484
108026,104480
108212,104647
108200,104619
108165,104547
108027,104452
108081,104517
108181,104641
108191,104593
108149,104529
108047,104460
108060,104487
108222,104623
108234,104612
108186,104550
108033,104423
108059,104474
108204,104553
108238,104577
108137,104534
108004,104364
108098,104492
108181,104583
108231,104564
108142,104494
108050,104377
108063,104467
108188,104554
108196,104511
108161,104497
108008,104333
108099,104439
108224,104546
108214,104536
108156,104465
108043,104358
108099,104439
108258,104569
108195,104529
108153,104420
108016,104338
108107,104445
108240,104525
108200,104486
108188,104446
108056,104337
108106,104436
108238,104531
108221,104462
108171,104448
108006,104272
108129,104424
108252,104518
108198,104478
108147,104443
108043,104300
108111,104442
108236,104488
108172,104468
108172,104448
108029,104335
108141,104421
108240,104504
108177,104452
108184,104450
108008,104279
108149,104452
108286,104517
108205,104471
108162,104375
108032,104306
108169,104402
108248,104468
108258,104440
108178,104404
108030,104285
108158,104416
108277,104450
108266,104450
108176,104360
108070,104298
108184,104359
108235,104448
108212,104394
108161,104370
108056,104252
108152,104367
108228,104427
108235,104373
108127,104265
108048,104202
108142,104339
108199,104342
108188,104315
108142,104274
108009,104179
108122,104331
108250,104352
108181,104348
108109,104272
107969,104194
108160,104323
108207,104380
108181,104302
108151,104273
108010,104200
108134,104330
108259,104394
108200,104356
108117,104231
108021,104191
108148,104301
108256,104424
108182,104336
108137,104241
108050,104239
108164,104326
108269,104430
108211,104332
108138,104244
108074,104219
108171,104348
108275,104356
108231,104329
108150,104239
108050,104178
108209,104308
108267,104350
108199,104290
108142,104202
108049,104145
108201,104281
108254,104318
108188,104271
108099,104201
108035,104151
108159,104257
108225,104312
108190,104247
108071,104154
108019,104105
108132,104232
108223,104313
108142,104203
108052,104119
108015,104093
108108,104206
108198,104274
108110,104181
108023,104056
107992,104068
108096,104190
108191,104196
108105,104141
107973,104032
107954,103996
108091,104163
108130,104157
108102,104107
107986,103996
107944,103949
108061,104138
108096,104166
108053,104067
108013,104010
107923,103976
108079,104081
108120,104141
108078,104059
107947,103982
107950,103962
108086,104086
108150,104157
108047,104049
107973,103959
107947,103973
108073,104092
108129,104105
108095,104046
107943,103989
107916,103955
108108,104100
108102,104148
108046,104050
107965,103962
107938,103966
108081,104091
108144,104099
108069,104054
107954,103919
107945,103969
108116,104097
108120,104095
108053,104040
107980,103906
107940,103941
108084,104106
108095,104080
108057,103997
107923,103886
107955,103946
108101,104083
108079,104054
108029,103984
107902,103863
107918,103920
108066,104054
108070,104039
108010,103966
107890,103858
107900,103913
108076,104012
108049,104001
108000,103921
107858,103828
107874,103887
108005,104015
107987,103921
107978,103912
107859,103774
107870,103850
108031,103975
108000,103924
107917,103866
107808,103766
107818,103812
108020,103962
107944,103907
107886,103823
107818,103723
107824,103801
107940,103910
107946,103848
107925,103822
107747,103644
107804,103750
107936,103846
107949,103861
107873,103796
107741,103630
107809,103717
107918,103787
107949,103842
107887,103764
107721,103637
107770,103703
107921,103807
107932,103826
107866,103732
107733,103648
107770,103697
107911,103792
107945,103822
107869,103752
107738,103602
107828,103743
107883,103833
107932,103799
107895,103798
107738,103645
107851,103787
107975,103886
107971,103894
107908,103829
107824,103722
107873,103862
108020,103942
108025,103927
107943,103875
107861,103774
107959,103898
108088,103983
108072,103985
108024,103913
107918,103805
108023,103922
108141,104029
108114,103972
108075,103951
107939,103842
108045,103938
108147,104053
108126,103966
108107,103931
107957,103830
108054,103925
108151,104016
108162,103987
108062,103939
107936,103788
108053,103950
108161,104051
108124,103956
108090,103921
107942,103831
108111,103941
108222,104053
108186,104003
108112,103972
107999,103845
108145,103987
108252,104081
108194,104038
108125,103939
108036,103907
108162,103986
108280,104046
108226,104020
108114,103926
108041,103868
108144,103983
108267,104047
108190,103988
108120,103921
108003,103841
108158,103979
108228,104046
108188,103997
108134,103918
107998,103837
108155,103965
108242,104091
108195,104017
108114,103916
108059,103874
108156,103991
108287,104078
108244,104028
108137,103942
108076,103914
108210,104009
108303,104075
108264,104031
108202,103951
108137,103896
108211,104046
108346,104119
108312,104050
108218,103973
108120,103936
108276,104053
108336,104129
108286,104071
108210,103998
108147,103952
108281,104062
108362,104112
108336,104062
108222,104000
108160,103936
108333,104087
108381,104129
108343,104058
108264,104005
108158,103929
108322,104078
108379,104157
108341,104057
108270,103967
108185,103935
108306,104056
108390,104150
108348,104057
108253,103946
108153,103925
108324,104017
108409,104139
108313,104030
108254,103924
108172,103917
108340,104048
108442,104111
108332,104032
108224,103904
108195,103920
108282,104022
108375,104057
108308,103967
108237,103897
108161,103860
108291,104026
108386,104031
108305,103965
108208,103884
108186,103863
108348,104036
108375,104014
108290,103966
108172,103894
108137,103843
108375,104034
108329,104003
108254,103939
108169,103825
108155,103852
108326,104007
108326,103980
108314,103931
108157,103792
108169,103870
108311,103977
108305,103958
108273,103917
108161,103825
108129,103837
108276,103946
108338,103988
108251,103932
108166,103801
108141,103819
108288,103945
108322,103976
108250,103931
108165,103835
108144,103822
108330,103953
108355,103982
108294,103939
108159,103824
108154,103846
108282,103939
108338,104000
108279,103922
108141,103800
108143,103843
108296,103953
108338,103978
108224,103899
108163,103787
108180,103847
108318,103986
108331,103948
108282,103921
108150,103759
108198,103864
108351,103975
108352,103928
108293,103925
108195,103797
108196,103852
108347,103986
108327,103956
108301,103914
108178,103802
108201,103870
108346,103967
108331,103939
108292,103911
108178,103806
108222,103878
108336,103979
108383,103963
108300,103915
108199,103807
108242,103903
108320,103952
108408,104008
108308,103917
108202,103788
108269,103878
108357,103977
108361,103986
108322,103918
108210,103797
108254,103877
108408,103991
108388,103986
108332,103894
108235,103809
108247,103854
108365,103961
108427,103971
108336,103930
108222,103740
108274,103893
108388,103975
108388,103959
108320,103918
108204,103747
108299,103888
108382,103935
108388,103927
108320,103861
108156,103767
108289,103876
108362,103963
108368,103934
108295,103876
108180,103747
108295,103865
108389,103987
108365,103913
108328,103906
108171,103777
108308,103896
108417,103970
108393,103964
108326,103878
108221,103756
108302,103911
108397,103934
108408,103978
108340,103867
108228,103801
108294,103889
108427,103966
108402,103949
108362,103898
108208,103767
108349,103903
108448,104008
108390,103944
108378,103890
108231,103808
108333,103941
108457,103974
108402,103980
108350,103872
108251,103796
108394,103946
108454,103993
108418,103928
108365,103911
108232,103763
108369,103930
108457,104007
108419,103936
108348,103891
108261,103787
108355,103941
108462,104001
108429,103943
108332,103852
108263,103813
108365,103911
108443,103971
108426,103953
108328,103865
108241,103773
108387,103946
108436,103993
108424,103960
108331,103887
108226,103780
108376,103906
108418,103986
108401,103926
108366,103842
108253,103820
108382,103941
108473,103971
108466,103948
108319,103866
108258,103786
108371,103938
108464,103972
108421,103922
108338,103843
108272,103773
108420,103936
108456,103967
108445,103926
108337,103827
108240,103785
108435,103904
108483,103965
108434,103884
108361,103823
108285,103771
108447,103910
108499,103979
108458,103902
108337,103803
108284,103775
108432,103905
108499,103993
108456,103891
108349,103820
108302,103785
108440,103896
108466,103951
108438,103896
108373,103815
108267,103750
108398,103906
108468,103938
108455,103893
108355,103784
108255,103748
108422,103884
108474,103913
108433,103879
108335,103763
108284,103751
108420,103866
108504,103903
108412,103848
108321,103736
108274,103724
108409,103888
108478,103908
108405,103851
108294,103740
108265,103734
108437,103889
108458,103899
108389,103844
108316,103753
108241,103718
108419,103878
108465,103898
108425,103834
108287,103736
108259,103717
108426,103874
108466,103888
108384,103829
108279,103733
108252,103704
108425,103867
108431,103859
108396,103849
108299,103728
108281,103761
108409,103828
108477,103898
108420,103806
108297,103717
108291,103703
108465,103866
108474,103890
108432,103824
108310,103700
108322,103747
108423,103853
108455,103880
108412,103791
108299,103703
108278,103696
108470,103856
108437,103851
108401,103792
108259,103631
108305,103714
108404,103847
108458,103799
108388,103755
108246,103673
108278,103686
108435,103841
108423,103793
108366,103761
108293,103664
108295,103720
108399,103815
108480,103843
108367,103759
108276,103644
108297,103701
108453,103820
108448,103814
108389,103774
108271,103678
108303,103717
108424,103851
108467,103816
108401,103778
108277,103668
108329,103726
108488,103851
108432,103815
108360,103760
108238,103649
108324,103745
108453,103857
108465,103827
108383,103765
108263,103644
108373,103725
108493,103858
108444,103810
108376,103776
108268,103652
108340,103754
108505,103838
108419,103811
108375,103747
108276,103612
108365,103717
108473,103861
108447,103787
108389,103746
108266,103617
108314,103750
108467,103813
108464,103756
108384,103759
108238,103589
108291,103729
108470,103803
108441,103761
108370,103709
108225,103594
108343,103706
108414,103796
108452,103796
108369,103697
108241,103576
108316,103731
108436,103799
108420,103769
108408,103693
108228,103591
108326,103685
108469,103776
108423,103767
108346,103702
108255,103579
108340,103738
108438,103774
108442,103747
108371,103729
108238,103572
108334,103700
108453,103792
108402,103743
108357,103696
108235,103571
108372,103734
108481,103822
108435,103766
108347,103671
108247,103586
108385,103704
108458,103789
108450,103764
108371,103668
108252,103601
108374,103681
108472,103773
108418,103703
108381,103685
108209,103575
108357,103679
108439,103763
108426,103748
108340,103650
108228,103573
108327,103682
108428,103741
108413,103741
108364,103612
108170,103545
108323,103663
108437,103715
108446,103700
108338,103624
108208,103511
108336,103668
108439,103711
108414,103675
108321,103588
108228,103507
108331,103633
108444,103667
108375,103641
108305,103567
108194,103476
108344,103638
108408,103660
108345,103587
108301,103552
108165,103480
108280,103611
108396,103667
108362,103591
108275,103529
108208,103452
108290,103607
108384,103634
108372,103609
108253,103514
108157,103444
108302,103560
108394,103632
108318,103569
108251,103497
108114,103418
108283,103542
108337,103612
108340,103592
108208,103467
108164,103427
108282,103536
108345,103590
108339,103547
108237,103459
108145,103400
108287,103543
108354,103599
108296,103526
108208,103377
108143,103388
108250,103515
108401,103550
108278,103499
108186,103403
108147,103364
108311,103515
108366,103519
108288,103475
108197,103393
108139,103390
108315,103529
108325,103578
108285,103473
108213,103406
108153,103382
108309,103535
108350,103565
108322,103506
108176,103394
108157,103375
108329,103528
108361,103560
108272,103456
108217,103389
108162,103412
108323,103529
108359,103552
108285,103500
108210,103414
108141,103381
108342,103549
108365,103567
108324,103497
108182,103391
108197,103370
108298,103509
108393,103557
108285,103454
108193,103378
108149,103345
108329,103485
108355,103559
108289,103460
108197,103373
108160,103378
108324,103498
108343,103522
108316,103463
108196,103392
108163,103381
108305,103470
108368,103541
108318,103494
108166,103331
108180,103384
108302,103506
108364,103532
108289,103465
108187,103369
108160,103373
108300,103501
108360,103565
108299,103484
108203,103356
108187,103360
108361,103539
108367,103553
108273,103461
108153,103350
108205,103405
108305,103523
108359,103491
108276,103470
108152,103312
108198,103409
108346,103550
108339,103500
108297,103479
108137,103315
108215,103414
108352,103553
108334,103517
108322,103466
108167,103355
108197,103408
108356,103552
108363,103540
108307,103450
108179,103351
108189,103401
108329,103489
108397,103545
108299,103470
108179,103366
108246,103418
108320,103546
108337,103496
108324,103469
108166,103350
108222,103430
108314,103532
108382,103518
108294,103488
108160,103328
108237,103405
108370,103546
108333,103484
108294,103454
108203,103295
108236,103423
108377,103506
108341,103450
108294,103433
108143,103331
108208,103384
108364,103518
108322,103465
108274,103401
108148,103270
108229,103428
108366,103503
108334,103457
108267,103434
108159,103293
108225,103380
108365,103492
108294,103460
108280,103414
108107,103271
108242,103390
108346,103502
108333,103449
108252,103403
108144,103288
108240,103402
108320,103468
108367,103489
108258,103414
108128,103256
108259,103399
108385,103493
108315,103464
108227,103396
108116,103259
108234,103439
108344,103505
108339,103455
108280,103424
108128,103271
108256,103398
108327,103497
108355,103445
108298,103411
108119,103251
108271,103408
108346,103512
108324,103424
108274,103382
108134,103298
108253,103402
108373,103482
108328,103439
108257,103367
108128,103271
108244,103388
108354,103461
108345,103413
108284,103341
108123,103258
108263,103367
108378,103442
108322,103402
108292,103347
108127,103231
108270,103373
108371,103452
108304,103378
108266,103322
108148,103213
108235,103369
108354,103450
108321,103378
108264,103301
108121,103218
108274,103387
108375,103444
108314,103400
108233,103300
108148,103235
108251,103389
108366,103433
108307,103377
108264,103318
108143,103243
108276,103390
108365,103471
108311,103395
108238,103333
108161,103251
108254,103374
108409,103436
108310,103406
108224,103315
108150,103256
108295,103381
108402,103438
108350,103397
108252,103333
108173,103245
108318,103378
108436,103496
108379,103401
108272,103315
108184,103287
108305,103396
108391,103447
108347,103416
108259,103307
108152,103274
108337,103398
108434,103507
108359,103388
108281,103292
108188,103264
108348,103392
108424,103461
108367,103376
108264,103334
108167,103261
108332,103388
108433,103469
108332,103374
108235,103283
108215,103270
108348,103384
108426,103433
108360,103397
108250,103274
108219,103268
108335,103413
108342,103431
108329,103355
108221,103285
108172,103258
108331,103380
108385,103458
108326,103337
108214,103228
108194,103231
108340,103392
108404,103450
108319,103333
108243,103245
108155,103206
108345,103362
108400,103418
108306,103327
108246,103247
108167,103246
108342,103344
108394,103395
108306,103330
108198,103229
108198,103211
108354,103386
108377,103353
108336,103339
108196,103234
108198,103236
108333,103394
108355,103371
108281,103309
108221,103200
108158,103224
108359,103350
108411,103377
108297,103298
108211,103226
108164,103246
108377,103398
108347,103349
108323,103337
108190,103213
108176,103235
108344,103386
108387,103392
108303,103302
108218,103207
108195,103273
108341,103368
108398,103428
108333,103332
108202,103203
108175,103270
108320,103331
108402,103386
108354,103360
108187,103199
108204,103256
108337,103347
108396,103392
108346,103327
108222,103225
108196,103287
108346,103358
108417,103423
108340,103305
108220,103222
108256,103287
108343,103382
108416,103416
108336,103308
108210,103216
108237,103281
108346,103371
108417,103419
108324,103324
108202,103213
108221,103254
108383,103396
108389,103367
108352,103320
108210,103247
108236,103269
108426,103419
108399,103360
108320,103317
108216,103206
108252,103292
108421,103412
108413,103371
108362,103324
108208,103199
108264,103279
108434,103410
108363,103346
108362,103337
108223,103187
108257,103315
108379,103375
108423,103390
108339,103292
108210,103175
108285,103267
108396,103345
108411,103352
108354,103323
108189,103175
108291,103264
108386,103368
108454,103366
108342,103320
108193,103161
108305,103288
108382,103357
108422,103351
108338,103287
108198,103131
108259,103256
108393,103350
108376,103327
108328,103272
108186,103162
108277,103278
108401,103338
108393,103347
108294,103242
108186,103125
108273,103286
108407,103347
108405,103339
108327,103261
108174,103134
108292,103258
108418,103364
108353,103312
108304,103251
108212,103140
108282,103269
108423,103356
108426,103336
108342,103246
108164,103112
108329,103263
108445,103382
108387,103297
108356,103259
108161,103145
108342,103255
108465,103371
108394,103294
108341,103226
108210,103156
108359,103278
108419,103355
108379,103277
108347,103232
108182,103131
108304,103266
108431,103320
108419,103294
108322,103235
108202,103128
108317,103282
108448,103353
108409,103265
108325,103210
108229,103123
108317,103241
108430,103321
108397,103274
108305,103221
108169,103115
108332,103255
108426,103332
108359,103278
108338,103211
108184,103169
108331,103230
108449,103361
108374,103273
108314,103183
108192,103107
108338,103278
108407,103339
108386,103269
108327,103213
108211,103129
108358,103260
108457,103367
108368,103255
108320,103204
108222,103132
108338,103249
108468,103321
108389,103289
108306,103170
108244,103150
108352,103253
108448,103331
108388,103264
108294,103185
108239,103126
108351,103250
108460,103329
108431,103252
108311,103160
108243,103148
108396,103266
108457,103324
108382,103279
108276,103186
108239,103127
108357,103278
108432,103312
108420,103288
108303,103147
108216,103129
108372,103246
108472,103321
108413,103237
108281,103177
108207,103099
108376,103282
108434,103311
108413,103253
108295,103179
108192,103133
108355,103254
108455,103327
108385,103258
108285,103127
108248,103134
108365,103259
108462,103329
108377,103245
108279,103126
108218,103135
108362,103259
108485,103328
108385,103260
108286,103123
108226,103144
108409,103255
108481,103300
108437,103248
108283,103123
108224,103091
108418,103291
108463,103311
108352,103236
108287,103105
108249,103135
108379,103249
108457,103315
108366,103217
108281,103132
108248,103157
108388,103247
108471,103281
108394,103257
108241,103112
108236,103110
108398,103261
108457,103298
108385,103215
108237,103121
108251,103146
108378,103252
108439,103261
108391,103235
108248,103095
108259,103114
108396,103288
108416,103257
108414,103237
108232,103082
108283,103126
108416,103267
108465,103273
108403,103191
108264,103105
108269,103135
108397,103229
108469,103263
108416,103179
108259,103088
108230,103104
108435,103270
108471,103272
108396,103183
108276,103075
108277,103140
108428,103261
108470,103256
108376,103189
108247,103085
108258,103124
108449,103248
108455,103261
108391,103174
108238,103077
108278,103153
108412,103237
108451,103249
108369,103195
108274,103087
108317,103140
108429,103242
108512,103263
108364,103200
108232,103058
108319,103165
108452,103257
108463,103253
108402,103201
108269,103088
108300,103143
108454,103290
108473,103264
108397,103161
108298,103064
108295,103168
108473,103248
108487,103256
108361,103194
108256,103075
108318,103149
108482,103248
108470,103282
108397,103185
108268,103093
108321,103161
108471,103257
108456,103240
108378,103175
108231,103042
108336,103151
108437,103260
108427,103222
108379,103182
108233,103063
108292,103152
108460,103273
108406,103208
108393,103150
108248,103051
108296,103161
108459,103281
108424,103224
108379,103176
108244,103053
108341,103162
108433,103254
108459,103210
108413,103179
108235,103063
108334,103153
108492,103277
108435,103217
108391,103166
108254,103050
108360,103173
108478,103249
108466,103231
108388,103149
108248,103075
108321,103153
108502,103291
108425,103217
108373,103159
108248,103028
108379,103163
108491,103227
108488,103212
108379,103170
108228,103028
108358,103160
108493,103290
108466,103216
108427,103171
108254,103076
108352,103140
108496,103265
108471,103212
108367,103151
108229,103029
108401,103187
108504,103245
108450,103211
108375,103143
108228,103063
108374,103179
108467,103242
108469,103184
108381,103159
108233,103025
108359,103154
108481,103255
108445,103232
108381,103115
108262,103062
108366,103206
108508,103262
108492,103228
108365,103102
108256,103045
108402,103185
108506,103277
108424,103193
108398,103154
108230,103056
108393,103189
108521,103279
108449,103207
108344,103123
108295,103083
108389,103226
108493,103257
108453,103191
108384,103126
108239,103048
108396,103220
108492,103249
108479,103201
108346,103097
108279,103065
108401,103203
108480,103253
108460,103186
108385,103148
108250,103035
108412,103189
108494,103244
108462,103195
108393,103113
108264,103086
108409,103183
108539,103258
108439,103171
108398,103137
108297,103059
108417,103193
108461,103225
108433,103173
108359,103091
108281,103058
108370,103162
108463,103234
108439,103212
108332,103075
108238,103037
108382,103167
108470,103252
108410,103159
108331,103090
108263,103048
108380,103165
108465,103203
108411,103189
108317,103060
108262,103037
108364,103183
108461,103213
108415,103138
108276,103051
108232,103030
108393,103197
108458,103207
108428,103145
108312,103039
108237,103005
108446,103222
108450,103181
108426,103127
108317,103054
108243,103058
108415,103159
108488,103214
108433,103137
108310,103039
108276,103059
108484,103220
108487,103228
108420,103109
108338,103051
108295,103025
108457,103194
108486,103164
108477,103164
108359,103047
108295,103049
108488,103226
108526,103215
108440,103124
108332,103037
108303,103063
108471,103200
108540,103173
108435,103186
108359,103040
108307,103057
108477,103196
108535,103234
108460,103124
108330,103025
108343,103061
108489,103173
108510,103180
108459,103142
108334,103051
108343,103058
108491,103194
108535,103198
108437,103163
108370,103031
108316,103045
108505,103215
108533,103196
108495,103142
108332,103036
108328,103048
108477,103214
108511,103172
108459,103134
108347,103062
108283,103065
108523,103227
108517,103206
108425,103126
108346,103024
108361,103107
108492,103172
108533,103194
108437,103133
108274,103024
108334,103065
108527,103242
108482,103159
108454,103133
108317,103040
108377,103075
108514,103227
108495,103190
108443,103103
108321,103003
108345,103086
108538,103196
108513,103170
108449,103138
108306,103001
108344,103087
108551,103203
108524,103200
108464,103138
108328,102991
108397,103103
108519,103228
108491,103185
108508,103117
108343,103036
108376,103059
108572,103230
108530,103195
108482,103130
108333,103028
108436,103112
108582,103209
108517,103181
108478,103129
108345,103003
108393,103083
108578,103214
108514,103183
108455,103084
108367,103033
108387,103097
108555,103199
108537,103156
108474,103135
108322,102966
108430,103105
108539,103194
108521,103137
108484,103111
108309,103017
108395,103086
108577,103211
108531,103171
108462,103120
108337,102979
108421,103117
108501,103213
108500,103133
108464,103095
108331,102978
108443,103125
108540,103165
108522,103153
108437,103120
108300,102975
108440,103114
108519,103182
108542,103136
108441,103133
108322,103008
108417,103135
108563,103224
108519,103159
108481,103110
108315,102968
108456,103119
108551,103194
108504,103157
108455,103118
108321,102971
108463,103141
108562,103204
108534,103156
108467,103098
108336,102992
108428,103100
108568,103195
108508,103135
108466,103101
108318,102964
108442,103122
108540,103186
108504,103120
108473,103082
108319,102972
108414,103099
108568,103180
108548,103142
108436,103021
108317,102986
108450,103110
108537,103188
108489,103106
108466,103081
108280,102968
108451,103087
108568,103172
108517,103117
108434,103037
108294,102942
108460,103130
108538,103154
108509,103114
108433,103008
108312,102936
108451,103109
108539,103156
108487,103106
108428,103003
108311,102944
108430,103116
108530,103115
108518,103088
108411,102998
108323,102941
108482,103100
108539,103150
108499,103075
108443,103053
108306,102948
108448,103108
108565,103148
108508,103103
108405,103004
108310,102942
108472,103090
108573,103140
108492,103080
108437,103024
108323,102950
108509,103086
108554,103155
108541,103079
108423,103038
108313,102951
108505,103092
108581,103162
108539,103081
108421,103023
108358,102946
108470,103076
108565,103150
108540,103125
108415,103028
108315,102976
108485,103094
108539,103169
108512,103074
108469,103035
108374,102980
108454,103082
108547,103150
108571,103110
108439,103031
108335,102952
108506,103107
108577,103158
108533,103102
108422,102987
108372,102970
108506,103148
108567,103153
108546,103106
108421,102994
108355,102974
108526,103166
108583,103147
108574,103109
108421,102988
108397,103030
108562,103147
108632,103179
108558,103136
108416,102979
108426,103010
108539,103113
108605,103168
108535,103109
108454,103000
108371,102965
108576,103147
108612,103161
108558,103102
108403,102985
108417,103013
108555,103132
108605,103151
108557,103099
108401,102967
108397,102985
108589,103159
108618,103149
108522,103093
108437,102997
108423,102973
108594,103179
108592,103133
108531,103085
108427,102991
108409,103020
108577,103168
108597,103116
108553,103093
108419,102990
108419,102995
108567,103169
108617,103125
108533,103119
108421,102979
108420,103008
108590,103194
108611,103123
108525,103095
108443,103012
108389,103024
108572,103159
108619,103148
108570,103087
108431,102994
108424,103025
108597,103190
108626,103120
108548,103089
108419,102991
108399,103035
108620,103171
108621,103154
108576,103121
108416,102979
108429,103016
108639,103190
108610,103138
108543,103118
108390,102968
108464,103043
108593,103162
108574,103121
108587,103079
108381,102963
108412,103030
108654,103204
108586,103143
108552,103071
108425,103004
108437,103064
108625,103173
108610,103130
108573,103094
108431,102974
108443,103061
108627,103174
108609,103126
108583,103093
108412,102956
108461,103045
108664,103189
108622,103125
108550,103078
108398,102938
108509,103074
108639,103160
108616,103131
108587,103086
108419,102948
108499,103048
108637,103183
108585,103093
108561,103057
108427,102976
108514,103071
108629,103159
108625,103128
108585,103098
108407,102941
108507,103063
108666,103116
108597,103113
108552,103066
108424,102950
108526,103078
108667,103150
108639,103109
108536,103088
108419,102916
108519,103063
108649,103166
108610,103110
108553,103046
108453,102935
108495,103075
108668,103132
108622,103090
108565,103071
108419,102959
108489,103075
108660,103159
108586,103114
108581,103077
108458,102968
108520,103062
108684,103165
108630,103118
108549,103076
108389,102905
108556,103081
108643,103164
108629,103119
108578,103078
108411,102944
108525,103062
108663,103143
108591,103105
108572,103048
108425,102933
108521,103090
108670,103161
108621,103102
108574,103077
108400,102969
108551,103055
108672,103186
108619,103084
108586,103082
108425,102937
108533,103090
108684,103154
108627,103124
108587,103024
108462,102981
108556,103087
108692,103181
108608,103100
108610,103041
108447,102968
108575,103101
108722,103172
108627,103122
108608,103031
108460,102946
108583,103100
108699,103168
108638,103102
108580,103055
108426,102937
108606,103083
108676,103149
108633,103099
108594,103041
108418,102936
108568,103123
108691,103129
108669,103118
108567,103052
108447,102960
108625,103136
108710,103190
108662,103106
108587,103064
108480,102961
108613,103143
108696,103178
108631,103133
108621,103052
108442,102981
108624,103128
108709,103151
108682,103101
108594,103044
108495,103010
108616,103134
108692,103183
108662,103132
108588,103045
108467,102973
108644,103146
108711,103173
108690,103130
108585,103046
108472,102981
108638,103121
108736,103206
108652,103167
108568,103016
108508,102998
108668,103138
108722,103178
108654,103113
108597,103053
108456,102979
108663,103146
108744,103174
108665,103135
108562,102989
108522,102985
108655,103137
108701,103153
108678,103115
108529,103020
108482,102997
108638,103104
108736,103166
108655,103105
108576,103041
108495,103020
108653,103129
108742,103195
108689,103125
108550,103027
108490,103017
108644,103133
108745,103186
108629,103156
108549,103040
108493,103009
108675,103157
108716,103179
108657,103105
108578,103033
108488,103001
108678,103160
108725,103166
108675,103117
108552,103018
108531,103003
108663,103154
108749,103198
108688,103117
108536,103002
108532,102993
108669,103188
108716,103170
108671,103100
108546,103028
108500,102998
108671,103159
108699,103191
108663,103140
108538,103015
108496,103030
108692,103166
108710,103193
108639,103108
108525,102996
108501,103006
108678,103172
108736,103178
108630,103116
108503,103011
108507,103000
108675,103179
108723,103155
108665,103127
108548,102956
108541,103018
108707,103169
108724,103150
108685,103111
108543,103002
108541,103010
108739,103182
108720,103127
108702,103121
108566,102969
108554,103012
108698,103154
108765,103127
108666,103076
108584,102957
108509,103004
108732,103170
108736,103126
108657,103081
108528,102981
108503,103009
108726,103145
108754,103144
108651,103085
108566,102945
108551,103025
108731,103130
108733,103160
108682,103052
108547,102988
108541,103035
108733,103161
108749,103126
108666,103084
108552,102981
108552,103065
108730,103149
108737,103137
108661,103079
108543,102955
108546,103030
108724,103171
108692,103112
108662,103085
108526,102969
108599,103044
108762,103143
108719,103147
108667,103072
108513,102971
108550,103034
108739,103188
108734,103126
108691,103101
108543,102950
108596,103049
108751,103152
108750,103123
108658,103062
108552,102971
108594,103034
108744,103173
108732,103126
108665,103075
108544,102976
108586,103028
108761,103165
108703,103108
108690,103099
108537,102960
108567,103043
108754,103139
108718,103145
108684,103077
108511,102900
108590,103039
108745,103124
108747,103126
108650,103100
108557,102966
108625,103063
108765,103180
108716,103101
108671,103071
108511,102946
108583,103058
108766,103154
108738,103135
108675,103074
108563,102948
108638,103095
108758,103182
108731,103118
108676,103066
108542,102968
108643,103085
108785,103166
108767,103116
108670,103068
108548,102954
108630,103080
108758,103170
108766,103105
108703,103086
108510,102908
108634,103076
108780,103109
108780,103126
108674,103071
108529,102953
108673,103078
108772,103162
108721,103074
108687,103085
108536,102936
108659,103079
108744,103176
108709,103109
108688,103069
108522,102929
108646,103064
108784,103195
108719,103108
108660,103060
108525,102909
108702,103090
108798,103162
108749,103089
108681,103074
108518,102939
108654,103043
108768,103187
108721,103081
108673,103036
108525,102939
108671,103083
108761,103168
108729,103109
108680,103032
108541,102959
108652,103082
108766,103179
108749,103133
108673,103049
108552,102955
108666,103083
108798,103178
108741,103107
108700,103045
108551,102958
108642,103094
108793,103168
108745,103122
108667,103019
108524,102950
108697,103092
108774,103134
108722,103078
108671,103032
108563,102935
108658,103108
108792,103155
108759,103107
108668,103046
108534,102992
108679,103068
108799,103191
108742,103095
108692,103006
108570,102978
108684,103098
108797,103146
108715,103102
108667,102998
108528,102944
108710,103089
108775,103146
108729,103081
108657,103014
108557,102953
108680,103095
108790,103143
108726,103100
108619,102984
108548,102919
108720,103081
108777,103137
108706,103053
108663,102993
108563,102939
108710,103101
108820,103109
108728,103075
108648,102961
108584,102938
108686,103093
108786,103123
108767,103086
108682,102971
108576,102940
108783,103124
108783,103122
108725,103060
108669,103009
108565,102939
108773,103108
108760,103108
108764,103071
108660,102997
108573,102942
108733,103110
108819,103151
108734,103072
108661,102969
108586,102966
108736,103104
108796,103134
108743,103091
108641,102963
108598,102962
108761,103118
108780,103129
108744,103078
108649,102956
108566,102948
108748,103145
108801,103130
108765,103089
108631,102974
108557,102953
108751,103145
108815,103120
108759,103115
108630,102956
108600,102989
108768,103134
108789,103114
108761,103073
108614,102957
108597,102967
108759,103126
108792,103146
108750,103066
108621,102979
108597,102963
108750,103150
108803,103115
108765,103075
108600,102952
108568,102966
108815,103118
108816,103126
108741,103037
108594,102944
108581,102954
108775,103138
108789,103130
108704,103030
108626,102928
108562,102956
108757,103133
108765,103060
108694,103017
108599,102943
108585,102973
108774,103101
108750,103064
108700,103056
108617,102928
108570,102936
108786,103124
108759,103077
108706,103039
108580,102931
108560,102945
108788,103110
108779,103091
108709,103039
108602,102914
108607,102971
108772,103102
108786,103079
108694,103048
108577,102905
108607,102991
108788,103104
108781,103115
108704,103045
108606,102902
108625,102994
108790,103123
108786,103063
108727,103031
108615,102951
108629,102958
108776,103103
108776,103097
108726,103002
108647,102951
108664,103044
108848,103161
108824,103104
108811,103061
108643,102954
108728,103028
108863,103188
108865,103146
108788,103086
108676,102967
108731,103057
108882,103167
108836,103148
108820,103075
108682,102971
108735,103071
108909,103179
108853,103172
108805,103089
108695,102996
108730,103070
108910,103209
108900,103157
108848,103109
108684,103021
108761,103068
108933,103234
108897,103143
108811,103111
108712,102996
108733,103096
108900,103181
108885,103171
108842,103108
108740,102991
108770,103103
108927,103161
108886,103128
108825,103096
108740,102982
108790,103082
108871,103136
108900,103115
108829,103075
108712,102943
108721,103059
108867,103140
108808,103115
108735,103006
108563,102860
108644,102980
108708,103062
108648,103019
108563,102931
108422,102794
108501,102919
108562,102985
108531,102953
108511,102929
108403,102768
108467,102945
108595,103037
108560,102973
108546,102935
108406,102873
108540,102946
108694,103070
108627,103010
108617,102981
108502,102847
108589,103026
108703,103061
108718,103070
108640,102985
108538,102909
108641,103019
108729,103072
108723,103059
108656,103042
108551,102903
108645,103043
108774,103119
108714,103091
108661,102987
108572,102908
108685,103049
108747,103110
108722,103058
108708,103050
108545,102888
108691,103050
108787,103150
108743,103097
108706,103034
108544,102900
108684,103080
108798,103111
108749,103060
108713,102999
108532,102914
108703,103066
108816,103123
108748,103081
108706,103019
108570,102910
108696,103049
108776,103121
108765,103090
108694,102991
108581,102929
108718,103080
108756,103102
108762,103067
108696,103028
108610,102925
108737,103071
108809,103139
108745,103051
108702,103030
108600,102902
108704,103078
108812,103138
108740,103097
108736,103047
108559,102920
108744,103098
108821,103135
108777,103066
108694,103034
108593,102929
108711,103098
108822,103116
108756,103095
108674,103041
108588,102954
108716,103100
108785,103121
108754,103063
108730,103018
108605,102961
108723,103099
108834,103166
108773,103094
108734,103005
108603,102948
108763,103097
108832,103160
108773,103086
108723,103034
108619,102933
108792,103122
108831,103108
108806,103080
108698,103031
108606,102956
108804,103108
108813,103143
108787,103106
108738,103007
108625,102998
108761,103110
108828,103130
108747,103102
108705,102982
108610,102955
108789,103105
108788,103122
108791,103071
108722,103010
108646,102954
108771,103124
108819,103146
108772,103084
108724,102983
108632,102953
108779,103098
108848,103150
108773,103087
108727,102992
108640,102964
108820,103105
108827,103152
108808,103073
108690,102995
108614,102947
108822,103123
108851,103149
108818,103084
108676,102968
108645,102956
108815,103119
108854,103120
108818,103108
108693,102988
108665,102961
108805,103118
108880,103138
108800,103099
108710,102987
108667,102991
108810,103113
108846,103120
108809,103090
108743,102976
108647,102938
108806,103114
108848,103096
108804,103045
108697,102943
108634,102935
108789,103083
108776,103063
108693,102988
108594,102898
108558,102868
108635,103001
108652,102968
108527,102903
108424,102776
108344,102778
108518,102934
108519,102888
108438,102844
108381,102783
108374,102811
108543,102976
108593,102930
108586,102942
108469,102823
108477,102856
108626,103007
108674,103001
108627,102971
108545,102840
108504,102865
108713,103043
108683,103019
108648,102947
108608,102895
108575,102916
108731,103062
108727,103032
108698,103007
108611,102874
108591,102919
108754,103066
108737,103051
108684,103016
108580,102888
108605,102924
108771,103103
108743,103051
108696,102996
108590,102885
108611,102953
108766,103105
108792,103082
108745,103010
108565,102895
108613,102964
108793,103109
108779,103052
108732,103016
108613,102912
108621,102962
108784,103078
108788,103062
108725,103012
108601,102892
108638,102946
108810,103114
108760,103040
108701,103031
108627,102911
108653,102973
108772,103100
108785,103050
108751,103015
108629,102903
108694,103009
108817,103116
108741,103067
108731,103044
108665,102907
108696,102990
108801,103127
108766,103046
108745,103000
108646,102888
108704,102989
108806,103135
108797,103062
108769,103016
108614,102893
108692,102974
108853,103123
108812,103073
108756,103043
108627,102924
108702,102977
108851,103127
108825,103065
108743,103035
108619,102896
108739,102986
108835,103124
108795,103053
108768,103032
108668,102907
108720,103025
108851,103104
108787,103076
108762,103021
108660,102908
108707,103010
108874,103132
108829,103064
108783,103034
108660,102905
108742,103023
108849,103108
108832,103039
108813,103049
108649,102894
108709,103008
108846,103121
108791,103075
108782,103019
108648,102933
108713,103032
108857,103126
108793,103079
108798,103029
108638,102943
108725,103041
108886,103122
108840,103108
108783,103016
108668,102930
108744,103047
108834,103131
108817,103063
108783,103024
108652,102913
108768,103047
108869,103149
108838,103096
108799,103009
108613,102919
108767,103044
108876,103121
108838,103040
108821,103072
108655,102889
108764,103045
108882,103136
108852,103082
108811,103063
108658,102919
108807,103070
108851,103134
108834,103062
108832,103056
108678,102924
108815,103052
108898,103180
108856,103102
108806,103014
108656,102953
108789,103044
108908,103154
108874,103112
108814,103057
108700,102936
108828,103084
108923,103112
108902,103098
108834,103045
108692,102955
108804,103037
108944,103144
108865,103090
108873,103001
108690,102943
108831,103058
108923,103096
108894,103091
108798,102997
108700,102919
108781,103023
108876,103060
108822,103013
108729,102962
108622,102866
108702,102977
108779,103007
108715,102926
108653,102887
108531,102784
108694,102953
108783,103033
108701,102966
108666,102888
108539,102832
108717,102993
108812,103025
108771,102982
108738,102949
108629,102863
108759,103014
108868,103060
108812,103039
108739,102916
108664,102889
108784,103047
108880,103073
108819,103042
108757,102936
108651,102898
108842,103030
108882,103092
108859,103036
108753,102928
108696,102929
108829,103061
108894,103120
108816,103034
108759,102969
108683,102926
108809,103063
108904,103088
108831,103062
108795,102970
108675,102916
108803,103058
108904,103066
108835,103042
108768,102932
108693,102909
108852,103076
108874,103083
108831,103035
108772,102947
108727,102902
108828,103045
108909,103100
108858,103058
108806,102953
108705,102924
108835,103034
108903,103121
108831,103043
108774,102945
108717,102934
108838,103060
108928,103085
108884,103034
108772,102950
108678,102897
108879,103065
108918,103114
108841,103029
108776,102928
108706,102904
108872,103083
108918,103064
108876,103031
108761,102923
108717,102905
108885,103077
108922,103113
108887,103030
108775,102963
108728,102917
108912,103114
108922,103065
108900,103026
108778,102951
108713,102910
108897,103086
108950,103106
108897,103042
108755,102905
108752,102940
108884,103112
108947,103102
108884,103048
108773,102937
108735,102942
108900,103097
108942,103092
108898,103030
108788,102921
108727,102931
108907,103102
108926,103101
108881,103035
108815,102946
108756,102943
108878,103080
108970,103116
108879,103029
108813,102954
108752,102977
108920,103077
108927,103097
108878,103020
108784,102956
108734,102946
108916,103108
108982,103099
108901,103059
108803,102949
108743,102961
108920,103083
108942,103043
108910,103062
108786,102942
108773,102964
108954,103092
108960,103082
108889,103026
108798,102926
108765,102939
108961,103121
108916,103056
108910,103020
108785,102921
108797,102962
108978,103093
108972,103078
108903,103032
108795,102908
108825,102978
108989,103122
108967,103067
108926,103015
108784,102921
108799,102973
109008,103122
108980,103036
108971,103012
108795,102882
108840,102973
109031,103073
109016,103054
108947,103030
108844,102951
108821,102956
109024,103071
109020,103085
108957,103016
108810,102905
108828,102968
109041,103098
109024,103066
108967,102991
108832,102913
108869,102973
109034,103091
109023,103072
108944,103017
108830,102900
108893,102972
109012,103105
109029,103046
108947,102967
108860,102895
108862,102946
109006,103072
109002,103046
108954,102958
108813,102872
108826,102939
109002,103098
108978,103038
108940,102974
108772,102834
108880,102936
109011,103106
108997,103013
108961,102992
108838,102866
108872,102979
109021,103072
109003,103048
108921,102973
108844,102866
108917,102983
109039,103074
109009,103029
108969,103022
108838,102839
108915,102975
109031,103072
109022,103050
108971,103012
108846,102862
108920,102979
109061,103081
109008,103032
108980,103000
108816,102900
108931,102951
109078,103101
109007,103046
108979,103018
108824,102879
108942,102984
109078,103124
109044,103057
109010,103021
108840,102892
108955,103028
109059,103088
109080,103082
109005,103038
108855,102913
108943,103032
109117,103127
109085,103080
109035,103024
108842,102918
108964,102997
109077,103136
109038,103055
108968,103000
108892,102929
108968,103048
109096,103102
109046,103052
108982,103016
108864,102905
108980,103046
109103,103127
109075,103078
109003,103012
108873,102925
108960,103026
109122,103124
109057,103080
109016,103007
108880,102894
109013,103022
109090,103119
109090,103092
109009,103022
108851,102901
109015,103045
109094,103135
109086,103077
109040,103017
108819,102910
108981,103034
109094,103121
109083,103081
109040,103019
108875,102915
109011,103058
109113,103107
109083,103076
109037,103017
108860,102923
109005,103037
109111,103118
109065,103071
109032,103002
108878,102934
108987,103035
109143,103145
109053,103068
109027,103009
108875,102943
109003,103052
109155,103144
109083,103083
109018,103005
108874,102914
109031,103073
109133,103093
109069,103067
109013,103020
108880,102923
109039,103062
109108,103145
109079,103072
108998,102993
108901,102949
109021,103057
109097,103105
109050,103044
109017,102976
108887,102939
109026,103078
109110,103110
109093,103062
109002,102977
108861,102900
109009,103029
109157,103143
109090,103074
108969,102962
108900,102907
109015,103069
109126,103109
109107,103057
108984,103002
108903,102877
109019,103063
109128,103096
109075,103032
108973,102975
108887,102932
109018,103028
109146,103130
109054,103065
108988,102965
108856,102904
109030,103062
109152,103129
109079,103039
108965,102961
108894,102930
109050,103055
109096,103125
109097,103039
108998,102950
108908,102931
109073,103072
109116,103123
109093,103052
108966,102942
108907,102945
109073,103064
109143,103094
109063,103047
109015,102929
108944,102937
109061,103087
109141,103089
109097,103027
108978,102932
108923,102916
109051,103058
109152,103120
109087,103030
108945,102898
108907,102897
109065,103028
109104,103079
109015,102973
108911,102913
108814,102837
108881,102941
108921,102949
108776,102848
108618,102731
108525,102693
108603,102807
108642,102831
108566,102745
108435,102652
108416,102655
108558,102796
108649,102793
108587,102783
108538,102694
108499,102717
108702,102871
108734,102896
108722,102847
108607,102758
108647,102769
108779,102900
108875,102961
108784,102897
108677,102810
108657,102780
108856,102961
108877,102933
108854,102887
108719,102817
108695,102809
108875,102969
108903,103013
108867,102920
108758,102816
108715,102847
108883,102973
108965,103001
108875,102938
108790,102838
108777,102818
108922,102982
108986,103015
108888,102934
108817,102837
108785,102859
108925,102987
109013,103029
108914,102963
108855,102859
108817,102875
108962,103037
108989,103018
108939,102939
108818,102835
108796,102897
108958,103035
109052,103042
108931,102964
108809,102835
108818,102875
108965,103048
108995,103022
108911,102962
108815,102842
108805,102867
109005,103020
109015,102992
108939,102969
108837,102833
108816,102895
108995,103006
109007,103033
108960,102946
108831,102850
108827,102877
109010,103044
109022,102973
108969,102956
108837,102862
108871,102896
109015,103053
109016,102984
108949,102957
108838,102848
108856,102912
109010,103016
108992,103028
108973,102974
108825,102857
108857,102895
109023,103045
109064,103012
108980,102966
108840,102872
108865,102919
109032,103038
109019,102992
108995,102969
108813,102839
108890,102935
109028,103044
109000,103014
108967,102969
108829,102821
108882,102912
109025,103062
109005,102994
108958,102954
108805,102816
108858,102904
108991,103044
108989,102983
108958,102945
108849,102838
108877,102913
109020,103046
109020,103024
108959,102945
108802,102844
108898,102939
109036,103042
109029,102994
108962,102946
108847,102837
108894,102941
109060,103042
109020,102982
108995,102963
108821,102824
108913,102950
109071,103044
109004,102999
108997,102960
108840,102827
108904,102930
109072,103047
109021,103016
108985,102959
108793,102795
108912,102916
109058,103038
109056,103015
108996,102959
108836,102836
108940,102949
109071,103037
109026,103004
108995,102946
108836,102837
108962,102953
109057,103035
109034,103021
108976,102941
108831,102826
108960,102954
109047,103022
109044,103025
109007,102938
108819,102844
108936,102952
109091,103036
109046,102992
108991,102955
108817,102825
108966,102973
109116,103039
109057,103015
109004,102957
108879,102852
108984,102963
109100,103057
109091,103026
109012,102958
108879,102854
108982,102989
109086,103088
109097,103045
109036,102970
108854,102858
108963,102960
109104,103060
109082,102999
109009,102952
108874,102810
108986,102945
109105,103056
109080,102971
108995,102924
108846,102799
108910,102899
108992,102975
108940,102912
108854,102830
108678,102707
108731,102783
108820,102873
108740,102803
108629,102708
108468,102608
108574,102731
108707,102840
108671,102774
108562,102709
108457,102627
108632,102771
108768,102856
108751,102814
108708,102771
108598,102708
108710,102821
108885,102930
108824,102861
108767,102795
108649,102717
108796,102853
108929,102957
108892,102877
108833,102818
108669,102737
108848,102913
108973,102944
108902,102907
108848,102853
108712,102781
108866,102904
108964,102953
108952,102904
108868,102836
108755,102781
108885,102889
108975,102952
108962,102931
108889,102836
108750,102779
108912,102923
109007,102967
108930,102901
108870,102842
108746,102770
108920,102924
109009,102977
108935,102908
108863,102829
108769,102782
108889,102912
109013,102953
108944,102908
108892,102841
108771,102783
108911,102918
109012,103002
108951,102917
108858,102833
108791,102803
108942,102927
109000,103006
108959,102945
108878,102830
108771,102768
108934,102925
109031,102985
108946,102911
108879,102817
108793,102779
108926,102934
109042,102996
108934,102904
108881,102819
108794,102787
108930,102946
109006,102980
108939,102909
108891,102837
108794,102802
108935,102908
109021,103000
108971,102926
108867,102811
108810,102801
108956,102924
109025,103014
108971,102945
108897,102831
108784,102814
108949,102948
109077,102998
108957,102924
108903,102868
108847,102816
108975,102960
109054,103001
109028,102933
108887,102818
108835,102819
109013,102974
109085,103010
109008,102944
108926,102835
108854,102849
108972,102961
109105,102994
109041,102951
108926,102860
108875,102844
109043,102973
109057,102993
109007,102961
108908,102828
108867,102793
109000,102973
109086,102995
109022,102953
108912,102867
108836,102819
109021,102989
109058,102980
108979,102928
108887,102788
108846,102818
109041,102968
109035,103001
108979,102915
108925,102819
108875,102844
109027,102990
109062,102966
109026,102917
108876,102832
108856,102812
109031,102971
109078,103011
108988,102915
108900,102846
108869,102827
109057,103006
109055,102964
109007,102921
108893,102829
108841,102808
109042,102956
109067,103012
109023,102916
108914,102834
108848,102819
109016,102979
109089,102977
108998,102910
108872,102826
108886,102826
109056,102982
109081,102960
109038,102915
108901,102797
108864,102833
109050,102993
109103,102996
109035,102913
108925,102818
108897,102874
109056,102972
109092,102956
109032,102931
108923,102832
108921,102872
109059,102969
109088,102990
109006,102915
108911,102798
108883,102849
109104,103019
109089,102944
109023,102918
108879,102788
108899,102854
109025,102959
109059,102918
109007,102888
108868,102727
108827,102801
109018,102945
109031,102942
108951,102838
108835,102748
108853,102807
109028,102941
109018,102905
108946,102854
108869,102752
108885,102826
109030,102929
109047,102932
108984,102880
108843,102770
108873,102814
109066,102968
109046,102913
109007,102891
108870,102793
108907,102826
109113,103001
109100,102961
109047,102904
108905,102809
108948,102871
109116,103006
109101,102947
109066,102924
108941,102815
108994,102883
109121,102991
109121,102985
109046,102921
108898,102769
108991,102851
109127,103005
109113,102970
109060,102917
108911,102807
108955,102847
109082,103010
109067,102937
109035,102902
108876,102755
108962,102858
109109,103005
109088,102928
109001,102891
108903,102799
108923,102866
109113,102977
109069,102938
109034,102916
108890,102769
108962,102852
109137,103019
109095,102921
109025,102896
108908,102796
108970,102894
109148,103004
109103,102961
109069,102904
108889,102758
108986,102910
109168,103020
109134,102956
109051,102892
108901,102808
108974,102905
109130,102983
109100,102950
109073,102907
108925,102776
109015,102907
109132,102998
109125,102950
109034,102874
108889,102774
108942,102889
109126,102979
109095,102933
109033,102904
108897,102771
109017,102909
109097,103011
109083,102969
109007,102905
108899,102767
109006,102890
109147,103016
109100,102951
109037,102900
108888,102746
109011,102911
109157,103001
109103,102957
109092,102911
108933,102765
109038,102916
109121,103022
109088,102969
109066,102912
108927,102800
109065,102933
109141,103005
109101,102953
109068,102911
108919,102765
109036,102902
109161,103027
109127,102985
109050,102906
108903,102785
109039,102938
109153,102981
109098,102956
109062,102919
108929,102789
109060,102926
109142,103038
109081,102946
109076,102868
108889,102798
109045,102927
109193,103031
109141,102981
109076,102870
108968,102817
109045,102951
109158,102994
109107,102958
109077,102885
108953,102793
109061,102974
109170,102992
109123,102956
109040,102880
108909,102791
109031,102915
109175,103001
109118,102937
109037,102865
108937,102798
109037,102954
109149,102997
109101,102932
109041,102872
108884,102800
109026,102936
109169,103011
109132,102934
109043,102852
108917,102826
109046,102920
109168,103003
109107,102940
109047,102870
108928,102806
109064,102915
109164,103041
109119,102958
109052,102863
108910,102813
109057,102951
109190,102999
109098,102915
109049,102853
108924,102809
109079,102947
109163,103002
109080,102912
109028,102847
108900,102777
109038,102913
109136,102961
109101,102923
108960,102823
108880,102755
109013,102871
109057,102911
108961,102866
108828,102729
108740,102702
108825,102786
108880,102869
108811,102769
108700,102665
108606,102628
108743,102761
108808,102788
108765,102748
108688,102655
108641,102650
108790,102789
108891,102844
108835,102790
108769,102691
108684,102699
108838,102822
108930,102880
108906,102835
108824,102711
108742,102690
108912,102840
108995,102940
108932,102847
108875,102764
108776,102728
108935,102859
109002,102893
108964,102843
108892,102761
108772,102733
108974,102884
109054,102935
108942,102831
108876,102773
108801,102747
108912,102878
109023,102911
108958,102863
108865,102735
108801,102757
108952,102884
109023,102947
108967,102870
108831,102756
108802,102733
108975,102876
109006,102912
108993,102866
108891,102756
108840,102794
108988,102894
109009,102924
109016,102877
108896,102770
108812,102767
109016,102921
109074,102955
109014,102878
108917,102803
108857,102781
109025,102900
109096,102934
108979,102889
108919,102776
108857,102799
109041,102923
109100,102948
109007,102862
108950,102785
108886,102788
109068,102964
109118,102947
109023,102876
108910,102786
108879,102792
109043,102934
109106,102963
109044,102878
108912,102758
108893,102769
109071,102972
109086,102928
108993,102840
108932,102777
108886,102763
109031,102943
109060,102921
109038,102842
108869,102764
108848,102758
109030,102916
109118,102939
108999,102887
108892,102752
108892,102781
109050,102894
109081,102932
109022,102878
108892,102723
108889,102783
109049,102911
109083,102932
109024,102880
108906,102771
108884,102809
109069,102916
109078,102956
109004,102858
108890,102751
108906,102790
109080,102952
109074,102891
109020,102882
108886,102779
108874,102825
109068,102929
109074,102943
109030,102867
108890,102737
108919,102846
109091,102956
109105,102916
109058,102893
108933,102783
108933,102843
109138,102974
109132,102959
109051,102879
108961,102777
108945,102854
109166,102995
109115,102936
109081,102909
108940,102785
108968,102850
109157,102993
109146,102974
109056,102911
108940,102792
108977,102879
109161,102978
109103,102944
109064,102873
108977,102812
108975,102853
109157,102996
109128,102945
109052,102897
108962,102781
109006,102872
109174,102986
109129,102962
109076,102881
108913,102781
109016,102884
109135,102999
109104,102935
109093,102893
108945,102773
109023,102868
109151,102975
109134,102936
109068,102894
108919,102763
109015,102857
109166,102972
109127,102895
109078,102859
108938,102769
108991,102861
109149,102940
109104,102931
109031,102871
108911,102716
108949,102813
109119,102904
109065,102882
108979,102822
108855,102714
108907,102773
109044,102896
108993,102842
108976,102801
108821,102697
108873,102785
109072,102903
109005,102854
108958,102847
108834,102669
108930,102803
109036,102908
109014,102854
108986,102806
108866,102708
108978,102857
109060,102936
109061,102854
109026,102835
108874,102717
108968,102844
109058,102939
109059,102847
108996,102818
108879,102701
108971,102824
109109,102926
109069,102888
108959,102829
108860,102694
108971,102840
109063,102902
109045,102896
108997,102821
108897,102709
108973,102862
109087,102954
109077,102890
108993,102840
108893,102712
108974,102886
109098,102942
109077,102891
109038,102846
108882,102700
109014,102855
109139,102958
109087,102914
109052,102858
108907,102719
109019,102855
109113,102997
109054,102875
109050,102838
108871,102737
109031,102878
109110,102959
109089,102884
109076,102858
108893,102722
109009,102857
109119,102942
109087,102928
109007,102818
108896,102711
109015,102875
109138,102939
109114,102892
109071,102865
108896,102728
109019,102878
109152,102952
109080,102909
109051,102832
108895,102729
109041,102886
109139,102937
109092,102873
109034,102808
108918,102738
109029,102874
109145,102948
109073,102886
109059,102826
108896,102760
109049,102883
109140,102933
109117,102893
109020,102843
108901,102724
109045,102898
109119,102934
109087,102878
109045,102833
108904,102716
109048,102891
109154,102978
109080,102883
109002,102811
108917,102762
109051,102919
109129,102926
109098,102892
109017,102820
108911,102762
109059,102897
109156,102948
109122,102904
109046,102838
108972,102761
109062,102926
109156,102991
109110,102892
109074,102836
108925,102780
109112,102920
109174,102982
109113,102904
109064,102836
108962,102796
109089,102913
109207,102981
109173,102936
109065,102833
108950,102778
109126,102915
109163,102984
109137,102897
109038,102845
108949,102765
109088,102909
109189,102979
109124,102927
109062,102827
108953,102778
109123,102924
109206,103002
109135,102924
109053,102842
108966,102791
109147,102924
109181,102955
109171,102902
109039,102846
108940,102765
109116,102929
109180,102954
109141,102904
109007,102791
108969,102790
109102,102916
109201,102981
109115,102879
109059,102824
108962,102756
109138,102920
109193,102972
109100,102887
109072,102827
108961,102768
109129,102949
109183,102930
109115,102888
109026,102785
108907,102723
109069,102889
109126,102893
109027,102827
108919,102677
108814,102669
108907,102796
108915,102762
108802,102717
108648,102541
108526,102538
108653,102684
108687,102678
108615,102595
108555,102525
108474,102497
108655,102680
108714,102685
108717,102654
108604,102568
108594,102580
108755,102726
108849,102769
108818,102721
108701,102630
108701,102637
108845,102790
108918,102803
108874,102740
108754,102678
108739,102655
108907,102805
108932,102814
108911,102762
108781,102677
108781,102680
108937,102822
109012,102843
108939,102808
108815,102692
108805,102685
108976,102839
108990,102846
108965,102801
108851,102730
108816,102706
108941,102852
109025,102860
108967,102789
108831,102668
108832,102702
109015,102854
109026,102871
108981,102828
108862,102687
108820,102711
108980,102834
109075,102855
108964,102800
108846,102686
108832,102714
108988,102846
109031,102843
108944,102798
108864,102670
108818,102717
108980,102843
109054,102875
108968,102782
108893,102686
108851,102726
109009,102867
109048,102900
108937,102806
108869,102674
108866,102715
109005,102862
109036,102835
108977,102800
108882,102705
108856,102732
109044,102847
109046,102847
108987,102784
108842,102653
108859,102731
109041,102874
109042,102846
108954,102800
108878,102711
108886,102735
109051,102896
109012,102855
108967,102811
108854,102674
108878,102744
109045,102889
109076,102863
109003,102839
108851,102676
108930,102793
109054,102895
109026,102864
108991,102803
108922,102691
108935,102776
109066,102899
109079,102888
109032,102822
108908,102702
108926,102793
109086,102915
109098,102864
109036,102812
108875,102719
108932,102781
109101,102934
109086,102894
109031,102844
108907,102698
108948,102787
109104,102941
109094,102872
109064,102846
108905,102745
108961,102826
109135,102911
109080,102865
109051,102817
108929,102735
108955,102812
109160,102929
109113,102919
109044,102852
108935,102755
109001,102825
109099,102911
109117,102894
109046,102870
108947,102717
109009,102824
109132,102942
109111,102900
109056,102843
108939,102763
109016,102824
109120,102953
109088,102891
109056,102851
108939,102719
109002,102839
109158,102948
109134,102891
109089,102864
108955,102714
109034,102814
109156,102949
109118,102895
109112,102853
108942,102741
109000,102837
109173,102944
109111,102868
109046,102808
108909,102715
108981,102810
109114,102909
109034,102838
108983,102808
108831,102615
108893,102773
109016,102862
108957,102773
108940,102775
108760,102616
108870,102762
108972,102863
108948,102775
108928,102746
108760,102635
108875,102766
109007,102860
108995,102815
108971,102798
108803,102652
108918,102803
109040,102881
109032,102832
108998,102784
108814,102669
108947,102831
109049,102887
109030,102833
109029,102820
108838,102645
109002,102838
109096,102892
109051,102897
109010,102792
108869,102678
108987,102827
109115,102876
109065,102865
108999,102793
108896,102700
109002,102858
109102,102888
109071,102865
109049,102839
108897,102691
109022,102873
109091,102926
109100,102844
109012,102802
108871,102712
109015,102854
109083,102915
109055,102852
109047,102817
108873,102725
109044,102873
109134,102915
109074,102880
109045,102830
108911,102701
109048,102863
109138,102923
109065,102862
109030,102798
108914,102739
109051,102867
109115,102915
109120,102871
109082,102855
108927,102710
109060,102869
109174,102947
109106,102892
109086,102818
108895,102732
109075,102879
109145,102929
109146,102901
109067,102832
108930,102737
109066,102888
109170,102948
109119,102917
109061,102793
108947,102754
109112,102899
109151,102941
109129,102906
109065,102805
108930,102759
109111,102939
109153,102925
109141,102892
109076,102848
108978,102746
109093,102936
109172,102958
109127,102890
109090,102825
108946,102740
109127,102948
109208,102956
109126,102935
109080,102832
108942,102727
109120,102906
109169,102941
109164,102909
109041,102824
108932,102740
109136,102937
109146,102920
109160,102907
109081,102836
108945,102762
109129,102914
109182,102930
109178,102919
109056,102845
108973,102765
109129,102942
109224,102953
109133,102888
109058,102854
108970,102785
109122,102936
109190,102977
109170,102915
109065,102848
108992,102789
109121,102918
109154,102959
109140,102899
109087,102806
108950,102784
109154,102944
109224,102944
109154,102917
109090,102804
108981,102793
109136,102940
109185,102942
109161,102897
109083,102842
108992,102775
109179,102941
109192,102970
109155,102896
109053,102810
109031,102759
109143,102931
109174,102943
109144,102882
109038,102799
108951,102748
109130,102903
109085,102917
108998,102824
108886,102656
108757,102607
108781,102743
108751,102629
108609,102594
108445,102446
108282,102378
108368,102501
108349,102488
108298,102430
108192,102325
108112,102282
108251,102455
108295,102446
108262,102407
108202,102326
108156,102324
108323,102519
108374,102500
108356,102481
108319,102387
108287,102453
108453,102594
108519,102592
108520,102586
108438,102501
108435,102477
108618,102698
108661,102657
108658,102664
108558,102545
108566,102574
108675,102748
108745,102739
108710,102697
108598,102610
108590,102593
108756,102783
108799,102765
108755,102735
108655,102596
108634,102595
108784,102775
108852,102769
108809,102759
108688,102602
108686,102635
108801,102790
108833,102802
108810,102736
108773,102677
108692,102656
108870,102840
108880,102788
108862,102768
108777,102640
108725,102692
108884,102837
108931,102815
108856,102776
108787,102655
108735,102674
108923,102886
108939,102803
108887,102782
108761,102672
108800,102690
108925,102881
108921,102809
108917,102781
108780,102647
108797,102681
108937,102872
108920,102815
108903,102751
108815,102683
108783,102695
108925,102871
108952,102812
108912,102790
108836,102697
108803,102679
108957,102882
108978,102847
108928,102795
108838,102701
108834,102738
108983,102893
108974,102822
108938,102788
108821,102651
108845,102738
108996,102900
108953,102791
108967,102836
108830,102685
108849,102760
109006,102898
108988,102837
108977,102813
108823,102672
108849,102777
109045,102917
108982,102849
108992,102816
108883,102704
108840,102747
109050,102896
108979,102867
108969,102827
108880,102704
108866,102752
109077,102915
108998,102871
108994,102842
108861,102702
108874,102778
109061,102915
109040,102860
108984,102835
108900,102699
108911,102773
109075,102934
109063,102856
109017,102831
108881,102711
108921,102782
109116,102958
109066,102876
109000,102851
108878,102728
108949,102796
109067,102935
109068,102898
109032,102842
108880,102712
108919,102789
109131,102928
109060,102888
109028,102856
108927,102712
108961,102847
109119,102943
109092,102898
109006,102867
108940,102733
108977,102836
109084,102942
109075,102906
109042,102827
108893,102711
108959,102817
109068,102946
109056,102881
108977,102822
108827,102657
108780,102736
108780,102732
108620,102657
108472,102478
108155,102273
108025,102322
108029,102343
107872,102236
107744,102148
107465,101931
107439,102004
107393,102077
107284,101959
107215,101917
107012,101773
107036,101864
107104,101938
107057,101891
106977,101837
106870,101701
106921,101833
107039,101931
107030,101896
107028,101897
106937,101754
107006,101901
107186,101999
107168,101974
107166,101963
107062,101852
107151,102005
107342,102090
107313,102069
107330,102053
107170,101912
107315,102068
107431,102182
107398,102137
107392,102076
107293,102002
107354,102092
107476,102143
107416,102120
107341,102028
107216,101925
107268,102045
107361,102097
107349,102053
107294,102011
107122,101899
107257,102017
107339,102131
107345,102091
107311,102045
107248,101948
107338,102072
107438,102149
107451,102140
107403,102077
107290,101986
107388,102111
107519,102175
107441,102147
107407,102113
107304,101992
107400,102121
107489,102158
107426,102155
107341,102044
107190,101940
107261,102052
107312,102101
107220,102037
107162,101980
106987,101805
107018,101925
107040,102002
106955,101897
106882,101842
