11111,11111
0,0
80555,80578
100081,99779
100060,99766
100013,99735
100026,99753
100100,99763
100090,99791
100087,99804
100052,99751
100089,99779
100140,99772
100183,99808
100152,99817
100121,99771
100124,99773
100213,99799
100248,99843
100200,99800
100213,99815
100256,99810
100258,99863
100284,99829
100275,99870
100241,99817
100294,99839
100334,99848
100347,99878
100382,99842
100323,99874
100339,99838
100388,99890
100457,99928
100376,99866
100384,99860
100375,99869
100445,99916
100472,99934
100411,99879
100422,99859
100477,99930
100515,99908
100494,99949
100485,99903
100482,99882
100521,99911
100569,99960
100512,99961
100558,99925
100493,99924
100521,99971
100586,99984
100578,99927
100620,99976
100539,99963
100582,99959
100593,99983
100641,99969
100627,100004
100559,99938
100658,99982
100680,100007
100680,100018
100680,99995
100656,99981
100733,100014
100741,100052
100722,100034
100784,100033
100701,99985
100815,100056
100791,100021
100822,100052
100802,100052
100829,100017
100846,100048
100890,100107
100887,100099
100907,100060
100910,100066
100900,100122
100961,100102
101000,100139
100967,100088
100949,100080
100988,100143
101004,100149
101003,100167
101031,100123
101000,100127
101074,100141
101121,100165
101101,100186
101125,100169
101052,100139
101157,100202
101165,100226
101162,100173
101158,100220
101141,100146
101242,100243
101238,100222
101253,100229
101249,100247
101209,100188
101314,100256
101339,100262
101336,100300
101330,100237
101294,100211
101412,100334
101398,100313
101395,100324
101398,100247
101346,100253
101391,100296
101314,100268
101223,100248
101178,100157
101089,100145
101035,100098
101001,100111
100868,100052
100767,100002
100698,99932
99824,99603
100081,99680
100074,99693
100279,99768
100228,99736
100243,99746
100258,99780
100232,99750
100197,99732
100242,99749
100454,99847
100473,99874
100470,99852
100484,99830
100472,99858
100501,99890
100582,99911
100555,99906
100558,99885
100553,99867
100558,99949
100619,99910
100590,99933
100606,99924
100611,99897
100628,99931
100695,99961
100639,99964
100693,99917
100671,99899
100736,99960
100746,100012
100734,99944
100757,99994
100699,99941
100776,99982
100783,100022
100787,99978
100828,100025
100780,99958
100820,99992
100827,100040
100819,100007
100866,100011
100784,99970
100871,100002
100866,100021
100885,100033
100879,100028
100810,99990
100899,100053
100928,100024
100883,100018
100893,100020
100858,100020
100922,100015
100918,100048
100920,100017
100897,100015
100895,99995
100918,100065
100968,100065
100917,100029
100918,100031
100884,100009
100968,100038
100957,100061
100981,100088
100980,100041
100919,100057
100980,100019
101006,100110
100996,100067
100975,100054
100954,100038
101021,100075
101050,100107
101019,100074
100982,100028
100985,100042
101031,100066
101069,100099
101029,100044
101012,100073
101024,100061
101043,100078
101085,100097
101093,100110
101053,100044
101034,100062
101082,100111
101130,100117
101104,100135
101126,100084
101102,100091
101142,100123
101154,100124
101117,100121
101155,100117
101115,100099
101217,100154
101209,100165
101179,100169
101174,100107
101188,100144
101220,100164
101254,100161
101237,100173
101231,100158
101223,100163
101256,100175
101320,100199
101284,100215
101265,100185
101299,100165
101345,100205
101355,100248
101338,100184
101301,100209
101316,100166
101372,100220
101315,100244
101297,100203
101215,100111
101170,100107
101124,100091
101043,100076
100922,100003
100851,99948
100792,99945
100706,99907
100668,99874
100543,99847
100464,99800
100390,99742
100353,99775
100318,99734
100189,99713
100135,99634
100037,99623
100072,99608
100010,99630
99925,99572
99847,99521
99831,99522
99802,99557
99776,99500
99707,99493
99672,99424
99672,99470
99662,99472
99620,99432
99628,99445
99560,99401
99556,99390
99609,99428
99635,99462
99591,99431
99522,99415
99530,99387
99633,99463
99567,99444
99568,99431
99566,99380
99595,99454
99610,99430
99641,99460
99610,99462
99544,99381
99624,99422
99648,99464
99614,99452
99619,99461
99563,99396
99625,99456
99660,99491
99586,99447
99598,99406
99600,99425
99610,99438
99613,99459
99619,99477
99575,99402
99591,99422
99580,99444
99626,99440
99664,99472
99599,99433
99603,99426
99619,99464
99645,99445
99658,99446
99670,99458
99634,99419
99624,99474
99661,99451
99635,99503
99643,99423
99579,99396
99626,99450
99596,99454
99559,99434
99571,99387
99498,99365
99543,99416
99578,99399
99547,99399
99491,99358
99486,99347
99514,99385
99498,99388
99496,99373
99441,99319
99396,99325
99441,99338
99457,99346
99438,99328
99417,99342
99373,99322
99403,99327
99454,99373
99420,99330
99384,99326
99364,99274
99377,99301
99463,99376
99382,99344
99417,99305
99336,99318
99435,99366
99442,99361
99435,99350
99413,99337
99384,99306
99457,99347
99448,99372
99464,99336
99454,99377
99409,99298
99489,99403
99513,99389
99500,99384
99504,99334
99480,99376
99519,99375
99581,99405
99565,99392
99554,99359
99509,99380
99597,99384
99596,99440
99600,99417
99604,99371
99553,99381
99674,99437
99647,99451
99622,99424
99655,99423
99658,99408
99703,99454
99755,99515
99705,99454
99757,99465
99707,99462
99813,99492
99792,99501
99825,99497
99780,99529
99804,99478
99855,99535
99880,99539
99890,99534
99839,99495
99868,99513
99944,99521
99944,99572
99944,99570
99917,99491
99933,99544
99980,99604
100017,99591
100008,99590
99996,99549
99992,99586
100012,99558
100040,99647
100029,99587
100038,99581
100045,99576
100066,99631
100101,99621
100118,99623
100059,99575
100079,99628
100136,99626
100171,99656
100110,99647
100100,99608
100154,99591
100124,99654
100188,99666
100150,99609
100126,99628
100114,99610
100214,99651
100169,99670
100170,99669
100154,99615
100192,99656
100206,99713
100261,99690
100220,99664
100233,99654
100199,99643
100302,99687
100284,99720
100270,99690
100261,99646
100319,99690
100306,99722
100366,99731
100345,99739
100340,99674
100356,99699
100366,99750
100382,99754
100386,99722
100391,99740
100395,99721
100438,99773
100446,99780
100431,99744
100473,99744
100426,99752
100501,99813
100501,99827
100502,99788
100503,99736
100537,99818
100536,99813
100601,99856
100598,99825
100535,99806
100611,99810
100640,99882
100679,99845
100650,99856
100641,99817
100677,99897
100745,99887
100737,99880
100680,99869
100718,99873
100724,99890
100748,99901
100792,99912
100769,99933
100736,99860
100811,99915
100833,99920
100817,99945
100744,99874
100785,99890
100747,99864
100761,99888
100696,99865
100644,99834
100536,99763
100489,99788
100454,99725
100315,99702
100264,99663
100123,99576
100084,99563
99977,99554
99923,99491
99803,99461
99653,99339
99672,99370
99577,99367
99452,99312
99434,99249
99269,99221
99281,99230
99247,99223
99132,99178
99097,99150
99017,99079
99009,99111
99022,99115
98929,99069
98882,99050
98808,98996
98835,99044
98838,99021
98783,99011
98770,99013
98716,98959
98744,99001
98761,99007
98731,98980
98703,99001
98674,98960
98724,98979
98748,99014
98740,98982
98715,98982
98704,98977
98755,99008
98761,99011
98774,99012
98769,99008
98742,98971
98801,99033
98813,99069
98798,98997
98802,99046
98764,98963
98818,99037
98824,99060
98835,99025
98818,99064
98813,99007
98846,99061
98882,99073
98834,99055
98805,99034
98825,99024
98851,99045
98870,99061
98862,99063
98829,99050
98843,99050
98879,99086
98892,99078
98900,99057
98894,99079
98880,99034
98934,99072
98941,99106
98898,99102
98874,99021
98863,99066
98885,99074
98956,99071
98891,99066
98856,99046
98875,99056
98922,99076
98868,99072
98873,99063
98816,98985
98819,99050
98810,99055
98854,99077
98803,99037
98848,98988
98767,99021
98821,99055
98844,99039
98796,99048
98741,98954
98733,99006
98817,99016
98782,99013
98774,99008
98733,98969
98711,99024
98779,99024
98757,99033
98761,98992
98783,98999
98773,98993
98792,99038
98845,99026
98813,99026
98756,98989
98811,99027
98860,99044
98837,99035
98859,99051
98795,99059
98864,99060
98887,99054
98911,99078
98851,99068
98892,99038
98900,99050
98972,99102
98977,99103
98979,99068
98927,99108
98970,99112
98984,99115
99046,99159
99025,99131
99028,99074
99043,99136
99111,99195
99152,99163
99115,99180
99120,99107
99157,99188
99182,99212
99200,99217
99164,99186
99190,99155
99220,99227
99266,99235
99295,99207
99257,99238
99253,99236
99301,99214
99377,99263
99373,99265
99344,99268
99292,99223
99348,99252
99418,99297
99372,99272
99393,99271
99368,99241
99399,99305
99445,99320
99436,99286
99460,99299
99390,99277
99491,99336
99483,99335
99456,99311
99483,99297
99437,99309
99492,99320
99530,99320
99525,99357
99496,99336
99545,99318
99507,99327
99560,99360
99597,99374
99546,99324
99564,99315
99577,99329
99658,99369
99627,99401
99620,99369
99558,99303
99636,99395
99708,99392
99711,99408
99687,99389
99640,99357
99689,99407
99729,99398
99708,99427
99690,99380
99668,99362
99771,99436
99783,99457
99747,99405
99814,99434
99715,99422
99804,99459
99833,99472
99832,99477
99782,99462
99803,99428
99828,99466
99867,99477
99879,99478
99886,99501
99824,99425
99926,99498
99931,99520
99944,99529
99948,99504
99903,99491
99949,99517
100013,99531
100007,99546
99974,99518
100006,99529
100028,99532
100070,99596
100059,99572
100084,99555
100067,99562
100153,99591
100134,99598
100164,99610
100100,99573
100122,99572
100168,99619
100229,99653
100179,99656
100143,99599
100183,99597
100156,99584
100167,99614
100095,99565
100018,99520
99939,99499
99910,99492
99863,99432
99774,99387
99664,99348
99581,99332
99517,99336
99477,99256
99357,99249
99280,99189
99161,99125
99192,99142
99085,99149
98995,99045
98947,99057
98831,98951
98856,98999
98788,99011
98706,98944
98677,98885
98574,98912
98610,98917
98608,98899
98513,98875
98480,98825
98474,98855
98472,98839
98448,98824
98450,98858
98429,98812
98413,98802
98460,98848
98454,98833
98455,98826
98408,98807
98404,98834
98449,98816
98498,98874
98460,98825
98424,98823
98432,98828
98503,98837
98532,98934
98541,98863
98495,98861
98504,98868
98541,98866
98556,98896
98575,98889
98488,98852
98564,98883
98574,98910
98618,98908
98564,98905
98517,98860
98574,98926
98601,98911
98612,98908
98626,98924
98563,98882
98621,98901
98640,98965
98671,98921
98646,98919
98647,98901
98681,98925
98716,98991
98694,98934
98718,98994
98663,98933
98754,98951
98749,98977
98771,99015
98725,98964
98675,98925
98747,98960
98772,98959
98721,98991
98711,98920
98741,98948
98743,98979
98777,98995
98787,98993
98748,98977
98709,98916
98745,99007
98767,98972
98799,99000
98775,98998
98695,98936
98763,99001
98759,99002
98778,98989
98748,98968
98753,98960
98740,98963
98801,98987
98772,99007
98758,98997
98737,98973
98759,98962
98816,98999
98760,99016
98770,98965
98739,98958
98796,99000
98790,99008
98765,99008
98777,98978
98782,98958
98793,98986
98837,99032
98824,99034
98801,98985
98782,98970
98831,98998
98897,99068
98861,99032
98869,99004
98865,98995
98867,99025
98937,99063
98914,99023
98910,99021
98916,99027
98961,99083
99000,99111
98954,99038
98987,99098
98929,99056
99054,99095
99037,99122
99003,99113
99019,99053
98968,99060
99070,99117
99074,99127
99101,99103
99083,99143
99045,99053
99124,99142
99182,99153
99134,99159
99140,99136
99167,99127
99183,99178
99232,99187
99197,99188
99236,99180
99203,99125
99303,99204
99296,99248
99264,99194
99257,99201
99262,99175
99298,99236
99283,99211
99311,99224
99296,99196
99267,99188
99344,99220
99328,99236
99300,99212
99270,99187
99282,99190
99323,99214
99319,99234
99290,99193
99264,99186
99267,99188
99303,99193
99320,99222
99286,99205
99277,99202
99289,99170
99290,99203
99323,99208
99300,99197
99296,99204
99288,99179
99306,99188
99340,99213
99354,99186
99288,99186
99308,99182
99323,99220
99365,99243
99312,99181
99317,99188
99362,99188
99357,99237
99388,99238
99371,99262
99342,99223
99365,99194
99406,99222
99436,99244
99446,99262
99394,99235
99423,99250
99495,99269
99500,99314
99522,99265
99498,99293
99505,99224
99587,99302
99573,99316
99574,99342
99533,99297
99569,99282
99628,99361
99605,99341
99674,99320
99622,99317
99630,99344
99721,99360
99675,99400
99637,99294
99620,99348
99603,99298
99563,99334
99513,99273
99426,99236
99363,99191
99281,99158
99242,99177
99153,99107
99100,99102
98958,99003
98918,98995
98880,99000
98820,98960
98675,98895
98637,98849
98558,98837
98532,98854
98451,98795
98375,98803
98310,98709
98264,98682
98271,98746
98185,98732
98153,98689
98062,98635
98090,98646
98112,98679
98085,98630
98011,98637
98004,98603
98043,98605
98047,98639
98005,98671
98018,98596
97968,98598
98012,98621
98019,98639
98028,98648
98052,98638
97969,98594
98030,98649
98075,98684
98065,98634
98032,98645
98023,98627
98087,98655
98082,98677
98122,98684
98071,98668
98065,98650
98112,98680
98163,98698
98132,98734
98139,98699
98140,98660
98172,98700
98179,98725
98218,98725
98193,98718
98157,98690
98190,98714
98282,98759
98251,98764
98242,98716
98238,98698
98268,98746
98304,98780
98358,98796
98315,98750
98325,98764
98381,98775
98391,98823
98424,98795
98352,98781
98364,98788
98422,98826
98419,98835
98412,98823
98420,98786
98366,98803
98461,98832
98426,98868
98420,98818
98421,98804
98398,98805
98454,98816
98478,98873
98406,98834
98410,98847
98388,98821
98436,98864
98440,98829
98460,98845
98425,98793
98395,98792
98443,98867
98460,98837
98472,98875
98461,98812
98416,98813
98503,98847
98508,98901
98478,98826
98493,98871
98494,98841
98546,98915
98596,98906
98593,98932
98596,98889
98573,98878
98670,98946
98715,98956
98659,98962
98686,98964
98688,98923
98718,98963
98823,98973
98784,99007
98773,98959
98784,98971
98863,99002
98895,99053
98867,99050
98895,99053
98901,99061
98969,99078
98966,99121
98995,99061
98977,99083
99038,99112
99079,99121
99076,99149
99103,99164
99115,99106
99102,99107
99171,99192
99187,99165
99164,99172
99192,99185
99192,99145
99220,99189
99300,99221
99242,99224
99245,99193
99292,99215
99301,99229
99329,99216
99374,99270
99351,99211
99334,99236
99406,99271
99420,99280
99427,99287
99425,99246
99410,99270
99468,99293
99545,99321
99470,99339
99482,99299
99502,99309
99575,99343
99559,99343
99585,99313
99523,99306
99576,99338
99622,99341
99655,99384
99625,99346
99604,99322
99610,99365
99692,99401
99665,99423
99672,99394
99687,99365
99699,99379
99727,99387
99760,99412
99711,99374
99743,99401
99710,99425
99784,99458
99792,99402
99782,99441
99756,99400
99781,99424
99809,99494
99818,99452
99870,99442
99832,99447
99854,99471
99903,99492
99908,99473
99911,99496
99870,99452
99920,99468
99981,99517
99960,99471
99967,99521
99941,99490
99978,99547
100041,99542
100038,99573
100034,99530
99981,99543
100053,99525
100097,99573
100108,99523
100083,99594
100075,99554
100149,99556
100161,99608
100191,99599
100166,99626
100137,99591
100247,99620
100261,99612
100308,99644
100281,99640
100269,99622
100303,99668
100348,99669
100357,99671
100320,99698
100279,99599
100335,99649
100272,99636
100206,99615
100150,99590
100021,99493
100013,99500
99934,99459
99867,99432
99748,99369
99607,99284
99595,99330
99534,99327
99414,99211
99373,99224
99257,99142
99238,99164
99223,99167
99117,99085
99045,99104
98941,99001
98939,99058
98946,99042
98837,99009
98841,98984
98742,98973
98752,98950
98781,98980
98742,98949
98709,98952
98638,98889
98646,98961
98712,98938
98678,98909
98648,98945
98599,98907
98711,98921
98682,98959
98654,98913
98698,98963
98681,98920
98707,98931
98743,99000
98701,98971
98763,98949
98723,98923
98801,98964
98826,99016
98787,99013
98788,98952
98786,98999
98831,98987
98880,99035
98884,99027
98846,99010
98806,99010
98895,99042
98916,99039
98888,99074
98875,98985
98865,99018
98928,99027
98954,99059
98883,99048
98897,98988
98901,99031
98936,99089
98978,99062
98961,99065
98935,99039
98951,99048
98957,99082
99003,99077
99000,99114
98983,99051
98964,99090
99019,99066
98988,99094
98983,99052
98956,99092
98954,99055
99007,99078
99024,99093
98975,99094
98952,99035
98998,99055
98980,99096
98991,99082
98972,99050
98923,99034
98984,99037
98952,99112
98983,99070
98966,99056
98950,99047
98944,99030
98972,99100
98980,99057
98978,99093
98917,99042
98950,99044
98980,99056
99006,99091
98945,99081
98940,99056
98941,99065
98963,99090
99016,99090
98981,99038
99000,99080
98977,99051
99011,99081
99030,99122
99056,99121
99027,99050
99054,99097
99097,99162
99075,99159
99116,99146
99092,99105
99124,99116
99176,99204
99214,99170
99219,99169
99206,99146
99198,99152
99303,99221
99282,99206
99281,99210
99253,99144
99332,99221
99308,99258
99369,99253
99375,99215
99314,99225
99358,99218
99445,99274
99447,99280
99437,99258
99393,99264
99459,99259
99511,99309
99501,99313
99502,99299
99471,99255
99561,99319
99548,99304
99545,99326
99568,99346
99535,99292
99615,99363
99612,99330
99634,99372
99593,99346
99588,99334
99667,99356
99646,99387
99669,99378
99682,99393
99639,99359
99697,99395
99731,99364
99745,99414
99696,99404
99728,99363
99765,99404
99760,99422
99786,99437
99747,99444
99728,99364
99794,99453
99822,99402
99804,99438
99826,99437
99803,99408
99842,99463
99856,99441
99869,99458
99834,99463
99815,99422
99888,99462
99947,99515
99879,99463
99923,99465
99856,99427
99958,99503
99932,99469
99987,99486
99945,99493
99918,99465
99997,99519
100023,99513
99996,99501
99967,99464
99987,99470
100011,99506
100019,99509
100018,99508
100020,99516
100029,99472
100052,99542
100043,99581
100031,99527
100095,99538
100040,99493
100104,99526
100103,99588
100116,99562
100084,99554
100092,99507
100179,99595
100161,99562
100164,99571
100182,99581
100153,99558
100232,99575
100236,99617
100240,99581
100226,99585
100226,99611
100294,99639
100316,99669
100276,99613
100313,99640
100266,99595
100343,99628
100327,99668
100247,99600
100249,99582
100169,99543
100145,99548
100068,99532
99964,99476
99879,99372
99775,99395
99740,99320
99654,99325
99588,99286
99433,99219
99384,99206
99352,99175
99277,99185
99183,99098
99090,99092
99044,99050
99000,99041
98963,99075
98874,98968
98825,98959
98787,98917
98796,98955
98725,98908
98716,98885
98625,98918
98602,98877
98665,98884
98649,98914
98601,98858
98580,98861
98556,98837
98628,98878
98601,98904
98623,98876
98551,98845
98608,98883
98634,98896
98640,98921
98656,98900
98597,98865
98646,98880
98670,98907
98723,98923
98699,98922
98685,98913
98666,98908
98729,98955
98729,98956
98749,98957
98735,98936
98740,98941
98791,98975
98797,98961
98764,98954
98754,98931
98766,98928
98835,98950
98781,98963
98805,98941
98776,98966
98808,98950
98875,98987
98844,99015
98817,98946
98842,98978
98854,98991
98898,98998
98882,99032
98898,98969
98810,98992
98850,98980
98934,99035
98935,99009
98900,98988
98840,98993
98879,98988
98932,99016
98879,99007
98919,99008
98836,98989
98895,98970
98901,99039
98915,98979
98859,98987
98827,98990
98868,98981
98929,99007
98886,98985
98863,99008
98810,98972
98864,98975
98835,99015
98887,99031
98857,98991
98843,98964
98850,99010
98852,98966
98880,99005
98849,99003
98842,98963
98837,99002
98947,99019
98895,99019
98934,98994
98889,99010
98914,99012
98958,99021
98965,99029
98974,99050
98956,99024
98980,99061
99059,99054
99024,99073
99049,99083
99051,99024
99080,99084
99147,99138
99125,99086
99092,99096
99095,99088
99167,99137
99212,99146
99192,99168
99223,99155
99177,99118
99271,99186
99299,99189
99317,99201
99312,99186
99295,99176
99372,99210
99431,99262
99384,99205
99428,99248
99389,99208
99436,99257
99532,99280
99476,99300
99502,99227
99518,99272
99545,99302
99572,99280
99594,99299
99578,99329
99564,99252
99622,99346
99667,99347
99656,99350
99667,99311
99642,99325
99709,99327
99751,99389
99695,99361
99722,99353
99711,99325
99773,99378
99782,99358
99773,99378
99757,99371
99720,99333
99800,99373
99811,99441
99784,99371
99765,99377
99756,99351
99790,99395
99827,99381
99806,99421
99778,99345
99785,99343
99832,99396
99829,99389
99845,99380
99790,99396
99768,99369
99853,99411
99832,99409
99838,99411
99856,99372
99804,99394
99862,99406
99885,99457
99876,99407
99864,99381
99864,99406
99919,99400
99980,99477
99931,99435
99952,99418
99949,99414
100005,99451
100003,99500
100023,99463
100015,99430
100007,99451
100039,99499
100077,99485
100036,99490
100068,99447
100084,99469
100117,99503
100190,99557
100120,99508
100102,99535
100149,99508
100196,99522
100251,99578
100239,99580
100200,99533
100259,99569
100279,99605
100286,99624
100260,99561
100288,99573
100262,99551
100291,99562
100262,99595
100194,99542
100126,99497
100053,99445
100020,99433
99931,99422
99850,99351
99741,99291
99667,99296
99608,99257
99540,99202
99443,99184
99280,99073
99242,99108
99190,99068
99155,99021
99090,99013
98952,98948
98946,98967
98885,98948
98847,98911
98774,98894
98692,98858
98709,98834
98663,98872
98652,98839
98608,98814
98549,98763
98550,98830
98576,98785
98583,98824
98558,98795
98477,98760
98514,98779
98563,98821
98564,98781
98544,98789
98505,98756
98526,98799
98599,98810
98563,98820
98581,98796
98543,98809
98591,98833
98650,98870
98595,98822
98622,98798
98611,98825
98651,98833
98703,98869
98659,98871
98640,98824
98675,98850
98665,98844
98712,98853
98705,98843
98695,98869
98668,98815
98722,98867
98751,98865
98728,98899
98744,98887
98725,98873
98748,98928
98784,98891
98838,98940
98811,98899
98771,98862
98864,98910
98879,98972
98855,98923
98856,98961
98816,98901
98880,98939
98917,98968
98858,98913
98863,98983
98814,98866
98868,98964
98884,98928
98870,98906
98878,98917
98801,98893
98884,98939
98863,98941
98859,98885
98861,98914
98793,98902
98861,98919
98839,98961
98861,98922
98816,98908
98823,98869
98830,98954
98850,98922
98851,98943
98817,98890
98827,98876
98846,98900
98918,98954
98844,98943
98865,98920
98843,98884
98904,98939
98920,98961
98920,98957
98899,98962
98890,98895
98934,98982
98967,98996
98950,98985
98918,98943
98926,98942
98985,98954
99036,99038
99044,98983
99024,98989
99039,99024
99044,99010
99097,99032
99094,99013
99110,99020
99067,99024
99158,99051
99158,99102
99186,99051
99175,99079
99183,99049
99234,99126
99257,99094
99244,99119
99230,99072
99270,99127
99350,99133
99310,99137
99348,99127
99307,99131
99293,99096
99390,99149
99368,99180
99372,99158
99316,99110
99342,99146
99416,99157
99439,99190
99443,99206
99404,99162
99373,99150
99486,99172
99466,99246
99471,99209
99427,99162
99486,99163
99517,99240
99499,99216
99549,99228
99477,99205
99505,99207
99538,99247
99522,99234
99522,99219
99474,99168
99531,99216
99542,99245
99579,99262
99510,99192
99497,99168
99501,99208
99530,99245
99582,99252
99551,99192
99515,99188
99529,99216
99528,99207
99529,99211
99520,99222
99512,99166
99527,99166
99565,99227
99548,99248
99541,99201
99466,99148
99487,99195
99547,99180
99506,99216
99542,99202
99464,99135
99502,99182
99478,99187
99540,99189
99443,99143
99436,99133
99469,99130
99517,99173
99458,99184
99497,99157
99460,99185
99511,99157
99553,99194
99568,99225
99558,99214
99508,99197
99601,99206
99613,99270
99612,99239
99613,99235
99600,99243
99702,99265
99680,99308
99692,99228
99697,99252
99680,99231
99703,99247
99728,99274
99718,99299
99688,99243
99652,99215
99624,99236
99616,99242
99520,99183
99491,99168
99328,99110
99309,99065
99282,99047
99129,99024
99069,98945
98989,98937
98919,98875
98887,98893
98761,98852
98702,98782
98581,98738
98549,98716
98539,98742
98399,98697
98336,98657
98263,98591
98275,98641
98241,98582
98165,98586
98113,98547
98043,98514
98077,98522
98077,98550
97984,98476
97997,98500
97899,98464
97986,98481
97983,98531
97931,98471
97988,98481
97907,98474
97976,98474
98011,98537
97968,98529
97962,98466
97991,98485
97990,98495
98066,98538
98039,98529
98042,98521
98025,98506
98087,98555
98128,98570
98110,98574
98085,98548
98086,98559
98147,98575
98153,98577
98124,98585
98101,98565
98106,98559
98170,98585
98182,98593
98166,98582
98131,98563
98149,98540
98172,98608
98229,98599
98211,98597
98192,98619
98201,98598
98238,98617
98304,98632
98286,98612
98251,98620
98219,98632
98297,98644
98291,98657
98293,98659
98255,98631
98273,98627
98288,98626
98307,98667
98277,98670
98235,98607
98269,98598
98264,98659
98285,98665
98267,98657
98226,98588
98248,98593
98242,98595
98265,98642
98228,98590
98201,98592
98205,98579
98194,98612
98274,98633
98206,98600
98198,98587
98203,98575
98235,98628
98230,98589
98243,98653
98224,98599
98201,98601
98277,98632
98259,98665
98284,98618
98281,98631
98272,98642
98317,98645
98338,98687
98320,98674
98303,98658
98351,98677
98370,98716
98365,98672
98413,98716
98374,98684
98397,98657
98486,98719
98458,98761
98462,98728
98480,98688
98427,98736
98535,98769
98555,98757
98519,98775
98505,98727
98582,98781
98592,98763
98643,98794
98597,98778
98575,98765
98631,98770
98706,98816
98683,98870
98702,98833
98687,98792
98715,98832
98811,98864
98786,98870
98805,98855
98805,98855
98859,98892
98866,98904
98889,98883
98886,98924
98816,98897
98919,98923
98946,98938
98941,98964
98963,98912
98919,98924
98968,98954
99013,98945
99020,98982
99000,98916
98974,98956
99009,98953
99055,98965
99000,98965
99012,99012
98958,98898
99078,98981
99075,98973
99071,98992
99073,99002
99003,98924
99098,98979
99089,98987
99111,99013
99109,98982
99072,98975
99104,98996
99176,99019
99095,98978
99144,99025
99107,98991
99203,98995
99188,99062
99186,98995
99173,99045
99132,98986
99177,99022
99200,99094
99191,98998
99200,99056
99139,98970
99186,99056
99263,99072
99241,99034
99195,99047
99202,98973
99236,99067
99286,99070
99235,99050
99264,99069
99222,99027
99272,99071
99309,99056
99305,99081
99309,99045
99269,99055
99327,99043
99383,99132
99337,99135
99341,99076
99340,99089
99371,99122
99406,99088
99405,99149
99421,99069
99392,99082
99465,99128
99487,99139
99511,99177
99477,99099
99477,99135
99531,99151
99575,99175
99512,99167
99530,99160
99534,99158
99618,99197
99628,99217
99594,99212
99583,99176
99603,99183
99620,99250
99636,99207
99644,99217
99615,99209
99625,99180
99607,99186
99619,99207
99473,99176
99394,99092
99335,99065
99269,99067
99198,98994
99127,98992
98989,98872
98901,98848
98867,98835
98768,98819
98638,98755
98581,98721
98485,98637
98409,98650
98388,98616
98231,98562
98224,98556
98101,98537
98119,98494
98035,98490
98031,98496
97926,98386
97889,98402
97853,98430
97878,98397
97794,98398
97798,98383
97774,98358
97782,98405
97782,98378
97776,98387
97724,98348
97734,98357
97775,98414
97751,98377
97793,98378
97759,98351
97763,98376
97833,98395
97812,98413
97836,98424
97778,98368
97856,98383
97833,98407
97884,98430
97849,98444
97821,98388
97897,98425
97867,98466
97922,98447
97870,98427
97886,98423
97847,98435
97926,98471
97879,98457
97875,98435
97825,98408
97906,98427
97920,98427
97939,98472
97894,98421
97884,98403
97932,98435
97941,98476
98009,98471
97958,98473
97959,98436
98013,98462
98025,98512
98052,98517
98055,98516
97984,98478
98075,98487
98065,98541
98063,98520
98068,98492
98036,98493
98042,98500
98130,98531
98071,98499
98097,98481
98046,98474
98129,98542
98108,98500
98101,98530
98112,98519
98079,98482
98111,98524
98117,98550
98140,98554
98123,98543
98097,98505
98124,98534
98163,98583
98129,98550
98197,98565
98114,98502
98190,98537
98215,98591
98172,98564
98213,98590
98147,98512
98274,98629
98270,98614
98280,98600
98274,98618
98234,98570
98365,98639
98366,98607
98324,98644
98361,98640
98304,98614
98415,98651
98418,98655
98412,98649
98434,98647
98418,98652
98510,98683
98492,98725
98529,98686
98527,98730
98505,98684
98599,98751
98636,98748
98663,98774
98621,98739
98643,98754
98716,98803
98739,98817
98701,98805
98746,98801
98730,98794
98818,98808
98872,98852
98829,98834
98840,98835
98823,98832
98916,98857
98961,98921
98925,98885
98857,98881
98890,98837
98986,98932
98969,98881
98978,98897
98955,98864
98989,98891
99028,98943
99037,98924
99075,98945
99025,98904
99036,98919
99061,98946
99145,98960
99072,98987
99054,98914
99048,98947
99140,98952
99097,98980
99099,98922
99113,98984
99068,98908
99121,98982
99137,98964
99097,98962
99091,98930
99031,98951
99139,98995
99107,98979
99102,98977
99120,98944
99131,98949
99137,98977
99202,98999
99116,99010
99145,98945
99159,98962
99181,99024
99175,98984
99252,99009
99192,98987
99206,98992
99224,99040
99258,99020
99283,99051
99235,98974
99241,99034
99291,99060
99346,99076
99313,99045
99291,98998
99344,99042
99341,99116
99387,99111
99370,99068
99368,99095
99348,99049
99454,99123
99451,99119
99447,99083
99450,99096
99440,99103
99542,99134
99502,99152
99515,99098
99509,99138
99518,99139
99608,99210
99554,99177
99591,99143
99595,99170
99583,99172
99700,99242
99667,99213
99674,99183
99720,99220
99713,99206
99804,99302
99799,99255
99802,99288
99807,99227
99895,99283
99933,99339
99954,99310
99937,99316
99904,99307
99993,99342
100020,99372
100057,99392
100015,99363
100004,99331
100065,99400
100092,99389
100128,99422
100096,99383
100060,99406
100130,99409
100194,99448
100132,99408
100101,99431
100028,99338
100004,99360
99895,99298
99792,99259
99723,99226
99557,99102
99515,99128
99433,99086
99329,99018
99200,98969
99094,98917
99041,98899
98975,98871
98900,98845
98820,98809
98700,98746
98659,98745
98604,98733
98560,98697
98508,98670
98415,98615
98398,98624
98391,98621
98352,98620
98338,98568
98213,98539
98263,98554
98269,98574
98221,98537
98211,98518
98172,98498
98188,98537
98240,98560
98215,98533
98186,98569
98128,98467
98254,98575
98258,98544
98231,98559
98247,98580
98212,98523
98277,98579
98269,98577
98262,98577
98285,98562
98294,98551
98342,98604
98356,98611
98325,98610
98300,98606
98281,98546
98381,98625
98336,98588
98328,98588
98343,98597
98276,98567
98355,98587
98333,98642
98304,98605
98351,98588
98286,98566
98301,98574
98351,98624
98300,98589
98348,98570
98274,98584
98344,98608
98344,98576
98353,98600
98301,98620
98333,98543
98364,98627
98397,98612
98350,98597
98324,98566
98333,98529
98375,98620
98341,98591
98374,98631
98302,98571
98307,98581
98329,98615
98368,98589
98352,98601
98301,98557
98277,98555
98336,98593
98320,98553
98299,98584
98285,98578
98278,98537
98338,98595
98292,98549
98300,98592
98260,98514
98283,98556
98304,98573
98307,98609
98284,98540
98276,98530
98280,98520
98344,98611
98301,98596
98286,98584
98258,98571
98289,98519
98373,98614
98344,98585
98358,98601
98305,98596
98365,98577
98405,98654
98416,98586
98425,98607
98388,98587
98408,98606
98436,98637
98520,98646
98461,98650
98455,98609
98461,98600
98529,98660
98551,98684
98501,98677
98553,98672
98551,98700
98576,98704
98613,98711
98582,98712
98617,98690
98602,98738
98646,98722
98694,98769
98656,98724
98635,98695
98717,98713
98740,98801
98735,98742
98749,98778
98726,98725
98741,98773
98791,98788
98798,98838
98853,98785
98833,98776
98858,98813
98906,98816
98909,98830
98854,98821
98871,98827
98921,98842
98960,98831
98946,98848
98953,98851
98890,98811
98987,98839
99008,98860
98976,98878
98995,98867
98998,98841
98983,98892
99035,98878
99061,98896
99001,98881
99011,98848
99059,98869
99053,98919
99088,98892
99045,98887
99025,98897
99068,98872
99081,98928
99114,98911
99091,98892
99047,98903
99116,98942
99179,98960
99123,98935
99145,98901
99139,98927
99200,98922
99198,98988
99229,98972
99227,98973
99223,98918
99266,98997
99320,99019
99260,98987
99301,98980
99246,98984
99346,98996
99338,99056
99343,99044
99329,99005
99333,98980
99386,99022
99406,98995
99396,99029
99365,99012
99350,98994
99428,99043
99480,99070
99453,99031
99448,99049
99400,99036
99483,99057
99486,99107
99512,99052
99493,99093
99489,99032
99536,99098
99554,99115
99591,99105
99587,99134
99563,99080
99629,99173
99634,99157
99661,99136
99691,99166
99640,99112
99770,99222
99746,99213
99760,99233
99780,99209
99735,99170
99829,99237
99853,99232
99778,99175
99746,99201
99696,99160
99679,99156
99611,99100
99541,99067
99387,99024
99328,98944
99239,98938
99165,98869
99012,98835
98906,98766
98790,98728
98734,98727
98699,98654
98580,98625
98458,98549
98392,98542
98359,98540
98264,98506
98231,98461
98156,98431
98058,98354
98117,98399
98027,98403
97993,98346
97878,98325
97885,98312
97894,98301
97846,98320
97813,98264
97775,98256
97721,98258
97775,98251
97768,98331
97757,98242
97729,98254
97763,98268
97758,98279
97769,98280
97764,98289
97747,98261
97815,98280
97834,98301
97856,98315
97834,98314
97818,98271
97821,98297
97903,98312
97876,98354
97893,98343
97892,98308
97871,98300
97941,98351
97955,98383
97943,98347
97912,98356
97957,98371
97919,98371
97958,98354
97921,98331
97916,98315
97967,98332
97975,98425
97965,98343
97958,98412
97938,98309
97930,98379
97991,98407
97996,98403
98051,98355
97967,98344
98028,98370
98037,98429
98026,98425
98041,98363
98054,98370
98018,98396
98051,98417
98038,98388
98057,98368
98014,98396
98031,98354
98063,98435
98022,98391
98005,98379
98004,98332
98000,98394
98004,98376
98009,98379
97967,98334
97958,98320
97970,98367
97979,98365
97992,98376
97972,98352
97909,98328
97967,98341
97992,98361
97924,98345
97987,98335
97897,98345
97925,98329
98015,98363
97992,98354
97999,98392
97920,98341
98039,98405
98022,98421
98056,98379
98062,98398
97990,98390
98084,98420
98046,98433
98124,98439
98098,98435
98084,98372
98098,98438
98154,98435
98132,98477
98157,98443
98118,98390
98208,98472
98267,98509
98209,98450
98243,98497
98194,98432
98290,98511
98296,98527
98289,98483
98327,98527
98256,98513
98345,98526
98373,98549
98366,98562
98367,98536
98360,98511
98397,98542
98429,98580
98450,98595
98443,98571
98381,98559
98508,98595
98488,98639
98482,98588
98496,98598
98441,98549
98550,98615
98574,98644
98523,98594
98552,98615
98514,98610
98612,98658
98574,98632
98615,98671
98575,98645
98559,98629
98642,98672
98663,98706
98656,98656
98686,98661
98619,98651
98700,98717
98736,98681
98690,98670
98733,98677
98677,98680
98770,98690
98786,98723
98729,98692
98736,98695
98733,98679
98767,98714
98829,98749
98786,98697
98750,98699
98746,98722
98844,98727
98849,98751
98803,98706
98821,98725
98781,98708
98829,98753
98882,98773
98871,98739
98838,98770
98843,98717
98912,98756
98870,98772
98894,98804
98862,98725
98908,98782
98921,98778
98968,98774
98954,98782
98885,98764
98928,98792
98925,98763
98976,98770
98999,98819
98967,98784
98974,98748
99078,98854
99013,98848
99022,98822
99023,98805
99054,98831
99072,98858
99114,98831
99068,98864
99099,98845
99093,98864
99190,98881
99176,98898
99183,98880
99127,98885
99187,98871
99230,98892
99219,98924
99234,98911
99167,98885
99220,98908
99266,98938
99314,98943
99293,98938
99231,98901
99306,98929
99325,98954
99375,98970
99372,98987
99342,98956
99362,98966
99390,98988
99397,98994
99346,98948
99276,98909
99221,98883
99178,98885
99091,98839
98956,98787
98867,98700
98773,98688
98733,98648
98604,98592
98488,98561
98373,98460
98317,98453
98247,98426
98133,98395
98050,98345
97944,98291
97857,98263
97853,98269
97782,98210
97659,98177
97608,98160
97568,98097
97571,98118
97508,98074
97505,98074
97394,98069
97401,98010
97422,98041
97369,98048
97354,98031
97270,97995
97344,98007
97349,98053
97325,98051
97317,98020
97226,97955
97306,97990
97309,98027
97308,98052
97342,98015
97279,97993
97325,98027
97356,98027
97349,98065
97362,98018
97335,98025
97376,98043
97391,98076
97433,98062
97406,98038
97387,98052
97443,98117
97455,98098
97424,98075
97466,98110
97428,98040
97454,98074
97515,98137
97450,98075
97445,98073
97443,98071
97481,98100
97510,98120
97486,98071
97483,98108
97474,98076
97496,98096
97569,98128
97524,98168
97557,98136
97497,98114
97618,98170
97582,98171
97601,98150
97574,98146
97536,98111
97592,98171
97599,98178
97606,98159
97598,98109
97540,98141
97602,98146
97613,98183
97548,98143
97549,98125
97537,98122
97562,98143
97609,98144
97547,98155
97541,98150
97523,98080
97517,98137
97543,98122
97555,98131
97508,98081
97496,98065
97527,98099
97573,98126
97513,98128
97547,98119
97497,98124
97570,98111
97604,98158
97559,98114
97579,98120
97538,98153
97646,98178
97646,98188
97634,98150
97640,98152
97627,98170
97677,98185
97728,98229
97713,98204
97716,98223
97678,98189
97795,98258
97798,98285
97807,98240
97814,98225
97784,98233
97879,98298
97854,98292
97923,98313
97904,98265
97910,98292
97988,98341
97966,98345
98021,98322
97973,98334
98020,98322
98053,98409
98096,98381
98092,98397
98101,98385
98107,98384
98145,98400
98197,98427
98200,98402
98190,98426
98154,98405
98275,98471
98264,98493
98285,98445
98249,98405
98319,98485
98330,98450
98367,98486
98354,98495
98320,98480
98363,98503
98377,98516
98414,98480
98423,98542
98415,98506
98395,98507
98496,98516
98484,98584
98478,98499
98461,98541
98460,98532
98533,98595
98503,98574
98540,98585
98501,98536
98585,98591
98617,98602
98584,98605
98594,98605
98569,98561
98625,98566
98623,98616
98682,98623
98646,98610
98617,98611
98674,98613
98694,98620
98728,98630
98696,98627
98710,98631
98700,98633
98783,98702
98750,98634
98807,98689
98777,98648
98794,98669
98845,98685
98848,98672
98819,98728
98796,98644
98852,98709
98915,98751
98915,98747
98886,98683
98916,98729
98919,98730
98935,98718
98977,98746
98981,98752
98896,98723
98971,98713
98994,98790
98985,98769
99028,98778
98983,98723
99016,98768
99106,98815
99040,98820
99021,98773
99041,98751
99084,98810
99160,98834
99120,98786
99174,98840
99110,98794
99171,98810
99202,98866
99227,98862
99215,98855
99207,98836
99275,98861
99284,98905
99304,98906
99328,98913
99288,98871
99379,98926
99373,98935
99408,98949
99430,98957
99353,98929
99459,98921
99465,98960
99484,98986
99506,98969
99493,98930
99495,98968
99526,99011
99452,98916
99419,98939
99318,98858
99293,98851
99215,98837
99058,98755
99001,98718
98842,98643
98796,98599
98662,98590
98611,98484
98480,98479
98349,98367
98345,98426
98284,98394
98164,98320
98094,98278
97928,98238
97966,98214
97909,98222
97774,98163
97723,98144
97687,98096
97659,98090
97647,98107
97563,98059
97543,98035
97498,98004
97536,98061
97515,98020
97531,98011
97474,97983
97471,97997
97538,98044
97486,98071
97480,98010
97490,98042
97470,98002
97493,98038
97543,98103
97518,98049
97538,98074
97483,98032
97601,98086
97604,98111
97583,98080
97569,98048
97564,98069
97647,98103
97655,98092
97656,98127
97613,98079
97641,98065
97667,98147
97692,98118
97675,98129
97678,98123
97650,98118
97721,98143
97699,98142
97723,98117
97668,98127
97743,98138
97750,98153
97773,98179
97790,98144
97746,98165
97806,98173
97838,98232
97859,98183
97876,98199
97813,98164
97878,98208
97864,98231
97912,98240
97892,98227
97848,98206
97854,98194
97887,98240
97888,98262
97913,98206
97826,98181
97890,98203
97880,98234
97885,98234
97864,98241
97866,98182
97852,98187
97875,98205
97883,98190
97855,98225
97818,98188
97828,98178
97849,98202
97875,98185
97849,98210
97844,98172
97855,98178
97875,98207
97902,98238
97891,98243
97824,98150
97876,98215
97882,98203
97915,98221
97906,98231
97841,98179
97914,98199
97940,98260
97913,98221
97929,98217
97915,98232
97945,98233
98010,98277
97962,98248
97980,98231
97967,98243
98028,98250
98033,98292
98066,98285
98067,98294
98063,98274
98095,98302
98191,98342
98143,98340
98136,98319
98165,98344
98206,98320
98247,98424
98227,98383
98249,98373
98272,98336
98299,98423
98330,98411
98354,98407
98305,98414
98306,98362
98411,98464
98399,98433
98387,98433
98399,98440
98334,98408
98475,98426
98451,98492
98451,98474
98462,98475
98465,98443
98515,98492
98545,98503
98560,98492
98541,98516
98521,98468
98583,98517
98626,98561
98604,98543
98617,98488
98573,98520
98682,98554
98692,98564
98672,98575
98668,98517
98670,98582
98690,98569
98746,98588
98716,98569
98718,98583
98716,98545
98796,98634
98810,98615
98770,98592
98773,98552
98813,98577
98826,98622
98852,98640
98856,98637
98836,98633
98821,98621
98923,98629
98901,98706
98899,98617
98912,98659
98898,98627
98966,98653
98979,98723
98970,98664
98971,98712
98962,98636
99030,98726
99076,98734
99020,98713
99053,98694
99014,98681
99106,98694
99107,98767
99110,98744
99119,98740
99106,98769
99187,98760
99196,98790
99172,98774
99188,98762
99207,98755
99272,98808
99266,98786
99277,98800
99258,98808
99269,98797
99309,98806
99310,98840
99335,98818
99326,98807
99317,98814
99384,98857
99402,98870
99390,98868
99373,98843
99382,98838
99450,98892
99468,98897
99481,98918
99505,98903
99511,98886
99578,98954
99564,98942
99610,98958
99614,98974
99583,98958
99708,98959
99751,99003
99712,99006
99725,98990
99767,99034
99756,98983
99800,99078
99774,99016
99776,99011
99789,99022
99782,99048
99779,99035
99655,98973
99538,98899
99505,98853
99381,98858
99300,98788
99152,98712
98992,98657
98906,98602
98853,98572
98774,98508
98617,98483
98534,98401
98462,98379
98421,98392
98359,98337
98248,98302
98180,98260
98078,98210
98077,98199
98019,98176
97948,98150
97889,98114
97823,98098
97852,98082
97802,98097
97745,98044
97702,98021
97724,98013
97724,98068
97711,98050
97691,98041
97635,97977
97679,98036
97689,98038
97666,98068
97688,98012
97696,98040
97693,98055
97747,98085
97753,98049
97744,98071
97737,98060
97754,98094
97822,98120
97809,98092
97810,98107
97757,98079
97837,98089
97836,98154
97875,98140
97847,98125
97867,98121
97848,98132
97910,98130
97883,98116
97892,98148
97862,98083
97907,98154
97924,98124
97888,98141
97911,98150
97867,98125
97928,98137
97948,98180
97971,98184
97980,98177
97916,98138
98003,98170
98014,98253
98034,98208
97998,98196
98001,98173
98051,98233
98060,98206
98042,98206
98068,98233
98017,98157
98072,98223
98052,98218
98053,98222
98067,98201
97970,98169
98054,98170
98039,98241
98024,98218
98030,98199
97999,98171
98050,98216
98068,98181
98042,98229
97995,98177
98008,98161
98041,98204
98072,98181
98064,98210
97998,98201
98016,98166
98087,98214
98054,98240
98053,98190
98065,98232
98051,98172
98092,98241
98079,98235
98079,98217
98114,98234
98088,98170
98162,98254
98162,98242
98143,98257
98146,98226
98130,98224
98210,98316
98245,98288
98235,98312
98262,98289
98237,98299
98304,98308
98352,98355
98327,98330
98351,98332
98345,98347
98413,98373
98463,98398
98429,98377
98439,98377
98441,98394
98530,98434
98558,98442
98529,98423
98541,98407
98527,98418
98604,98479
98633,98446
98589,98450
98612,98437
98607,98469
98664,98482
98686,98523
98643,98472
98677,98480
98688,98481
98695,98511
98768,98550
98763,98505
98761,98498
98775,98551
98803,98554
98879,98561
98864,98570
98821,98534
98887,98575
98876,98561
98932,98621
98897,98584
98918,98571
98912,98585
98968,98634
98999,98605
98981,98604
98915,98574
98988,98608
99035,98631
99012,98658
99018,98628
98984,98584
99046,98625
99085,98670
99078,98679
99055,98661
99070,98632
99112,98659
99116,98695
99165,98674
99162,98687
99123,98658
99157,98705
99165,98715
99249,98754
99213,98729
99177,98711
99201,98680
99289,98754
99253,98705
99283,98743
99258,98715
99273,98735
99325,98768
99328,98744
99343,98744
99246,98727
99329,98744
99380,98803
99425,98780
99371,98800
99357,98724
99440,98779
99410,98845
99458,98811
99445,98812
99427,98766
99512,98814
99479,98860
99530,98839
99541,98820
99519,98839
99534,98861
99620,98854
99585,98866
99619,98873
99620,98871
99643,98898
99683,98915
99744,98927
99722,98916
99667,98906
99770,98942
99839,99001
99831,98950
99879,99000
99831,98962
99925,98986
99959,99066
99969,99025
99991,99030
99937,99011
100047,99043
100114,99109
100084,99066
100043,99077
100040,99060
100036,99052
100105,99077
99988,98993
99908,98987
99787,98885
99692,98908
99599,98847
99431,98761
99369,98706
99185,98632
99090,98592
99035,98591
98911,98485
98806,98464
98643,98361
98652,98408
98600,98357
98465,98282
98451,98297
98317,98220
98315,98248
98275,98208
98209,98238
98159,98153
98088,98106
98101,98160
98078,98107
98028,98148
98000,98072
97959,98075
97965,98098
97972,98114
97974,98083
97975,98073
97904,98045
97970,98102
97980,98084
97986,98118
97953,98077
97937,98094
98005,98113
98050,98124
98055,98110
97992,98129
98057,98073
98065,98117
98120,98161
98116,98163
98071,98125
98090,98161
98129,98158
98176,98169
98150,98167
98188,98172
98141,98170
98226,98193
98216,98218
98220,98200
98182,98160
98173,98167
98237,98183
98278,98218
98216,98199
98253,98203
98263,98206
98313,98243
98336,98223
98281,98270
98319,98211
98350,98249
98359,98271
98392,98295
98394,98256
98366,98275
98363,98237
98401,98308
98398,98297
98402,98283
98393,98260
98386,98246
98431,98300
98444,98310
98416,98267
98369,98234
98363,98229
98454,98278
98410,98303
98393,98271
98380,98275
98391,98255
98413,98288
98411,98244
98398,98277
98362,98216
98330,98246
98388,98288
98377,98234
98390,98281
98331,98191
98379,98246
98416,98290
98439,98296
98426,98268
98367,98238
98432,98254
98463,98326
98493,98313
98450,98271
98500,98298
98476,98266
98533,98336
98557,98346
98520,98338
98563,98343
98596,98317
98608,98406
98624,98359
98640,98386
98604,98355
98688,98400
98718,98447
98754,98410
98757,98467
98743,98430
98861,98497
98881,98478
98895,98527
98904,98520
98887,98502
98937,98544
99021,98556
99014,98574
99022,98549
99064,98583
99104,98577
99156,98606
99197,98644
99212,98642
99172,98647
99261,98653
99287,98721
99313,98660
99291,98689
99315,98690
99327,98714
99399,98708
99399,98765
99402,98747
99444,98727
99443,98727
99529,98798
99485,98789
99524,98799
99492,98766
99530,98817
99592,98829
99570,98809
99608,98795
99567,98819
99610,98826
99631,98856
99619,98866
99611,98825
99618,98841
99665,98836
99708,98859
99653,98841
99672,98892
99605,98806
99706,98889
99697,98854
99705,98831
99706,98853
99615,98821
99741,98859
99714,98908
99710,98851
99689,98863
99685,98833
99740,98879
99734,98873
99731,98878
99728,98879
99687,98848
99765,98879
99775,98915
99764,98897
99744,98860
99694,98835
99778,98863
99803,98918
99764,98902
99785,98877
99741,98851
99824,98923
99833,98920
99821,98894
99816,98891
99765,98874
99840,98910
99840,98928
99851,98916
99850,98893
99788,98889
99873,98924
99914,98967
99881,98928
99888,98944
99844,98872
99949,98967
100010,98964
99952,98980
99982,98951
99985,98996
100045,98991
100056,99021
100086,99054
100077,98995
100102,98995
100126,99022
100128,99063
100112,99026
100015,98991
100006,98931
99937,98961
99851,98901
99738,98828
99591,98754
99458,98707
99384,98681
99270,98625
99138,98551
98995,98491
98916,98443
98813,98425
98754,98385
98611,98310
98544,98277
98471,98231
98421,98238
98371,98206
98291,98167
98201,98106
98118,98080
98137,98090
98082,98085
98017,98077
97954,98000
97962,98016
97966,98026
97937,98020
97923,97980
97867,97974
97880,97975
97918,98009
97893,97987
97882,97982
97825,97958
97865,97974
97914,97995
97947,98009
97887,97988
97881,97986
97897,97990
97969,98043
97974,98041
97958,98033
97979,98013
97967,98012
97997,98054
98008,98049
98012,98050
98004,98006
98022,98050
98029,98065
98039,98026
98012,98043
98033,98019
97981,98047
98029,98061
98039,98069
98024,98041
97988,98046
97992,98003
98028,98084
98069,98075
98036,98023
98053,98067
98035,98047
98098,98099
98124,98130
98079,98076
98091,98076
98113,98111
98117,98135
98133,98113
98133,98088
98106,98096
98146,98074
98160,98110
98147,98115
98170,98104
98094,98090
98125,98110
98165,98133
98156,98111
98110,98110
98076,98034
98112,98112
98134,98109
98173,98118
98128,98086
98107,98077
98120,98114
98169,98113
98163,98094
98114,98103
98085,98052
98118,98125
98159,98141
98163,98141
98156,98066
98111,98101
98133,98085
98190,98127
98162,98127
98180,98106
98163,98091
98196,98136
98252,98162
98208,98167
98212,98137
98233,98159
98273,98122
98324,98179
98295,98185
98330,98191
98286,98198
98360,98205
98426,98206
98354,98188
98410,98247
98360,98180
98493,98278
98485,98270
98505,98233
98476,98273
98445,98214
98505,98300
98538,98285
98572,98279
98536,98308
98536,98283
98552,98293
98625,98328
98622,98333
98606,98300
98610,98322
98639,98320
98715,98377
98713,98343
98706,98376
98707,98342
98727,98372
98764,98398
98798,98401
98802,98381
98736,98350
98842,98426
98877,98430
98859,98421
98868,98436
98878,98397
98924,98447
98958,98460
98904,98448
98931,98431
98919,98444
98951,98477
98986,98488
98970,98484
98974,98470
98953,98430
99033,98479
99053,98521
99022,98497
99033,98484
99015,98477
99063,98512
99090,98539
99113,98500
99084,98498
99083,98500
99150,98542
99138,98538
99145,98545
99127,98526
99171,98565
99168,98569
99218,98614
99224,98569
99174,98544
99198,98562
99222,98592
99218,98589
99244,98596
99261,98561
99207,98556
99315,98620
99322,98639
99275,98598
99278,98597
99322,98607
99336,98628
99370,98622
99340,98633
99317,98605
99341,98613
99406,98658
99418,98661
99357,98647
99362,98631
99383,98651
99424,98656
99437,98665
99445,98669
99401,98638
99444,98659
99487,98690
99486,98699
99469,98682
99473,98676
99506,98692
99542,98723
99546,98720
99536,98712
99541,98703
99571,98721
99626,98749
99634,98776
99607,98765
99628,98753
99657,98754
99687,98805
99706,98817
99699,98784
99696,98781
99714,98792
99760,98840
99792,98861
99737,98825
99769,98801
99797,98824
99835,98866
99824,98847
99812,98846
99787,98812
99752,98809
99738,98800
99693,98759
99549,98718
99437,98633
99342,98600
99293,98587
99140,98517
99030,98447
98869,98363
98769,98333
98699,98295
98601,98251
98490,98207
98403,98130
98316,98117
98263,98104
98154,98036
98067,98025
97995,97972
97915,97952
97890,97931
97828,97911
97780,97857
97639,97827
97672,97846
97663,97814
97610,97824
97576,97791
97539,97751
97558,97779
97530,97821
97535,97772
97553,97784
97459,97724
97546,97787
97554,97768
97541,97761
97539,97768
97514,97753
97553,97779
97590,97848
97562,97811
97585,97824
97506,97761
97603,97821
97619,97807
97610,97827
97586,97807
97580,97800
97601,97772
97579,97804
97579,97820
97589,97795
97507,97762
97564,97818
97590,97796
97546,97800
97529,97808
97469,97731
97562,97794
97558,97796
97520,97781
97536,97804
97476,97752
97592,97801
97612,97791
97564,97794
97562,97813
97535,97764
97630,97858
97659,97844
97614,97842
97629,97815
97568,97824
97651,97804
97643,97839
97636,97815
97615,97802
97578,97763
97660,97848
97668,97841
97605,97823
97595,97810
97570,97772
97639,97830
97631,97817
97575,97784
97565,97815
97532,97765
97627,97821
97654,97794
97592,97808
97568,97823
97536,97752
97620,97833
97616,97796
97613,97788
97558,97794
97573,97750
97610,97819
97607,97818
97590,97802
97572,97812
97570,97780
97664,97843
97661,97839
97633,97799
97611,97806
97637,97793
97686,97872
97697,97869
97671,97829
97723,97817
97676,97853
97718,97893
97751,97900
97778,97888
97781,97838
97790,97891
97847,97910
97891,97939
97867,97917
97848,97913
97893,97922
97944,97970
97964,97998
97976,97975
97947,97965
97976,97959
98017,97996
98064,98020
98039,97990
98027,98002
98057,98004
98090,98024
98109,98039
98080,98010
98084,97997
98093,97992
98146,98059
98168,98057
98153,98042
98149,98029
98169,98039
98203,98064
98211,98060
98234,98073
98200,98043
98215,98075
98282,98124
98261,98114
98263,98099
98248,98080
98316,98100
98351,98123
98358,98146
98315,98136
98340,98092
98347,98124
98400,98169
98424,98168
98415,98145
98355,98111
98413,98166
98478,98165
98454,98176
98452,98163
98412,98136
98453,98157
98481,98184
98500,98212
98483,98192
98471,98171
98503,98189
98541,98218
98558,98209
98547,98225
98499,98188
98547,98211
98585,98232
98571,98231
98585,98254
98594,98212
98600,98238
98641,98256
98623,98243
98630,98240
98609,98237
98674,98270
98697,98290
98655,98293
98689,98263
98656,98246
98725,98300
98721,98314
98747,98313
98753,98299
98695,98256
98771,98334
98782,98335
98794,98336
98770,98312
98749,98293
98798,98327
98850,98361
98809,98326
98835,98332
98814,98313
98889,98350
98915,98386
98869,98367
98905,98365
98907,98357
98921,98389
98967,98407
98959,98394
98997,98426
98950,98387
99021,98409
99089,98448
99072,98440
99088,98446
99065,98453
99131,98470
99179,98497
99130,98461
99208,98529
99161,98457
99224,98535
99273,98523
99257,98542
99235,98487
99253,98505
99335,98551
99325,98543
99261,98550
99211,98456
99122,98457
99131,98449
99049,98426
98919,98332
98774,98297
98662,98226
98615,98175
98528,98138
98336,98078
98242,98045
98109,97960
98092,97938
97990,97895
97882,97862
97786,97817
97679,97796
97647,97739
97596,97764
97474,97680
97420,97634
97365,97625
97319,97610
97325,97637
97227,97556
97225,97534
97141,97537
97167,97531
97110,97531
97106,97523
97050,97512
97032,97453
97098,97512
97083,97485
97072,97497
97060,97465
97000,97493
97071,97462
97062,97532
97073,97484
97076,97533
97043,97482
97099,97507
97117,97500
97100,97509
97050,97489
97087,97481
97159,97566
97161,97519
97145,97533
97125,97514
97130,97510
97204,97577
97207,97548
97172,97560
97161,97543
97134,97560
97180,97540
97139,97562
97116,97528
97140,97534
97139,97513
97161,97522
97136,97557
97158,97560
97147,97523
97145,97558
97173,97541
97203,97605
97170,97567
97198,97556
97207,97570
97194,97544
97245,97599
97230,97566
97199,97541
97239,97581
97210,97599
97226,97604
97214,97588
97173,97541
97205,97581
97209,97563
97208,97584
97201,97565
97156,97511
97193,97575
97238,97547
97212,97581
97185,97563
97179,97536
97150,97566
97223,97547
97211,97523
97207,97562
97157,97514
97238,97574
97205,97540
97221,97570
97217,97558
97194,97520
97243,97601
97243,97547
97243,97614
97279,97575
97230,97563
97255,97575
97301,97582
97297,97592
97311,97637
97273,97603
97327,97631
97340,97600
97338,97649
97355,97634
97310,97634
97384,97644
97413,97706
97470,97694
97469,97670
97448,97635
97536,97687
97549,97746
97548,97719
97554,97710
97529,97706
97609,97725
97616,97803
97650,97755
97629,97785
97640,97728
97723,97810
97743,97789
97711,97792
97751,97826
97693,97797
97774,97806
97800,97879
97843,97842
97825,97851
97794,97835
97834,97868
97934,97894
97869,97855
97887,97866
97883,97878
97969,97896
98005,97899
97964,97919
98003,97943
97969,97878
98048,97917
98034,97947
98022,97970
98069,97964
98006,97920
98121,97958
98101,97986
98083,97962
98095,97975
98079,97969
98167,97996
98171,97982
98136,97994
98153,97986
98145,97969
98210,98042
98209,98001
98192,98002
98236,98011
98197,98009
98294,98036
98294,98046
98268,98054
98293,98060
98286,98011
98313,98075
98348,98116
98314,98074
98325,98065
98313,98050
98384,98087
98408,98138
98367,98103
98388,98084
98357,98081
98462,98112
98433,98117
98447,98120
98407,98162
98451,98108
98467,98155
98530,98161
98519,98186
98488,98158
98517,98174
98531,98179
98596,98226
98548,98184
98605,98164
98597,98188
98671,98203
98657,98270
98646,98202
98700,98234
98674,98208
98758,98245
98796,98276
98756,98246
98780,98283
98770,98278
98806,98265
98895,98340
98866,98325
98856,98276
98891,98334
98896,98321
98978,98393
98969,98358
98913,98345
98998,98373
99029,98426
99114,98398
99074,98428
99090,98377
99093,98433
99082,98418
99142,98434
99069,98396
99006,98337
98929,98294
98850,98292
98817,98259
98645,98184
98541,98119
98407,98061
98353,98037
98261,97995
98146,97937
98002,97875
97959,97847
97871,97813
97803,97779
97729,97739
97627,97679
97556,97661
97525,97656
97427,97631
97384,97591
97294,97530
97304,97561
97284,97544
97224,97525
97184,97495
97113,97475
97144,97493
97155,97505
97139,97480
97110,97470
97033,97450
97086,97468
97124,97473
97107,97496
97108,97453
97074,97470
97145,97470
97170,97525
97167,97479
97141,97490
97109,97460
97182,97522
97242,97521
97227,97545
97229,97520
97237,97548
97288,97545
97296,97577
97275,97559
97295,97538
97311,97568
97350,97572
97354,97599
97326,97559
97321,97589
97301,97537
97367,97595
97344,97603
97383,97570
97364,97599
97310,97554
97403,97604
97391,97600
97432,97622
97416,97661
97375,97566
97436,97640
97474,97674
97500,97647
97470,97679
97445,97578
97529,97648
97516,97675
97534,97653
97530,97676
97477,97622
97564,97662
97539,97659
97543,97694
97547,97657
97511,97645
97556,97661
97568,97699
97580,97686
97515,97649
97529,97663
97555,97683
97584,97691
97526,97681
97521,97632
97505,97676
97559,97673
97564,97682
97574,97679
97518,97696
97527,97650
97601,97659
97601,97710
97568,97655
97586,97660
97563,97683
97611,97704
97671,97720
97647,97702
97650,97695
97668,97714
97697,97743
97752,97757
97752,97779
97725,97753
97755,97757
97803,97811
97846,97824
97773,97809
97834,97792
97819,97779
97897,97810
97942,97863
97902,97873
97924,97838
97940,97889
98012,97880
98022,97894
98057,97911
97991,97901
98057,97918
98104,97945
98130,97962
98156,97954
98143,97962
98155,97970
98232,98001
98223,98019
98277,98014
98221,97991
98281,98012
98324,98031
98343,98044
98331,98058
98321,98055
98358,98068
98385,98080
98435,98097
98436,98106
98396,98070
98400,98101
98456,98101
98503,98127
98443,98066
98469,98084
98444,98105
98504,98106
98529,98154
98457,98093
98466,98107
98511,98096
98545,98123
98586,98143
98567,98164
98504,98121
98598,98155
98608,98170
98623,98163
98591,98171
98613,98113
98593,98184
98639,98183
98696,98219
98654,98159
98669,98172
98636,98151
98700,98202
98728,98224
98727,98177
98683,98187
98708,98226
98715,98204
98754,98249
98746,98208
98675,98176
98772,98192
98795,98256
98773,98209
98814,98235
98724,98237
98789,98229
98835,98236
98861,98244
98843,98257
98825,98262
98890,98274
98920,98327
98936,98309
98919,98322
98854,98259
98949,98341
98963,98335
99004,98337
98965,98310
98985,98301
98987,98327
99054,98362
99042,98375
99060,98320
98991,98353
99072,98341
99094,98375
99087,98389
99126,98368
99066,98384
99145,98404
99185,98403
99169,98400
99227,98427
99145,98442
99230,98430
99260,98450
99269,98442
99301,98437
99229,98461
99309,98451
99298,98484
99246,98473
99257,98434
99131,98375
99069,98370
99011,98310
98907,98254
98773,98200
98647,98129
98538,98094
98479,98044
98344,97942
98236,97955
98079,97860
98050,97838
97969,97820
97854,97735
97794,97727
97649,97682
97642,97671
97601,97646
97518,97587
97435,97599
97340,97498
97327,97555
97350,97536
97302,97496
97251,97517
97163,97423
97241,97503
97210,97468
97188,97461
97130,97449
97120,97444
97200,97459
97184,97485
97204,97485
97190,97465
97134,97414
97214,97482
97228,97499
97206,97514
97210,97495
97208,97478
97294,97509
97279,97541
97264,97506
97312,97489
97263,97542
97335,97533
97330,97549
97308,97549
97299,97511
97311,97554
97364,97529
97385,97559
97330,97516
97344,97523
97345,97502
97356,97572
97368,97568
97393,97553
97371,97578
97354,97526
97393,97581
97450,97615
97453,97605
97430,97610
97447,97553
97480,97628
97525,97652
97509,97653
97464,97626
97475,97610
97520,97650
97552,97644
97526,97639
97494,97624
97521,97610
97523,97642
97542,97641
97520,97642
97492,97601
97521,97651
97546,97657
97542,97656
97480,97603
97463,97618
97508,97613
97503,97599
97532,97632
97506,97598
97484,97614
97420,97556
97468,97628
97522,97638
97501,97602
97472,97583
97430,97585
97452,97646
97524,97627
97481,97583
97472,97591
97472,97611
97511,97649
97566,97656
97573,97623
97536,97657
97537,97611
97578,97660
97627,97688
97628,97662
97593,97638
97649,97708
97688,97707
97708,97727
97694,97743
97670,97676
97740,97758
97788,97761
97789,97768
97795,97743
97813,97757
97792,97742
97853,97803
97913,97814
97919,97811
97858,97799
97920,97792
97944,97816
97965,97861
97966,97890
97943,97803
97994,97860
98040,97867
98044,97900
98076,97907
98067,97864
98109,97899
98113,97938
98135,97880
98113,97901
98133,97887
98128,97937
98191,97941
98219,97967
98193,97932
98164,97927
98180,97955
98273,97983
98242,97988
98263,97985
98192,97966
98275,97979
98288,98009
98282,97951
98249,97992
98225,97962
98280,97979
98349,98021
98315,97992
98325,98000
98311,97986
98331,97999
98365,98034
98327,98016
98381,98006
98320,97961
98382,98056
98395,98032
98421,98052
98396,98037
98394,98008
98411,98048
98447,98065
98452,98037
98438,98043
98420,98033
98486,98074
98519,98077
98527,98064
98500,98068
98493,98056
98550,98113
98558,98116
98582,98086
98558,98104
98512,98083
98618,98139
98621,98153
98622,98121
98623,98138
98594,98113
98688,98145
98696,98167
98693,98190
98677,98133
98695,98139
98725,98151
98750,98201
98766,98199
98772,98182
98788,98207
98809,98199
98849,98244
98857,98253
98843,98207
98859,98259
98915,98218
98962,98291
98938,98276
98971,98277
98962,98249
98971,98297
99023,98305
98981,98335
98991,98288
98988,98264
99075,98351
99035,98319
99035,98306
98924,98262
98881,98227
98814,98186
98772,98190
98589,98101
98498,98035
98372,98004
98323,97956
98213,97897
98071,97831
97922,97774
97823,97683
97769,97721
97692,97660
97619,97621
97494,97563
97388,97525
97399,97538
97297,97472
97230,97439
97148,97374
97115,97390
97070,97326
97047,97364
96995,97300
96911,97284
96878,97282
96916,97315
96864,97306
96827,97297
96819,97243
96834,97278
96838,97253
96854,97294
96827,97247
96812,97254
