11111,11111
0,0
79720,79936
96739,97497
96728,97510
96703,97470
96685,97495
96757,97501
96751,97485
96741,97506
96741,97504
96758,97507
96818,97549
96845,97509
96814,97524
96814,97506
96831,97502
96825,97548
96904,97554
96908,97539
96855,97523
96866,97548
96939,97552
96929,97566
96920,97576
96950,97601
96955,97554
97012,97625
97001,97610
97003,97627
97018,97561
96968,97575
96992,97621
96984,97576
96953,97564
96884,97532
96828,97532
96809,97476
96720,97485
96669,97454
96571,97391
96542,97350
96512,97342
96403,97329
96358,97311
96279,97265
96252,97268
96202,97207
96131,97244
96115,97220
96033,97149
95993,97152
96000,97153
95969,97147
95910,97102
95878,97134
95876,97096
95871,97105
95823,97126
95817,97110
95814,97043
95802,97054
95823,97097
95809,97077
95828,97071
95752,97079
95829,97126
95817,97074
95788,97139
95822,97135
95781,97079
95770,97145
95836,97147
95863,97093
95813,97112
95813,97118
95807,97163
95896,97160
95842,97155
95876,97149
95847,97097
95876,97126
95906,97189
95920,97155
95951,97123
95861,97150
95941,97147
95963,97175
95928,97137
95924,97143
95927,97186
95990,97194
95997,97209
96010,97210
96023,97206
96005,97188
96024,97218
96073,97244
96049,97246
96048,97230
96054,97193
96072,97224
96101,97275
96137,97277
96120,97237
96077,97230
96119,97261
96156,97239
96118,97219
96097,97275
96099,97213
96124,97274
96153,97245
96152,97247
96104,97276
96103,97230
96112,97258
96143,97256
96151,97276
96153,97243
96095,97222
96109,97247
96166,97249
96153,97237
96145,97230
96100,97231
96321,97354
96753,97536
96780,97537
97095,97683
97090,97659
97091,97669
97463,97853
97453,97811
97409,97803
97408,97821
96668,97508
96660,97471
96582,97468
96518,97454
96476,97366
96402,97357
96366,97376
96370,97346
96280,97333
96264,97303
96241,97266
96250,97291
96224,97295
96216,97295
96163,97273
96152,97261
96180,97311
96177,97253
96155,97231
96154,97235
96152,97267
96170,97294
96184,97325
96208,97286
96170,97266
96191,97301
96240,97362
96268,97281
96261,97310
96215,97325
96240,97324
96285,97340
96310,97335
96291,97306
96236,97343
96290,97343
96340,97352
96317,97351
96316,97359
96305,97353
96331,97393
96361,97392
96368,97366
96354,97371
96351,97387
96391,97384
96428,97402
96418,97393
96442,97397
96401,97416
96485,97419
96478,97419
96507,97457
96501,97423
96458,97438
96548,97465
96569,97483
96553,97468
96589,97443
96515,97474
96552,97499
96588,97509
96578,97480
96568,97474
96535,97470
96556,97473
96574,97451
96559,97487
96567,97483
96496,97443
96559,97487
96562,97441
96539,97484
96543,97494
96507,97438
96515,97443
96526,97474
96532,97459
96532,97439
96486,97449
96531,97453
96522,97453
96487,97484
96507,97476
96475,97448
96529,97459
96506,97436
96519,97452
96500,97459
96479,97427
96564,97425
96517,97464
96529,97438
96505,97436
96481,97447
96597,97470
96539,97479
96574,97484
96545,97470
96559,97464
96554,97520
96628,97534
96619,97466
96629,97498
96610,97477
96663,97524
96662,97562
96691,97526
96709,97517
96694,97534
96743,97564
96747,97571
96745,97590
96749,97579
96721,97506
96792,97590
96814,97593
96774,97565
96786,97618
96836,97575
96843,97576
96876,97618
96856,97616
96845,97622
96906,97588
96916,97630
96898,97660
96925,97639
96883,97629
96938,97639
96986,97681
97004,97648
96981,97654
96970,97645
96963,97664
97057,97696
97042,97680
97031,97663
97014,97661
97004,97690
97059,97710
97038,97699
97075,97728
97067,97689
97031,97646
97080,97683
97107,97708
97098,97700
97085,97731
97109,97681
97126,97696
97132,97722
97141,97698
97070,97722
97119,97697
97152,97705
97130,97738
97137,97735
97105,97716
97127,97725
97156,97742
97180,97730
97192,97717
97169,97708
97159,97725
97197,97732
97219,97771
97233,97716
97185,97711
97241,97762
97262,97773
97239,97766
97246,97806
97267,97778
97296,97753
97337,97831
97345,97817
97367,97817
97321,97755
97310,97831
97329,97842
97322,97802
97300,97782
97234,97724
97167,97726
97157,97726
97121,97718
97032,97637
96901,97583
96831,97584
96780,97546
96695,97498
96624,97504
96520,97425
96464,97405
96374,97368
96323,97375
96267,97308
96196,97240
96117,97255
96092,97256
96029,97237
96003,97171
95905,97122
95868,97154
95873,97183
95810,97135
95822,97147
95772,97060
95735,97121
95745,97142
95720,97104
95746,97105
95679,97096
95681,97120
95749,97139
95739,97090
95685,97111
95679,97080
95711,97095
95753,97145
95752,97141
95755,97122
95751,97115
95762,97113
95816,97116
95764,97130
95745,97160
95747,97131
95809,97173
95818,97173
95824,97173
95835,97160
95780,97108
95810,97163
95834,97149
95818,97154
95842,97177
95779,97154
95876,97192
95854,97179
95897,97213
95895,97209
95854,97171
95920,97186
95911,97208
95982,97255
95964,97207
95917,97202
95965,97240
96002,97219
95977,97275
96001,97255
95964,97193
96025,97260
96056,97240
96022,97244
96000,97278
96005,97250
96019,97229
96024,97265
96043,97280
96034,97251
95998,97241
95996,97252
96049,97264
96007,97237
95984,97236
95969,97250
96015,97242
96021,97226
95986,97220
95981,97211
95900,97191
95926,97243
95974,97254
95961,97206
95883,97183
95902,97181
95929,97204
95926,97239
95962,97192
95924,97188
95885,97164
95943,97227
95978,97218
95922,97184
95888,97188
95909,97200
95954,97209
95958,97238
95977,97215
95972,97181
95937,97202
96010,97261
96041,97243
96015,97249
96063,97261
96036,97209
96050,97278
96060,97300
96106,97263
96109,97266
96086,97247
96137,97322
96200,97349
96180,97308
96178,97338
96181,97324
96238,97357
96278,97326
96227,97329
96195,97340
96256,97316
96256,97363
96294,97381
96305,97396
96297,97345
96285,97339
96331,97382
96346,97410
96349,97361
96348,97353
96301,97390
96363,97412
96392,97410
96354,97368
96342,97418
96385,97375
96385,97383
96408,97408
96421,97415
96413,97406
96412,97397
96435,97426
96451,97449
96478,97454
96479,97432
96445,97444
96518,97474
96498,97466
96518,97466
96519,97457
96518,97456
96553,97474
96597,97478
96574,97438
96545,97450
96576,97494
96618,97520
96590,97508
96638,97523
96617,97486
96618,97468
96646,97510
96660,97513
96675,97514
96608,97478
96677,97536
96713,97524
96713,97529
96664,97515
96671,97518
96675,97530
96707,97525
96700,97535
96734,97557
96677,97531
96693,97540
96726,97569
96755,97558
96730,97555
96703,97521
96737,97549
96796,97564
96786,97575
96759,97550
96774,97560
96763,97558
96815,97603
96821,97582
96843,97585
96804,97538
96864,97593
96843,97603
96874,97602
96876,97614
96866,97593
96903,97635
96924,97640
96932,97635
96922,97615
96898,97584
96898,97623
96962,97627
96877,97588
96882,97595
96810,97555
96761,97541
96756,97510
96640,97464
96592,97486
96471,97409
96395,97384
96372,97335
96269,97354
96192,97292
96066,97199
96017,97229
95960,97217
95888,97128
95762,97114
95677,97064
95655,97050
95585,97018
95527,97021
95479,96979
95395,96952
95370,96932
95354,96890
95298,96913
95245,96871
95175,96837
95151,96865
95141,96827
95131,96864
95109,96850
95062,96826
95084,96817
95037,96861
95032,96841
95055,96782
94997,96789
95024,96824
95053,96787
94994,96838
95060,96829
95002,96818
95057,96810
95058,96815
95030,96825
95049,96846
95037,96824
95049,96831
95076,96831
95066,96847
95094,96825
95048,96787
95097,96826
95098,96858
95086,96808
95041,96800
95034,96805
95076,96829
95091,96823
95069,96860
95087,96811
95062,96802
95114,96843
95133,96866
95178,96838
95152,96837
95125,96858
95158,96866
95190,96870
95133,96837
95118,96866
95149,96869
95155,96847
95177,96851
95153,96840
95121,96837
95070,96844
95154,96858
95116,96866
95138,96860
95132,96817
95126,96831
95137,96822
95110,96838
95129,96838
95094,96827
95133,96802
95078,96841
95093,96859
95106,96835
95104,96812
95087,96840
95108,96830
95124,96840
95094,96805
95086,96842
95089,96819
95078,96848
95108,96843
95111,96857
95071,96806
95087,96833
95113,96816
95099,96844
95155,96847
95105,96853
95157,96864
95165,96856
95164,96882
95208,96868
95135,96851
95184,96899
95239,96880
95252,96899
95266,96929
95262,96903
95254,96914
95287,96905
95324,96972
95339,96907
95291,96902
95328,96939
95352,96973
95388,96983
95380,96923
95334,96942
95363,96962
95397,96977
95407,96998
95451,96994
95450,96969
95425,96954
95476,97043
95504,97022
95509,96996
95468,96958
95473,96981
95547,97070
95566,97018
95536,97049
95501,97038
95553,97044
95592,97084
95614,97066
95561,97059
95586,97060
95637,97057
95627,97066
95692,97066
95652,97108
95642,97096
95702,97100
95698,97120
95753,97111
95722,97104
95681,97110
95768,97099
95750,97143
95808,97131
95750,97136
95718,97145
95775,97137
95826,97142
95810,97165
95799,97144
95776,97105
95795,97111
95807,97183
95841,97170
95863,97159
95806,97135
95865,97171
95857,97190
95879,97195
95875,97163
95835,97145
95868,97136
95869,97190
95880,97201
95908,97177
95852,97162
95900,97190
95902,97202
95924,97214
95935,97160
95874,97162
95906,97187
95962,97205
95913,97190
95954,97238
95948,97212
95974,97197
95986,97241
95964,97215
95980,97216
95978,97198
95986,97242
96018,97246
96036,97243
96015,97246
95988,97216
96049,97279
96093,97264
96088,97258
96066,97250
96086,97252
96093,97289
96108,97301
96146,97322
96137,97267
96108,97253
96159,97281
96127,97284
96122,97312
96151,97283
96089,97244
96114,97274
96101,97270
96059,97220
96012,97236
95919,97167
95861,97147
95832,97121
95715,97072
95628,97039
95518,96979
95471,97007
95411,96961
95315,96924
95258,96893
95154,96808
95071,96808
95024,96812
94989,96782
94894,96731
94776,96687
94763,96733
94778,96659
94694,96632
94626,96602
94521,96607
94553,96609
94513,96600
94486,96573
94428,96554
94401,96571
94422,96555
94441,96526
94371,96561
94374,96537
94361,96499
94384,96518
94383,96527
94410,96552
94382,96516
94351,96504
94392,96558
94416,96556
94384,96539
94401,96546
94391,96493
94404,96559
94420,96585
94453,96576
94405,96553
94409,96534
94477,96575
94485,96592
94477,96558
94444,96576
94439,96591
94522,96575
94488,96623
94537,96590
94515,96580
94508,96586
94551,96616
94554,96645
94619,96651
94578,96599
94567,96609
94641,96637
94634,96669
94644,96627
94633,96670
94667,96684
94702,96657
94714,96664
94715,96685
94686,96677
94719,96690
94751,96695
94764,96718
94744,96690
94746,96683
94771,96674
94733,96671
94763,96732
94800,96719
94722,96694
94723,96699
94771,96709
94764,96726
94748,96674
94697,96695
94708,96718
94730,96690
94692,96733
94728,96701
94698,96660
94678,96671
94748,96724
94753,96706
94705,96723
94719,96713
94753,96698
94785,96709
94791,96726
94758,96728
94775,96727
94804,96731
94845,96731
94848,96728
94892,96735
94837,96722
94875,96769
94915,96792
94925,96824
94978,96770
94937,96793
94962,96796
95012,96834
94972,96843
95016,96805
94962,96775
95040,96834
95056,96867
95036,96862
95100,96901
95108,96863
95139,96860
95172,96888
95148,96907
95201,96909
95162,96895
95190,96914
95279,96987
95259,96979
95292,96952
95272,96964
95348,96996
95370,96965
95347,96986
95380,96972
95349,96994
95416,96998
95423,97054
95417,97068
95481,97061
95436,97041
95515,97048
95533,97073
95498,97114
95562,97088
95548,97026
95593,97105
95620,97109
95645,97125
95635,97126
95641,97132
95687,97148
95671,97168
95708,97166
95720,97172
95694,97122
95740,97174
95770,97201
95773,97176
95783,97198
95763,97175
95786,97179
95835,97220
95810,97207
95809,97235
95804,97202
95850,97229
95880,97245
95870,97229
95915,97235
95868,97237
95893,97247
95958,97271
95948,97266
95946,97268
95943,97276
95947,97298
95982,97316
96004,97321
96009,97307
96010,97288
96060,97299
96072,97320
96043,97317
96092,97349
96067,97310
96093,97370
96183,97400
96138,97378
96154,97370
96148,97352
96170,97340
96215,97417
96199,97416
96200,97384
96178,97389
96269,97448
96262,97444
96254,97408
96263,97419
96222,97375
96324,97471
96329,97449
96341,97444
96303,97439
96325,97432
96340,97463
96350,97475
96397,97506
96400,97467
96386,97490
96406,97509
96437,97534
96441,97503
96423,97468
96391,97494
96406,97461
96392,97479
96326,97449
96249,97402
96182,97379
96145,97344
96085,97364
95991,97320
95915,97247
95823,97226
95791,97216
95700,97179
95635,97128
95505,97102
95471,97049
95402,97055
95390,97051
95283,97005
95216,96947
95163,96906
95094,96904
95025,96930
94969,96877
94940,96849
94899,96836
94875,96809
94847,96799
94838,96806
94758,96779
94730,96776
94787,96825
94733,96790
94701,96757
94675,96764
94680,96751
94720,96815
94742,96767
94726,96770
94698,96774
94749,96767
94735,96779
94725,96824
94752,96801
94771,96787
94760,96797
94819,96861
94837,96838
94830,96823
94818,96825
94850,96818
94873,96872
94916,96895
94932,96872
94912,96852
94905,96862
94940,96898
94985,96865
94968,96903
94953,96885
94981,96920
95023,96922
95023,96965
95022,96935
95032,96926
95045,96954
95129,96947
95121,96936
95120,96955
95098,96951
95136,96992
95187,96970
95154,96943
95186,96981
95116,96963
95155,96959
95168,97016
95199,97029
95168,96997
95148,96966
95187,96992
95185,97009
95168,97010
95185,96997
95113,96957
95165,96976
95185,96994
95132,96998
95141,96997
95093,96936
95117,96926
95127,96999
95104,96961
95095,96958
95052,96930
95054,96971
95111,96942
95092,96918
95044,96915
95019,96899
95040,96907
95016,96876
95015,96900
95043,96900
94972,96896
95028,96890
95027,96896
94975,96914
95003,96897
94955,96864
94970,96884
94984,96893
94954,96894
94985,96870
94901,96841
94991,96850
94970,96860
94985,96868
94970,96821
94908,96846
95004,96816
94950,96874
94952,96845
95003,96857
94946,96871
95032,96847
95011,96888
95000,96878
95069,96876
95026,96867
95132,96918
95133,96879
95137,96892
95137,96907
95118,96889
95183,96934
95158,96955
95208,96955
95186,96922
95156,96922
95235,96947
95197,96906
95187,96925
95210,96932
95192,96929
95277,96973
95282,96937
95280,96920
95255,96934
95227,96935
95293,96925
95282,96982
95288,96973
95320,96965
95330,96962
95367,97009
95409,96963
95375,96960
95395,97003
95394,97001
95452,97015
95487,97066
95484,97047
95462,97000
95457,97012
95493,97056
95533,97066
95516,97042
95490,97018
95472,97081
95536,97056
95540,97062
95569,97073
95539,97041
95534,97090
95597,97109
95613,97079
95584,97088
95612,97098
95602,97069
95674,97095
95639,97107
95642,97094
95648,97094
95668,97102
95723,97134
95735,97181
95738,97131
95723,97129
95709,97155
95785,97170
95795,97190
95797,97200
95852,97148
95831,97171
95863,97195
95867,97213
95862,97214
95921,97236
95948,97208
95964,97249
95967,97286
95975,97242
95997,97277
96016,97269
96050,97251
96051,97277
96052,97296
96067,97273
96052,97295
96085,97332
96103,97317
96077,97311
96081,97278
96111,97314
96119,97365
96158,97369
96175,97349
96147,97337
96153,97325
96174,97381
96214,97380
96203,97335
96165,97332
96183,97369
96168,97356
96206,97343
96139,97291
96012,97278
95997,97297
95953,97231
95891,97228
95814,97177
95703,97122
95613,97111
95574,97071
95472,97010
95388,96981
95289,96956
95235,96897
95163,96881
95048,96858
94989,96830
94901,96781
94849,96735
94786,96737
94737,96727
94708,96677
94600,96632
94557,96622
94503,96625
94491,96574
94448,96542
94343,96515
94343,96520
94314,96523
94293,96513
94258,96501
94222,96501
94245,96488
94244,96475
94225,96521
94214,96456
94170,96501
94219,96520
94261,96509
94257,96506
94266,96515
94216,96540
94278,96557
94330,96560
94315,96538
94317,96527
94330,96568
94325,96582
94388,96583
94410,96563
94390,96561
94373,96557
94407,96586
94417,96601
94425,96648
94424,96620
94430,96620
94482,96652
94503,96657
94528,96649
94508,96616
94458,96654
94517,96669
94546,96661
94509,96657
94543,96669
94532,96651
94594,96667
94573,96668
94572,96682
94591,96676
94548,96630
94570,96671
94568,96707
94572,96685
94609,96658
94552,96656
94578,96669
94576,96731
94626,96684
94617,96685
94546,96650
94585,96686
94572,96667
94587,96710
94624,96704
94572,96629
94622,96700
94614,96679
94619,96696
94625,96684
94546,96637
94588,96680
94651,96677
94621,96693
94616,96729
94628,96660
94664,96673
94664,96699
94668,96720
94644,96706
94606,96724
94640,96735
94691,96740
94678,96697
94660,96695
94636,96705
94685,96708
94703,96717
94719,96709
94682,96696
94651,96701
94702,96712
94704,96739
94686,96724
94716,96693
94667,96699
94700,96726
94757,96734
94735,96732
94762,96746
94779,96697
94789,96750
94820,96767
94847,96779
94832,96746
94811,96793
94862,96825
94887,96816
94916,96820
94937,96810
94937,96819
95000,96854
94998,96817
94979,96832
94989,96849
94993,96817
95043,96825
95017,96897
95038,96883
95031,96837
95050,96838
95076,96879
95091,96860
95053,96853
95015,96842
95048,96873
95094,96893
95086,96862
95047,96859
95005,96867
95040,96830
95047,96855
95074,96859
95028,96866
95031,96838
95059,96853
95044,96903
95073,96869
95102,96856
95058,96840
95044,96864
95073,96899
95122,96881
95107,96863
95094,96845
95106,96858
95117,96883
95185,96916
95190,96871
95143,96856
95174,96893
95178,96889
95215,96921
95236,96926
95210,96875
95186,96922
95233,96910
95239,96929
95213,96949
95211,96915
95234,96918
95243,96919
95292,96922
95292,96903
95248,96923
95260,96902
95323,96949
95310,96949
95305,96928
95289,96945
95355,96941
95374,96976
95379,96964
95354,96959
95325,96913
95331,96957
95413,96972
95391,96973
95378,96957
95384,96947
95390,96961
95425,96987
95419,96977
95408,96972
95403,96975
95416,96986
95450,96991
95446,96984
95429,97015
95418,96931
95397,96958
95463,96986
95467,96956
95458,96989
95451,96967
95468,96962
95501,96989
95494,97015
95520,97003
95471,96999
95510,97028
95550,97014
95541,97013
95543,97017
95539,96993
95551,96973
95582,97011
95568,97013
95548,96975
95547,96971
95582,97013
95588,97005
95527,96978
95503,96971
95459,96964
95409,96932
95386,96931
95322,96864
95269,96810
95120,96776
95068,96759
94999,96758
94907,96657
94815,96597
94648,96578
94560,96564
94558,96506
94431,96453
94310,96408
94233,96349
94174,96364
94136,96351
94075,96264
94016,96258
93878,96218
93855,96209
93824,96165
93778,96165
93682,96130
93663,96077
93640,96074
93629,96094
93593,96072
93537,96054
93522,96067
93497,96079
93504,96055
93487,96037
93444,96054
93427,96023
93480,96015
93442,96051
93430,96010
93454,96012
93387,95982
93411,96048
93421,96062
93429,96014
93418,96024
93427,95998
93454,96025
93477,96014
93447,96050
93473,96018
93458,96032
93492,96048
93473,96072
93491,96089
93496,96058
93489,96021
93507,96033
93525,96092
93573,96067
93557,96022
93530,96046
93583,96100
93573,96091
93591,96089
93575,96051
93542,96113
93624,96136
93643,96127
93630,96095
93590,96127
93606,96123
93645,96130
93664,96149
93648,96142
93608,96109
93640,96084
93659,96100
93605,96113
93591,96110
93616,96071
93583,96101
93606,96101
93590,96120
93599,96107
93571,96079
93559,96081
93573,96091
93578,96073
93523,96042
93502,96049
93519,96081
93514,96061
93505,96062
93479,96036
93485,96054
93452,95993
93469,96023
93455,96007
93449,96005
93405,96010
93455,95992
93487,95997
93467,96000
93479,96034
93494,96035
93515,96038
93563,96036
93544,96020
93536,96086
93575,96060
93562,96047
93618,96046
93580,96080
93595,96110
93610,96086
93598,96095
93648,96099
93626,96085
93608,96129
93607,96133
93673,96109
93659,96159
93680,96139
93695,96138
93701,96127
93670,96149
93736,96184
93763,96167
93764,96154
93737,96150
93791,96191
93844,96186
93836,96190
93849,96205
93835,96189
93890,96178
93923,96220
93932,96270
93986,96286
93953,96287
94018,96305
94127,96334
94134,96288
94182,96377
94200,96351
94260,96393
94344,96421
94386,96453
94438,96459
94441,96442
94517,96500
94585,96530
94653,96551
94646,96569
94681,96632
94768,96615
94789,96631
94796,96645
94826,96644
94793,96686
94870,96706
94900,96697
94914,96697
94936,96736
94895,96710
94921,96725
94945,96742
94972,96781
94982,96742
94967,96754
95042,96780
95059,96811
95057,96780
95093,96759
95068,96777
95104,96781
95104,96797
95117,96815
95076,96784
95081,96842
95148,96818
95165,96836
95172,96841
95123,96862
95166,96811
95170,96836
95187,96845
95185,96852
95183,96852
95184,96850
95201,96832
95199,96834
95205,96864
95187,96855
95203,96821
95193,96869
95209,96854
95196,96892
95186,96837
95122,96829
95157,96849
95149,96801
95163,96863
95158,96840
95128,96787
95114,96833
95144,96823
95103,96773
95120,96785
95066,96825
95151,96822
95145,96814
95168,96832
95106,96802
95129,96852
95227,96847
95218,96830
95197,96852
95213,96861
95134,96858
95209,96853
95244,96854
95232,96866
95228,96856
95223,96828
95240,96865
95239,96859
95255,96879
95250,96878
95259,96866
95318,96881
95293,96886
95368,96950
95355,96903
95357,96874
95324,96912
95411,96917
95327,96875
95298,96870
95266,96890
95230,96830
95192,96828
95115,96781
95003,96715
94924,96727
94860,96682
94773,96634
94657,96591
94592,96542
94466,96495
94423,96517
94389,96491
94264,96409
94198,96380
94157,96349
94104,96315
94040,96296
93982,96317
93910,96246
93857,96239
93867,96234
93832,96279
93822,96255
93810,96200
93763,96196
93795,96213
93817,96204
93737,96184
93697,96207
93725,96220
93752,96197
93750,96224
93718,96221
93732,96200
93720,96192
93763,96202
93746,96239
93744,96250
93696,96243
93728,96185
93773,96205
93719,96202
93743,96234
93728,96221
93729,96248
93750,96233
93751,96203
93703,96218
93714,96200
93689,96210
93732,96237
93734,96217
93681,96182
93652,96201
93725,96222
93749,96238
93767,96236
93755,96243
93773,96222
93763,96231
93849,96253
93870,96292
93864,96314
93914,96264
93915,96314
93921,96360
93992,96328
93995,96347
93951,96343
94050,96363
94075,96342
94074,96341
94042,96350
94026,96345
94083,96396
94103,96385
94087,96350
94048,96359
94047,96361
94061,96392
94102,96386
94078,96398
94126,96398
94091,96353
94109,96412
94133,96393
94133,96388
94146,96380
94102,96360
94112,96367
94166,96414
94170,96395
94147,96406
94140,96426
94237,96411
94230,96430
94206,96423
94218,96447
94243,96474
94260,96439
94264,96458
94271,96516
94314,96492
94287,96499
94340,96515
94406,96524
94415,96519
94423,96531
94396,96521
94483,96566
94521,96546
94497,96591
94553,96644
94582,96613
94621,96649
94666,96673
94696,96653
94671,96683
94658,96670
94759,96734
94788,96741
94804,96736
94819,96747
94808,96717
94862,96783
94897,96789
94915,96790
94922,96795
94933,96785
94998,96812
95016,96837
95015,96827
95024,96827
95017,96822
95041,96860
95047,96858
95076,96862
95084,96848
95057,96834
95128,96887
95135,96876
95146,96902
95136,96916
95140,96909
95180,96902
95224,96939
95211,96935
95244,96944
95233,96916
95251,96953
95284,96973
95300,96935
95289,96969
95292,96926
95286,96946
95309,96991
95340,96959
95306,96979
95298,96925
95325,96948
95331,96953
95301,96989
95296,96960
95271,96931
95271,96971
95301,96970
95278,96943
95270,96950
95272,96906
95261,96937
95260,96934
95253,96949
95192,96901
95178,96896
95225,96938
95227,96924
95169,96881
95162,96876
95108,96870
95131,96904
95142,96901
95132,96869
95106,96861
95102,96845
95113,96855
95116,96904
95112,96865
95101,96857
95128,96862
95150,96854
95138,96836
95157,96858
95133,96855
95165,96877
95188,96866
95181,96890
95224,96876
95204,96894
95235,96872
95231,96881
95245,96874
95262,96924
95252,96899
95250,96917
95308,96909
95306,96931
95306,96913
95325,96929
95318,96958
95350,96938
95305,96968
95334,96944
95305,96952
95311,96930
95297,96887
95262,96897
95210,96900
95121,96850
95080,96775
94991,96778
94894,96769
94836,96692
94728,96630
94623,96580
94565,96606
94470,96567
94405,96486
94316,96470
94218,96411
94186,96404
94093,96379
94054,96328
93954,96296
93912,96285
93886,96265
93842,96255
93784,96200
93704,96200
93687,96206
93683,96204
93664,96181
93591,96140
93571,96131
93590,96157
93599,96176
93569,96141
93539,96166
93535,96160
93528,96172
93554,96150
93537,96177
93584,96152
93504,96102
93572,96178
93591,96185
93570,96162
93583,96182
93552,96147
93605,96205
93600,96176
93614,96222
93648,96196
93611,96149
93650,96196
93644,96212
93658,96187
93634,96234
93616,96220
93704,96248
93683,96210
93701,96196
93679,96233
93667,96197
93689,96247
93737,96274
93736,96253
93740,96242
93737,96245
93799,96248
93788,96265
93812,96250
93802,96296
93824,96267
93879,96328
93899,96327
93919,96294
93874,96254
93854,96318
93905,96325
93979,96352
93911,96302
93910,96333
93927,96347
93923,96333
93988,96352
93900,96323
93927,96348
93901,96324
93960,96332
93964,96308
93936,96316
93909,96333
93925,96284
93922,96299
93927,96349
93943,96341
93931,96319
93911,96322
93968,96341
93993,96333
93950,96295
93972,96354
93972,96330
93972,96357
93982,96395
94038,96382
94031,96325
93989,96354
94042,96371
94040,96374
94015,96398
94050,96388
94046,96371
94061,96376
94096,96405
94093,96424
94116,96353
94124,96377
94114,96384
94129,96438
94155,96441
94156,96445
94190,96434
94216,96464
94240,96489
94269,96489
94247,96477
94305,96504
94344,96471
94334,96495
94316,96521
94355,96513
94338,96514
94397,96527
94398,96501
94365,96523
94389,96567
94405,96560
94438,96577
94442,96579
94434,96528
94386,96550
94378,96576
94439,96572
94456,96570
94428,96554
94443,96557
94458,96545
94486,96555
94491,96598
94469,96564
94504,96578
94486,96521
94507,96623
94566,96624
94554,96600
94530,96597
94561,96594
94569,96649
94595,96638
94598,96620
94566,96645
94614,96631
94626,96668
94611,96669
94634,96667
94665,96606
94668,96679
94673,96668
94691,96689
94691,96679
94699,96663
94707,96647
94715,96670
94750,96703
94722,96657
94699,96685
94741,96715
94815,96682
94763,96709
94765,96706
94742,96693
94792,96700
94786,96691
94771,96731
94767,96704
94775,96697
94778,96739
94843,96741
94852,96709
94827,96708
94803,96708
94829,96727
94852,96763
94875,96757
94854,96734
94847,96702
94884,96745
94912,96740
94912,96751
94915,96735
94899,96730
94946,96787
94969,96783
94967,96760
94953,96814
94985,96798
95038,96804
95045,96800
95029,96806
95056,96815
95050,96812
95064,96848
95117,96888
95138,96843
95116,96847
95111,96836
95152,96876
95212,96908
95229,96901
95222,96876
95205,96887
95255,96926
95256,96929
95304,96923
95279,96886
95250,96913
95293,96928
95334,96938
95276,96881
95206,96901
95166,96880
95155,96857
95055,96794
94963,96754
94862,96735
94763,96665
94726,96638
94617,96567
94506,96524
94394,96498
94235,96435
94170,96390
94075,96377
93988,96333
93937,96297
93818,96216
93788,96230
93755,96204
93676,96137
93584,96112
93539,96079
93506,96107
93490,96104
93460,96054
93395,96032
93334,96038
93360,96045
93356,96051
93313,96051
93321,96002
93263,95958
93282,96012
93264,96022
93257,95983
93249,96037
93263,96028
93255,96007
93265,96028
93269,95993
93220,96008
93211,95999
93262,96014
93297,96061
93305,96044
93279,95993
93280,95984
93321,96044
93326,96076
93363,96064
93356,96054
93331,96033
93394,96076
93409,96065
93413,96088
93357,96045
93354,96092
93414,96070
93402,96074
93375,96083
93393,96090
93392,96075
93439,96089
93441,96105
93455,96111
93428,96087
93452,96094
93474,96128
93528,96152
93520,96168
93495,96122
93536,96121
93553,96130
93549,96114
93559,96168
93553,96134
93566,96138
93557,96129
93559,96166
93541,96177
93546,96171
93579,96150
93562,96164
93590,96182
93590,96171
93549,96119
93548,96125
93566,96145
93584,96153
93572,96143
93545,96125
93560,96140
93578,96173
93570,96142
93551,96133
93521,96172
93554,96164
93609,96164
93604,96141
93604,96134
93564,96148
93576,96147
93628,96182
93645,96173
93673,96187
93629,96175
93657,96185
93694,96211
93699,96209
93702,96197
93712,96205
93747,96248
93768,96236
93785,96243
93789,96243
93770,96247
93811,96268
93861,96282
93887,96311
93899,96299
93876,96297
93916,96312
93960,96334
93960,96339
93971,96334
93969,96323
94011,96334
94021,96377
94037,96402
94073,96395
94063,96336
94085,96420
94170,96429
94164,96368
94178,96428
94186,96417
94216,96445
94221,96429
94216,96451
94223,96455
94228,96454
94278,96493
94297,96505
94310,96488
94331,96508
94294,96468
94336,96517
94393,96526
94377,96519
94396,96540
94406,96531
94455,96548
94463,96557
94447,96546
94449,96578
94474,96571
94511,96588
94534,96589
94515,96589
94541,96618
94526,96546
94563,96576
94592,96601
94573,96617
94580,96635
94540,96590
94601,96618
94592,96651
94574,96604
94544,96624
94529,96579
94554,96607
94616,96616
94569,96617
94593,96623
94570,96563
94637,96624
94630,96641
94646,96650
94668,96618
94600,96593
94654,96668
94716,96664
94714,96697
94737,96644
94670,96657
94732,96680
94785,96711
94770,96701
94766,96729
94748,96692
94813,96716
94853,96745
94864,96740
94885,96740
94882,96706
94919,96747
94926,96786
94950,96785
94939,96736
94900,96777
95012,96820
95040,96816
95038,96828
95056,96850
95048,96801
95103,96854
95115,96848
95136,96893
95172,96876
95172,96832
95222,96876
95217,96899
95224,96918
95242,96925
95253,96920
95294,96946
95320,96945
95316,96950
95310,96961
95344,96941
95376,96957
95338,96926
95308,96943
95285,96937
95296,96914
95239,96888
95174,96821
95070,96802
94971,96804
94926,96736
94837,96709
94733,96667
94620,96652
94545,96609
94471,96493
94385,96491
94306,96470
94253,96391
94097,96354
94018,96339
93980,96319
93944,96312
93867,96286
93832,96212
93729,96201
93717,96206
93700,96223
93679,96203
93593,96171
93608,96155
93619,96192
93619,96154
93589,96145
93560,96114
93577,96148
93592,96135
93551,96142
93539,96151
93538,96147
93539,96159
93566,96171
93566,96195
93589,96214
93571,96127
93600,96154
93623,96160
93626,96183
93647,96202
93644,96194
93649,96229
93693,96251
93671,96221
93687,96247
93679,96216
93726,96234
93725,96220
93773,96266
93714,96273
93708,96236
93778,96260
93766,96238
93751,96303
93814,96293
93773,96271
93832,96290
93826,96263
93844,96334
93863,96327
93882,96334
93922,96324
93952,96364
93949,96362
94001,96352
93956,96330
93976,96361
94002,96391
94043,96391
93965,96408
93999,96358
94027,96376
94047,96376
94016,96374
94075,96362
93982,96352
94026,96421
94015,96425
94050,96414
94005,96411
93989,96363
94026,96387
94002,96370
93983,96387
93972,96393
93944,96359
93970,96372
93995,96381
93993,96358
94001,96347
93944,96332
93998,96336
93983,96388
93988,96376
93955,96396
93966,96348
93990,96372
94008,96384
94009,96400
93982,96415
94003,96396
94053,96407
94057,96401
94075,96404
94070,96413
94051,96413
94068,96461
94093,96465
94151,96481
94169,96471
94130,96441
94192,96459
94197,96490
94204,96512
94212,96479
94185,96495
94224,96534
94272,96524
94286,96525
94268,96565
94260,96530
94304,96536
94359,96571
94371,96556
94412,96548
94349,96550
94409,96605
94456,96619
94456,96615
94455,96573
94472,96621
94542,96671
94562,96681
94540,96641
94569,96634
94514,96660
94563,96680
94601,96689
94608,96674
94563,96679
94613,96668
94634,96670
94650,96669
94629,96669
94632,96695
94637,96705
94635,96682
94648,96734
94683,96719
94659,96689
94648,96683
94696,96704
94704,96711
94649,96705
94662,96723
94700,96753
94724,96718
94727,96719
94734,96710
94694,96696
94654,96748
94702,96773
94724,96712
94726,96729
94704,96713
94689,96672
94690,96730
94725,96755
94752,96714
94742,96711
94734,96728
94776,96769
94785,96718
94748,96735
94758,96745
94755,96733
94797,96741
94796,96789
94828,96790
94817,96764
94800,96765
94847,96803
94861,96769
94814,96761
94821,96747
94832,96806
94874,96803
94906,96785
94913,96801
94878,96781
94878,96788
94915,96833
94965,96848
94955,96840
94958,96846
94977,96850
95037,96854
95010,96870
95026,96848
94990,96848
95032,96882
95071,96850
95017,96827
94935,96841
94894,96784
94874,96776
94839,96767
94757,96685
94656,96660
94524,96615
94469,96600
94407,96556
94321,96525
94188,96490
94101,96428
94045,96420
93981,96374
93887,96325
93843,96321
93754,96235
93667,96183
93624,96181
93598,96170
93535,96164
93481,96087
93411,96081
93388,96113
93374,96120
93315,96045
93277,96046
93241,96041
93258,96040
93217,96042
93205,96054
93197,95994
93203,96014
93205,96025
93169,96024
93158,96056
93162,96028
93177,96029
93205,96041
93220,96046
93207,96033
93208,96046
93268,96067
93288,96098
93318,96096
93291,96064
93232,96106
93314,96112
93373,96125
93376,96121
93374,96117
93355,96077
93377,96138
93388,96153
93415,96167
93395,96124
93416,96157
93421,96165
93475,96154
93486,96179
93478,96202
93482,96163
93515,96204
93574,96204
93572,96191
93555,96227
93542,96243
93628,96237
93641,96268
93648,96250
93650,96288
93634,96284
93721,96282
93718,96281
93682,96276
93686,96234
93675,96292
93735,96287
93743,96303
93726,96279
93701,96283
93659,96230
93681,96270
93693,96278
93696,96258
93692,96273
93660,96239
93718,96257
93728,96255
93659,96266
93643,96273
93674,96266
93682,96275
93682,96295
93713,96260
93693,96236
93667,96239
93704,96278
93719,96285
93760,96312
93761,96311
93731,96317
93763,96325
93797,96323
93807,96314
93796,96329
93816,96333
93841,96343
93856,96378
93871,96386
93892,96366
93857,96366
93898,96408
93902,96393
93914,96391
93919,96390
93943,96387
93979,96420
94045,96449
94029,96456
94027,96441
94049,96463
94092,96485
94142,96481
94105,96460
94118,96457
94156,96478
94184,96512
94185,96547
94202,96559
94216,96565
94208,96519
94270,96550
94299,96558
94294,96556
94287,96549
94274,96589
94347,96614
94364,96604
94344,96586
94355,96583
94354,96633
94419,96643
94436,96648
94454,96640
94390,96645
94476,96675
94512,96670
94534,96654
94522,96659
94483,96655
94544,96666
94586,96660
94559,96691
94585,96702
94569,96686
94615,96701
94638,96733
94638,96714
94626,96723
94610,96699
94645,96725
94672,96708
94657,96718
94654,96751
94668,96720
94668,96703
94707,96747
94702,96738
94714,96732
94655,96695
94708,96791
94766,96789
94761,96767
94742,96746
94724,96720
94734,96780
94785,96802
94807,96786
94770,96785
94786,96785
94795,96804
94829,96833
94865,96808
94845,96804
94848,96804
94879,96854
94926,96851
94893,96844
94917,96846
94862,96853
94942,96842
94957,96836
94930,96849
94958,96844
94878,96859
94969,96875
94989,96858
94970,96849
94990,96865
94964,96845
95022,96842
95031,96871
95009,96883
95028,96889
95019,96851
95075,96905
95101,96900
95073,96909
95119,96916
95058,96905
95157,96935
95123,96964
95186,96968
95200,96936
95162,96905
95194,96954
95212,96968
95266,96973
95235,96924
95208,96972
95218,97007
95252,97005
95289,97004
95312,97013
95270,96963
95326,97064
95377,97072
95372,97045
95389,97044
95329,97029
95410,97091
95425,97077
95422,97056
95388,97025
95347,96996
95311,97015
95277,96991
95191,96948
95106,96877
94962,96830
94894,96805
94791,96719
94631,96724
94536,96659
94405,96611
94324,96547
94242,96514
94101,96464
94033,96414
93904,96372
93880,96311
93774,96291
93695,96255
93585,96213
93536,96208
93531,96176
93499,96143
93425,96143
93341,96093
93300,96076
93257,96091
93275,96063
93203,96021
93140,96043
93090,96019
93130,96031
93103,96041
93078,96054
93088,96003
93019,95980
93064,96008
93036,95995
93032,96026
93055,96007
93044,96013
93071,96012
93058,96020
93092,96053
93074,95991
93095,95982
93093,96017
93109,96012
93121,96016
93106,96015
93088,96025
93147,96054
93155,96077
93171,96059
93169,96020
93174,96036
93193,96054
93231,96060
93198,96035
93186,96044
93177,96064
93221,96090
93265,96094
93257,96064
93217,96078
93252,96089
93265,96112
93326,96108
93290,96071
93285,96117
93296,96157
93340,96135
93351,96146
93369,96148
93323,96125
93351,96096
93336,96136
93395,96115
93352,96154
93316,96108
93321,96161
93360,96169
93382,96145
93359,96152
93338,96134
93356,96133
93359,96135
93354,96116
93334,96162
93353,96124
93378,96132
93385,96134
93419,96152
93367,96122
93329,96106
93330,96120
93376,96141
93384,96126
93374,96141
93349,96118
93392,96139
93362,96149
93382,96144
93370,96116
93319,96114
93360,96167
93428,96185
93397,96176
93384,96150
93383,96167
93437,96168
93469,96169
93449,96160
93479,96181
93450,96189
93555,96212
93546,96201
93561,96225
93548,96244
93587,96249
93633,96251
93655,96270
93688,96260
93678,96288
93697,96272
93768,96312
93792,96328
93780,96315
93835,96373
93827,96363
93869,96348
93886,96371
93903,96376
93916,96363
93897,96360
93935,96400
93947,96449
93985,96424
94022,96434
94008,96435
94094,96435
94069,96428
94074,96447
94071,96447
94084,96444
94106,96490
94166,96516
94136,96520
94180,96513
94141,96452
94193,96502
94257,96528
94223,96545
94268,96523
94254,96527
94292,96566
94321,96565
94308,96544
94292,96589
94309,96574
94374,96599
94381,96594
94378,96596
94387,96581
94399,96572
94427,96591
94445,96607
94467,96617
94452,96630
94466,96640
94514,96625
94506,96633
94502,96652
94485,96646
94484,96650
94504,96648
94530,96686
94496,96659
94529,96662
94533,96637
94578,96702
94554,96661
94559,96732
94584,96693
94571,96666
94587,96684
94612,96691
94637,96734
94619,96680
94611,96655
94636,96713
94646,96707
94648,96739
94694,96752
94690,96713
94733,96713
94744,96737
94735,96744
94702,96730
94708,96724
94757,96752
94759,96764
94800,96763
94799,96725
94813,96763
94866,96782
94853,96816
94897,96812
94881,96772
94894,96803
94922,96830
94943,96844
94949,96834
94921,96775
94943,96791
94979,96842
94982,96867
95007,96830
94939,96820
94943,96819
94998,96858
95010,96857
95018,96863
94997,96823
95029,96874
95085,96892
95089,96889
95119,96891
95105,96876
95164,96949
95215,96904
95201,96904
95212,96938
95209,96929
95256,96936
95261,96954
95250,96971
95241,97008
95251,96956
95281,96939
95269,96983
95264,96968
95212,96907
95105,96842
95074,96828
94986,96842
94896,96796
94808,96715
94639,96663
94575,96623
94476,96574
94356,96528
94241,96472
94118,96431
94061,96389
93965,96346
93855,96307
93771,96277
93676,96213
93589,96187
93575,96225
93525,96189
93443,96148
93330,96095
93326,96089
93291,96122
93262,96067
93236,96037
93159,96013
93187,96053
93172,96050
93124,95977
93118,96045
93089,96005
93141,96019
93148,96040
93134,96041
93159,96021
93108,95977
93151,95999
93187,96058
93161,96038
93195,96052
93167,96020
93230,96041
93221,96062
93250,96093
93241,96082
93255,96093
93283,96129
93334,96087
93311,96070
93335,96116
93291,96087
93327,96116
93324,96140
93335,96130
93362,96124
93312,96113
93336,96119
93410,96148
93393,96142
93376,96155
93360,96119
93390,96150
93419,96187
93424,96165
93422,96172
93377,96137
93456,96185
93498,96202
93497,96197
93476,96196
93469,96183
93498,96231
93517,96222
93486,96180
93503,96178
93495,96171
93480,96217
93514,96218
93509,96192
93476,96191
93478,96167
93484,96213
93503,96201
93486,96180
93459,96165
93433,96167
93445,96186
93464,96181
93468,96201
93469,96173
93442,96149
93459,96180
93474,96193
93414,96211
93437,96204
93451,96136
93472,96158
93472,96190
93450,96159
93456,96190
93462,96197
93495,96224
93520,96218
93499,96198
93488,96156
93502,96184
93547,96212
93542,96225
93550,96203
93514,96200
93554,96237
93569,96234
93576,96249
93551,96251
93619,96273
93602,96271
93668,96292
93681,96271
93671,96308
93717,96303
93742,96279
93779,96327
93805,96323
93794,96373
93844,96350
93901,96363
93911,96376
93957,96405
93938,96393
93945,96424
93984,96429
94013,96440
94066,96450
94083,96455
94047,96452
94067,96472
94109,96470
94146,96490
94156,96469
94166,96468
94188,96496
94202,96519
94235,96532
94264,96522
94235,96471
94272,96539
94307,96571
94330,96561
94371,96558
94327,96562
94341,96586
94411,96604
94431,96591
94466,96634
94426,96597
94456,96600
94493,96625
94448,96631
94463,96633
94419,96625
94457,96653
94477,96665
94513,96663
94490,96655
94529,96665
94534,96649
94530,96698
94549,96696
94560,96706
94550,96656
94600,96684
94645,96694
94651,96706
94661,96693
94626,96713
94704,96703
94720,96737
94736,96731
94714,96719
94679,96756
94728,96770
94778,96760
94797,96776
94775,96782
94783,96753
94817,96771
94824,96796
94836,96797
94853,96800
94820,96766
94887,96803
94886,96830
94912,96865
94946,96840
94912,96832
94957,96858
95000,96900
95026,96894
95020,96873
94993,96875
95037,96900
95079,96874
95069,96890
95059,96892
95066,96904
95118,96931
95103,96932
95136,96927
95139,96950
95099,96898
95150,96945
95248,96967
95219,96962
95209,96959
95192,96968
95251,96991
95272,96992
95304,96990
95270,96971
95250,96973
95327,97033
95345,97004
95311,96998
95330,97017
95319,96978
95319,96996
95296,97032
95284,97045
95284,96999
95230,96967
95223,96980
95183,96931
95096,96880
94969,96878
94909,96805
94816,96791
94732,96738
94617,96685
94516,96659
94404,96584
94336,96547
94217,96515
94163,96471
94018,96382
93875,96350
93827,96338
93764,96333
93709,96286
93638,96240
93583,96167
93543,96172
93475,96166
93427,96148
93373,96128
93308,96106
93316,96103
93313,96080
93257,96052
93230,96049
93186,96030
93202,96043
93210,96048
93199,96065
93168,96018
93149,96042
93186,96038
93194,96068
93174,96071
93178,96084
93212,96070
93233,96075
93245,96093
93252,96112
93217,96050
93225,96088
93242,96104
93288,96140
93246,96116
93271,96110
93262,96089
93304,96096
93289,96143
93272,96117
93254,96108
93226,96094
93260,96143
93286,96141
93309,96133
93261,96084
93286,96109
93332,96132
93346,96094
93323,96115
93305,96119
93336,96158
93361,96182
93420,96154
93375,96150
93362,96177
93436,96217
93449,96187
93456,96183
93434,96170
93392,96182
93406,96219
93431,96202
93435,96178
93433,96187
93376,96156
93410,96178
93413,96200
93456,96208
93446,96169
93421,96174
93455,96204
93486,96165
93452,96180
93448,96165
93437,96186
93471,96191
93464,96201
93494,96223
93485,96204
93462,96164
93496,96219
93499,96240
93492,96210
93495,96197
93470,96173
93464,96215
93518,96243
93526,96221
93540,96224
93497,96204
93566,96269
93585,96263
93566,96240
93579,96233
93521,96261
93624,96285
93652,96289
93655,96247
93624,96302
93606,96278
93661,96282
93676,96315
93719,96329
93720,96329
93683,96298
93769,96327
93803,96341
93779,96321
93809,96338
93753,96308
93870,96379
93904,96381
93873,96385
93888,96396
93915,96384
93978,96406
93998,96459
94036,96447
94040,96466
94026,96459
94052,96458
94102,96486
94100,96491
94140,96488
94144,96505
94191,96522
94218,96541
94207,96510
94258,96535
94185,96525
94276,96564
94316,96565
94301,96579
94304,96559
94295,96552
94333,96593
94329,96587
94339,96580
94357,96592
94334,96576
94390,96588
94392,96609
94367,96600
94386,96631
94392,96627
94478,96634
94476,96628
94475,96622
94484,96629
94468,96636
94516,96666
94512,96628
94542,96665
94536,96632
94518,96658
94549,96678
94589,96649
94522,96681
94520,96673
94548,96670
94526,96701
94568,96699
94586,96687
94585,96675
94560,96689
94576,96711
94624,96731
94604,96692
94593,96681
94554,96684
94576,96667
94573,96691
94583,96730
94573,96721
94600,96671
94612,96682
94621,96701
94603,96726
94589,96703
94631,96708
94643,96756
94684,96701
94658,96722
94637,96704
94649,96701
94658,96703
94688,96731
94673,96704
94669,96717
94705,96737
94742,96734
94732,96763
94730,96742
94753,96777
94751,96704
94782,96766
94804,96780
94796,96754
94754,96789
94806,96792
94832,96782
94869,96811
94864,96787
94847,96776
94821,96813
94822,96816
94859,96776
94816,96778
94772,96706
94694,96696
94653,96666
94561,96640
94449,96584
94324,96523
94242,96501
94149,96477
94048,96410
93939,96343
93828,96295
93724,96258
93662,96223
93529,96194
93443,96167
93353,96114
93281,96068
93238,96063
93157,95992
93094,95989
93005,95940
93008,95959
92968,95911
92934,95905
92871,95880
92820,95873
92835,95905
92807,95857
92806,95879
92769,95847
92717,95825
92727,95825
92756,95857
92738,95845
92719,95847
92695,95809
92750,95839
92793,95871
92778,95863
92779,95863
92769,95851
92836,95881
92854,95904
92848,95915
92859,95904
92841,95895
92868,95905
92881,95927
92928,95941
92936,95947
92884,95929
92928,95937
92967,95946
92936,95951
92929,95927
92935,95924
93003,95954
93006,95988
92988,95948
93017,95967
93002,95961
93073,95991
93099,96018
93096,96000
93089,96024
93096,96006
93158,96034
93215,96051
93217,96070
93214,96073
93210,96061
93245,96080
93276,96100
93252,96111
93281,96089
93241,96081
93295,96108
93327,96116
93274,96107
93293,96096
93264,96070
93323,96127
93341,96133
93299,96102
93292,96108
93266,96086
93291,96112
93330,96101
93302,96112
93259,96086
93260,96060
93276,96132
93297,96114
93281,96125
93260,96099
93240,96075
93272,96097
93286,96080
93274,96114
93313,96085
93289,96093
93323,96102
93360,96131
93350,96154
93352,96115
93390,96161
93419,96155
93459,96196
93473,96173
93448,96141
93465,96145
93518,96210
93511,96244
93534,96179
93533,96180
93521,96185
93583,96234
93604,96249
93565,96268
93578,96267
93617,96255
93644,96279
93714,96287
93690,96260
93671,96246
93695,96291
93758,96307
93809,96315
93772,96309
93787,96316
93793,96344
93864,96368
93896,96332
93866,96334
93838,96340
93887,96376
93918,96419
93956,96371
93925,96377
93948,96382
93940,96386
94002,96418
94061,96409
94013,96433
93996,96423
94057,96464
94130,96459
94153,96461
94102,96469
94096,96444
94136,96505
94165,96498
94150,96536
94167,96500
94193,96487
94200,96506
94273,96500
94233,96491
94192,96543
94194,96483
94230,96543
94273,96542
94303,96499
94255,96523
94234,96515
94288,96544
94307,96557
94285,96542
94271,96569
94259,96548
94318,96570
94385,96570
94354,96538
94344,96593
94340,96602
94397,96572
94406,96626
94418,96627
94427,96607
94409,96577
94415,96603
94414,96645
94465,96617
94451,96611
94426,96631
94421,96617
94493,96635
94483,96622
94492,96596
94468,96594
94496,96648
94505,96630
94511,96650
94524,96645
94523,96639
94557,96640
94589,96669
94591,96646
94600,96681
94563,96674
94609,96686
94645,96697
94640,96708
94649,96687
94595,96674
94667,96705
94703,96709
94706,96717
94720,96704
94675,96712
94721,96736
94749,96756
94760,96755
94755,96730
94779,96746
94808,96757
94810,96774
94823,96770
94825,96752
94816,96777
94893,96803
94925,96796
94897,96812
94889,96804
94907,96777
94972,96810
94990,96868
94990,96852
94973,96834
94946,96819
94998,96843
94996,96816
94909,96811
94897,96781
94830,96745
94777,96743
94688,96690
94584,96617
94429,96571
94308,96494
94218,96468
94126,96434
94022,96385
93894,96312
93771,96238
93702,96221
93643,96239
93534,96169
93445,96110
93345,96081
93296,96065
93260,96030
93191,95999
93089,95966
93045,95934
93032,95954
92955,95904
92922,95879
92872,95869
92822,95856
92832,95861
92801,95842
92773,95833
92723,95803
92685,95806
92727,95823
92741,95829
92704,95807
92678,95808
92668,95786
92695,95821
92743,95826
92719,95825
92698,95817
92711,95829
92754,95825
92769,95826
92759,95853
92749,95835
92765,95841
92803,95859
92836,95864
92823,95865
92798,95862
92823,95854
92855,95892
92882,95868
92855,95870
92827,95857
92879,95870
92888,95884
92887,95870
92860,95889
92853,95866
92909,95891
92943,95920
92952,95913
92952,95939
92957,95922
92950,95952
92990,95939
93038,95937
93055,95967
93029,95953
93087,95980
93074,95999
93115,95981
93106,95992
93071,95972
93104,95989
93121,96001
93158,95989
93152,96026
93126,95976
93141,95983
93161,96004
93174,96020
93152,95971
93122,95979
93141,96003
93149,96021
93111,95994
93111,96029
93121,95997
93111,96009
93169,96024
93115,96008
93102,95985
93107,95954
93135,96010
93146,96003
93185,96032
93194,95997
93147,95954
93178,96005
93197,96018
93216,96003
93213,95996
93193,96009
93223,96059
93271,96068
93240,96067
93267,96094
93274,96077
93315,96084
93357,96084
93389,96123
93401,96104
93377,96083
93409,96114
93427,96127
93427,96150
93488,96131
93449,96101
93466,96133
93501,96161
93480,96169
93526,96158
93498,96151
93534,96177
93594,96210
93528,96202
93563,96186
93536,96221
93595,96215
93640,96229
93657,96225
93675,96193
93660,96210
93716,96249
93725,96254
93722,96276
93760,96293
93755,96286
93783,96283
93813,96299
93816,96261
93791,96284
93774,96301
93850,96328
93871,96329
93893,96347
93878,96316
93926,96306
93920,96343
93945,96370
93961,96387
93952,96338
93962,96333
93996,96361
94011,96379
94032,96347
94003,96362
93996,96353
94054,96387
94037,96376
94002,96423
94047,96417
94056,96392
94098,96438
94122,96416
94103,96415
94101,96418
94081,96380
94131,96404
94145,96429
94130,96447
94099,96419
94126,96424
94182,96446
94223,96455
94205,96460
94213,96465
94196,96446
94241,96476
94262,96480
94293,96500
94249,96481
94262,96458
94313,96520
94354,96525
94366,96524
94360,96523
94374,96529
94398,96557
94446,96565
94402,96530
94411,96551
94443,96559
94485,96583
94481,96577
94454,96575
94458,96562
94478,96577
94528,96569
94525,96622
94564,96600
94494,96596
94533,96601
94583,96629
94600,96634
94582,96626
94549,96594
94617,96619
94618,96622
94633,96655
94657,96629
94658,96657
94659,96656
94713,96677
94715,96694
94730,96690
94723,96697
94765,96733
94788,96731
94794,96735
94801,96723
94834,96729
94869,96747
94914,96774
94908,96760
94914,96758
94917,96783
94971,96830
94963,96808
94989,96807
95002,96797
94998,96810
95042,96845
95108,96863
95112,96879
95106,96850
95101,96817
95129,96887
95171,96884
95178,96894
95127,96859
95090,96834
95075,96842
95017,96817
94971,96772
94887,96739
94771,96700
94680,96654
94585,96598
94443,96557
94307,96474
94147,96418
94086,96384
93983,96321
93878,96272
93778,96233
93627,96174
93582,96149
93502,96104
93429,96092
93370,96058
93288,95979
93230,95999
93202,95949
93152,95956
93089,95955
93009,95908
92995,95881
92986,95892
92954,95883
92940,95884
92899,95835
92934,95872
92897,95878
92879,95862
92862,95822
92826,95837
92863,95846
92896,95861
92872,95859
92835,95853
92837,95837
92901,95868
92900,95873
92897,95848
92897,95875
92918,95871
92927,95882
92960,95885
92938,95899
92971,95906
92940,95881
93016,95881
92990,95921
92985,95912
92956,95921
92992,95900
92998,95909
92993,95908
92991,95923
92995,95907
92958,95870
92981,95918
93017,95906
92940,95887
92962,95930
92989,95928
93040,95948
93075,95957
93076,95960
93087,95978
93112,95928
93163,95969
93166,95987
93165,96003
93179,95950
93171,95955
93216,95984
93204,96000
93205,95976
93182,95996
93167,96007
93188,96002
93200,96008
93164,95945
93152,95998
93143,95994
93165,95986
93209,95999
93166,96006
93158,95977
93151,95943
93153,95990
93179,95976
93110,95984
93132,95978
93127,95962
93142,95960
93152,95971
93167,95943
93117,95907
93095,95938
93188,95970
93192,95961
93164,95964
93159,95958
93161,95948
93205,95964
93195,95985
93232,95979
93223,95957
93213,95989
93272,96026
93267,96016
93315,95987
93275,96002
93320,96027
93348,96037
93354,96038
93357,96042
93314,96026
93339,96058
93421,96077
93427,96067
93395,96134
93442,96062
93456,96071
93501,96101
93498,96123
93522,96120
93492,96128
93527,96155
93569,96159
93594,96156
93594,96183
93602,96173
93656,96211
93680,96206
93671,96193
93707,96208
93668,96163
93732,96219
93765,96245
93781,96246
93767,96236
93740,96225
93766,96233
93791,96265
93817,96264
93833,96257
93830,96255
93873,96288
93913,96306
93921,96309
93920,96299
93895,96285
93975,96342
93987,96336
93969,96327
93965,96348
93972,96344
94022,96360
94060,96363
94054,96349
94050,96363
94036,96388
94100,96385
94129,96388
94087,96393
94099,96391
94080,96391
94169,96404
94214,96422
94183,96438
94191,96427
94181,96401
94216,96456
94261,96471
94263,96465
94253,96464
94228,96436
94307,96478
94319,96482
94334,96505
94353,96498
94320,96497
94330,96509
94354,96500
94362,96490
94357,96509
94382,96498
94424,96535
94415,96542
94433,96531
94409,96531
94404,96505
94421,96551
94478,96566
94458,96572
94449,96556
94424,96524
94453,96557
94491,96546
94495,96539
94520,96575
94526,96580
94567,96608
94591,96612
94572,96589
94582,96619
94604,96621
94650,96647
94656,96647
94656,96634
94630,96625
94650,96616
94710,96644
94713,96669
94733,96653
94738,96663
94741,96652
94739,96670
94786,96703
94807,96717
94792,96704
94802,96702
94833,96721
94859,96719
94862,96725
94876,96735
94888,96741
94934,96757
94938,96758
94980,96784
94967,96774
94982,96780
95011,96815
95031,96808
95058,96806
95042,96805
95079,96820
95091,96841
95081,96839
95055,96795
94989,96763
94931,96716
94884,96726
94785,96708
94668,96638
94553,96567
94445,96537
94346,96476
94208,96419
94107,96374
93996,96304
93915,96278
93821,96240
93731,96202
93613,96119
93534,96095
93453,96112
93429,96073
93346,96034
93284,95986
93202,95950
93161,95928
93166,95960
93154,95920
93096,95918
93050,95905
93075,95904
93040,95890
93034,95904
93047,95900
93001,95896
93022,95889
93019,95900
93021,95901
93032,95916
93026,95904
93076,95908
93094,95938
93100,95947
93123,95953
93088,95934
93146,95937
93166,95981
93194,95975
93199,95999
93198,95974
93215,95996
93242,95995
93223,96017
93273,96003
93247,96005
93265,96005
93280,96030
93300,96059
93294,96026
93257,96005
93263,96014
93310,96043
93331,96040
93311,96042
93284,96039
93354,96041
93402,96084
93404,96075
93390,96056
93379,96049
93431,96080
93462,96079
93467,96105
93502,96127
93457,96091
93484,96114
93535,96117
93526,96119
93522,96116
93482,96109
93552,96135
93571,96149
93531,96128
93557,96148
93509,96124
93562,96158
93546,96146
93545,96148
93562,96148
93523,96128
93532,96153
93545,96145
93537,96133
93520,96122
93497,96128
93508,96124
93542,96142
93524,96132
93506,96155
93495,96150
93556,96126
93554,96162
93532,96139
93521,96118
93470,96123
93510,96129
93525,96130
93550,96147
93500,96130
93540,96160
93576,96152
93583,96159
93586,96136
93549,96141
93542,96153
93600,96179
93598,96178
93639,96211
93649,96167
93630,96178
93676,96197
93703,96250
93705,96236
93725,96227
93747,96225
93781,96237
93791,96244
93824,96243
93827,96237
93806,96236
93862,96293
93891,96305
93889,96279
93845,96262
93889,96283
93956,96318
93938,96302
93943,96332
93952,96325
93956,96324
93998,96377
94028,96370
94052,96370
94062,96356
94032,96362
94077,96370
94091,96415
94111,96418
94110,96417
94149,96418
94153,96429
94212,96403
94174,96402
94156,96378
94175,96432
94231,96460
94242,96439
94216,96455
94182,96462
94232,96455
94274,96475
94275,96503
94291,96492
94293,96469
94300,96479
94365,96502
94366,96507
94364,96515
94382,96516
94355,96498
94389,96496
94407,96511
94384,96524
94389,96537
94441,96499
94406,96549
94437,96533
94417,96544
94441,96503
94412,96520
94449,96567
94443,96544
94444,96538
94472,96531
94503,96538
94524,96542
94511,96573
94524,96577
94481,96556
94525,96577
94564,96596
94578,96585
94574,96583
94515,96589
94605,96617
94622,96616
94632,96600
94602,96609
94584,96612
94630,96624
94679,96637
94635,96603
94627,96627
94608,96637
94687,96606
94695,96629
94689,96616
94657,96607
94658,96599
94686,96638
94694,96647
94731,96646
94681,96663
94687,96648
94742,96655
94744,96674
94754,96669
94747,96644
94727,96628
94766,96681
94789,96668
94770,96676
94808,96689
94769,96665
94826,96710
94850,96694
94851,96707
94841,96681
94760,96627
94774,96671
94694,96645
94618,96570
94537,96520
94397,96455
94351,96451
94207,96429
94084,96379
93995,96301
93858,96231
93806,96214
93669,96167
93556,96109
93461,96071
93359,96034
93364,96001
93231,95937
93168,95938
93094,95892
93024,95864
93045,95845
92954,95864
92941,95834
92876,95766
92838,95738
92805,95757
92809,95766
92771,95732
92752,95702
92696,95710
92725,95746
92698,95732
92679,95759
92688,95718
92656,95719
92702,95734
92709,95737
92711,95732
92689,95710
92693,95714
92700,95738
92727,95756
92715,95725
92723,95718
92727,95734
92757,95751
92773,95757
92771,95778
92797,95777
92770,95775
92843,95782
92821,95789
92823,95766
92802,95769
92791,95760
92817,95801
92871,95802
92863,95787
92832,95795
92859,95811
92877,95836
92868,95841
92901,95849
92906,95802
92894,95818
92948,95852
92941,95812
92922,95826
92924,95861
92966,95848
92988,95874
93024,95858
93031,95853
93008,95822
93015,95851
93020,95875
93027,95910
93004,95854
92977,95839
93014,95883
93039,95883
93061,95880
93036,95837
92988,95857
92989,95896
93041,95881
93057,95878
93002,95861
92973,95840
93008,95881
93039,95882
93062,95864
93019,95852
93009,95842
93011,95882
93020,95864
93039,95866
93072,95861
93005,95845
93024,95855
93035,95883
93024,95855
93026,95883
93018,95894
93076,95885
93075,95890
93095,95922
93095,95919
93087,95891
93093,95889
93129,95921
93130,95928
93133,95920
93114,95893
93158,95948
93211,95978
93247,95946
93239,95939
93197,95929
93254,95971
93256,95993
93306,96025
93322,96011
93332,95968
93346,96002
93363,96021
93349,96018
93347,96053
93312,96040
93397,96058
93439,96076
93456,96056
93437,96055
93423,96035
93469,96078
93498,96074
93475,96077
93487,96063
93458,96060
93536,96101
93567,96133
93580,96101
93559,96095
93562,96099
93607,96116
93638,96171
93628,96153
93634,96126
93644,96121
93647,96162
93724,96199
93704,96207
93709,96183
93703,96170
93736,96185
93773,96219
93751,96212
93768,96169
93765,96166
93765,96202
93816,96217
93799,96214
93801,96221
93793,96222
93867,96268
93895,96279
93896,96254
93886,96250
93872,96246
93929,96259
93927,96264
93928,96262
93939,96275
93950,96313
94000,96315
94028,96300
94001,96318
94017,96302
93989,96325
94034,96349
94076,96358
94055,96344
94052,96296
94054,96355
94092,96365
94127,96379
94108,96370
94103,96348
94090,96360
94130,96378
94166,96392
94147,96393
94141,96366
94128,96365
94180,96402
94164,96397
94180,96416
94168,96387
94155,96385
94205,96406
94226,96414
94241,96412
94214,96398
94238,96423
94249,96403
94279,96429
94276,96441
94271,96412
94269,96432
94347,96461
94327,96459
94347,96482
94355,96469
94362,96471
94373,96479
94412,96483
94387,96456
94360,96443
94398,96483
94438,96496
94439,96517
94477,96507
94462,96476
94505,96511
94488,96537
94505,96542
94491,96558
94481,96524
94530,96539
94558,96587
94573,96563
94548,96528
94522,96565
94514,96543
94541,96533
94482,96504
94407,96463
94318,96421
94253,96407
94199,96367
94057,96313
93946,96272
93809,96193
93721,96146
93589,96098
93487,96028
93351,95955
93211,95941
93141,95893
93083,95838
92981,95811
92897,95769
92803,95714
92769,95692
92686,95680
92601,95632
92559,95623
92481,95558
92480,95580
92405,95572
92359,95537
92344,95515
92239,95480
92249,95493
92253,95486
92205,95473
92189,95465
92107,95473
92145,95482
92181,95442
92150,95491
92171,95462
92131,95439
92150,95441
92159,95476
92142,95493
92197,95460
92156,95439
92185,95452
92200,95494
92202,95474
92191,95434
92163,95471
92215,95453
92227,95503
92243,95490
92264,95507
92219,95508
92241,95514
92238,95505
92223,95522
92253,95539
92242,95503
92297,95521
92271,95527
92296,95520
92243,95507
92209,95525
92304,95540
92333,95534
92317,95529
92302,95549
92315,95561
92353,95580
92375,95530
92385,95583
92397,95583
92409,95575
92427,95587
92449,95601
92426,95586
92390,95543
92381,95563
92420,95593
92459,95580
92454,95595
92434,95603
92466,95607
92465,95614
92471,95603
92405,95608
92434,95594
92433,95598
92450,95617
92495,95593
92453,95568
92402,95564
92418,95597
92450,95600
92476,95581
92438,95617
92465,95612
92468,95597
92481,95622
92491,95582
92495,95619
92463,95612
92475,95568
92533,95631
92554,95646
92606,95640
92585,95617
92591,95652
92647,95677
92672,95682
92685,95716
92731,95711
92746,95688
92774,95737
92802,95755
92820,95778
92829,95752
92813,95760
92856,95820
92907,95790
92929,95800
92896,95800
92907,95820
92987,95848
93002,95836
93000,95852
92991,95822
93048,95849
93066,95878
93085,95900
93093,95913
93117,95849
93163,95890
93189,95940
93200,95935
93219,95940
93198,95958
93223,95971
93302,95974
93335,96009
93321,95964
93339,96026
93327,96014
93409,96056
93420,96057
93433,96026
93396,96044
93468,96058
93514,96076
93529,96092
93513,96096
93518,96060
93545,96101
93588,96128
93599,96106
93620,96106
93564,96115
93615,96127
93652,96168
93664,96160
93664,96135
93674,96155
93690,96198
93739,96219
93748,96204
93760,96183
93754,96191
93777,96188
93841,96198
93850,96221
93824,96220
93822,96227
93865,96264
93886,96268
93877,96254
93894,96268
93855,96212
93938,96265
93947,96268
93942,96272
93965,96291
93949,96246
93976,96280
93973,96293
93962,96299
93993,96260
93939,96259
93972,96286
94014,96313
94004,96298
93987,96306
93968,96332
94032,96351
94068,96336
94052,96340
94064,96332
94028,96301
94087,96329
94074,96345
94063,96364
94073,96334
94025,96329
94100,96356
94097,96364
94110,96353
94107,96337
94074,96350
94111,96386
94140,96403
94155,96367
94160,96372
94108,96366
94181,96393
94210,96395
94187,96371
94200,96385
94175,96384
94206,96414
94212,96455
94244,96417
94219,96421
94245,96419
