11111,11111
0,0
8793,12040
9503,13085
10327,14174
11402,15532
12134,16576
12968,17871
13981,19279
14983,20672
16150,21961
16854,23355
17830,24673
18610,25777
19157,26582
19330,27109
19705,27450
19768,27494
19604,27414
19507,27341
19701,27497
19540,27356
19533,27417
19698,27601
19881,27811
20031,27851
20248,28436
20612,28948
20990,29395
21381,29890
21694,30539
22484,31410
23084,32291
23614,32936
24142,33742
24722,34764
25543,35633
26415,36637
27217,37906
28177,39373
29289,40720
29983,41681
30690,42557
31466,43636
32158,44520
32717,45017
32815,45461
32801,45512
32961,45552
33028,45624
33205,45969
34027,47019
34937,48463
36142,49854
37484,51717
39160,54163
41369,56842
43779,59819
46357,63372
49159,66680
51848,69877
54231,73041
56513,75908
58812,78390
60667,80478
62137,82084
63747,83667
65136,85326
66256,86708
67718,88344
69534,90435
71708,92469
73912,94348
75528,95817
76881,96694
77870,97080
78479,97160
78943,97050
79259,96706
79461,96260
79475,95773
79372,95188
79241,94682
79071,94096
78705,93432
78261,92527
77761,91261
77031,89590
76056,87572
74963,85314
74156,84355
74191,84654
74320,84975
74571,85325
74871,85530
75144,86260
75475,86787
75802,87162
76093,87397
76313,87513
76658,88123
76943,88635
77223,88846
77464,89037
77638,89085
77985,89628
78324,90085
78547,90169
78825,90276
79028,90418
79432,90919
79803,91183
80124,91339
80475,91544
80827,91727
81470,92189
81970,92697
82379,93007
82985,93319
83606,93611
84425,94216
85167,94716
85878,95101
86613,95402
87304,95817
88108,96346
98245,101544
97639,101231
97696,101299
98918,101828
99060,101891
99261,102031
101281,102940
101290,102881
101322,102917
101479,103054
101615,102996
101538,103005
101488,102925
101374,102823
101422,102862
101496,102982
101449,102913
101441,102883
101331,102839
101355,102875
101505,102970
101512,102939
101503,102925
101460,102881
101495,102962
101641,103002
101709,103029
101740,103032
101678,102975
101760,103045
101928,103130
102033,103175
102048,103183
102017,103091
102093,103156
102239,103271
102293,103282
102302,103213
102236,103200
102328,103255
102488,103349
102460,103336
102464,103312
102378,103260
102445,103326
102538,103372
102524,103360
102504,103324
102379,103237
102440,103280
102506,103362
102503,103348
102446,103313
102352,103229
102412,103316
102487,103340
102446,103338
102427,103314
102319,103204
102405,103296
102447,103374
102483,103319
102391,103313
102331,103244
102400,103274
102502,103375
102467,103359
102473,103342
102422,103254
102506,103365
102561,103389
102599,103435
102571,103362
102486,103307
102579,103382
102658,103454
102707,103457
102641,103428
102522,103363
102590,103379
102643,103422
102578,103393
102509,103300
102295,103229
102300,103211
102199,103250
102079,103118
101959,103072
101674,102891
101610,102890
101533,102877
101449,102826
101256,102744
101037,102555
100978,102596
100954,102600
100791,102495
100653,102391
100494,102337
100483,102350
100462,102370
100363,102276
100244,102247
100161,102140
100198,102220
100202,102263
100113,102198
100092,102177
100000,102087
100056,102165
100094,102195
100103,102186
100022,102160
99952,102060
100014,102136
100125,102196
100124,102240
100107,102166
100092,102158
100178,102211
100260,102295
100353,102338
100362,102301
100309,102268
100398,102328
100520,102403
100588,102430
100602,102412
100513,102366
100639,102427
100789,102547
100778,102514
100786,102491
100747,102422
100869,102583
100939,102628
100990,102594
100954,102592
100985,102581
101083,102668
101174,102678
101240,102711
101170,102705
101122,102626
101229,102716
101341,102768
101317,102740
101246,102719
101173,102675
101298,102749
101351,102787
101334,102728
101241,102713
101171,102627
101231,102705
101273,102720
101225,102700
101135,102608
101069,102575
101121,102662
101117,102654
101104,102643
101020,102566
100886,102526
100980,102562
100999,102634
100954,102534
100904,102538
100798,102477
100866,102524
100962,102566
100930,102536
100869,102466
100800,102431
100891,102521
100923,102570
100911,102517
100912,102528
100810,102462
100908,102585
101003,102607
100992,102561
100988,102562
100936,102495
101068,102613
101127,102684
101126,102681
101094,102616
101102,102615
101191,102723
101334,102745
101342,102790
101339,102737
101312,102709
101451,102820
101551,102845
101569,102884
101543,102799
101502,102777
101653,102878
101740,102959
101710,102953
101647,102855
101647,102854
101755,102988
101830,102973
101836,102940
101783,102920
101728,102892
101845,102981
101945,103063
101905,103035
101876,102940
101892,102973
101996,103080
102097,103128
102134,103086
102045,103050
102089,103068
102189,103157
102305,103165
102305,103191
102256,103155
102225,103132
102371,103233
102440,103275
102368,103251
102317,103148
102291,103163
102382,103225
102439,103270
102376,103211
102373,103169
102292,103157
102429,103229
102410,103236
102415,103230
102292,103168
102244,103069
102318,103199
102256,103174
102154,103095
101993,102933
101838,102944
101806,102915
101756,102881
101556,102783
101326,102672
101205,102615
101191,102619
101054,102585
100887,102465
100708,102394
100550,102287
100576,102353
100467,102280
100339,102228
100211,102148
100093,102080
100164,102175
100105,102142
100025,102077
99925,102049
99895,102011
99967,102095
99990,102138
99935,102075
99954,102025
99907,102030
100059,102169
100103,102158
100121,102189
100082,102066
100091,102130
100245,102232
100321,102286
100297,102244
100293,102235
100341,102196
100519,102341
100516,102392
100581,102380
100511,102301
100551,102308
100715,102476
100706,102435
100774,102433
100698,102381
100721,102410
100871,102534
100939,102533
100960,102553
100876,102474
100928,102527
101127,102627
101153,102665
101196,102619
101141,102639
101164,102642
101306,102712
101396,102785
101379,102738
101313,102706
101336,102699
101449,102792
101475,102832
101445,102788
101389,102734
101396,102760
101475,102779
101519,102841
101477,102804
101424,102697
101439,102757
101514,102811
101585,102838
101495,102820
101419,102729
101423,102729
101541,102812
101499,102796
101460,102735
101391,102676
101376,102720
101480,102759
101459,102734
101426,102715
101344,102630
101410,102680
101507,102780
101497,102775
101525,102751
101446,102685
101511,102740
101652,102848
101704,102862
101698,102862
101672,102813
101739,102865
101852,102947
101910,102972
101908,102944
101843,102884
101840,102911
101999,103017
102017,103022
101995,102977
101943,102878
101951,102993
102054,103004
102137,103063
102069,102979
102009,102925
102070,102990
102177,103084
102210,103139
102147,103029
102154,103028
102192,103081
102282,103139
102287,103155
102273,103133
102239,103037
102280,103122
102378,103182
102347,103154
102396,103196
102282,103071
102356,103137
102492,103236
102470,103239
102495,103215
102387,103167
102445,103197
102595,103286
102573,103267
102552,103224
102462,103146
102471,103189
102570,103280
102576,103242
102517,103203
102429,103152
102482,103184
102591,103271
102579,103243
102526,103217
102460,103143
102523,103238
102645,103330
102630,103278
102615,103269
102575,103198
102691,103271
102778,103368
102786,103332
102800,103311
102740,103256
102811,103325
102889,103390
102876,103353
102838,103296
102683,103230
102713,103267
102711,103285
102579,103231
102403,103104
102195,102973
102105,102967
101991,102924
101826,102815
101621,102730
101358,102565
101245,102558
101198,102560
101005,102462
100800,102343
100642,102251
100558,102244
100433,102246
100355,102172
100212,102098
100005,101947
99995,102010
99967,102033
99881,101991
99802,101912
99680,101879
99706,101924
99776,101933
99761,101952
99744,101909
99622,101780
99723,101897
99827,101958
99800,101985
99784,101910
99752,101889
99873,101975
99990,102037
99968,102075
99963,102008
99972,101989
100076,102084
100171,102156
100189,102128
100238,102154
100182,102060
100348,102189
100411,102279
100478,102271
100464,102240
100459,102228
100578,102318
100691,102385
100705,102430
100687,102337
100710,102322
100793,102428
100906,102486
100943,102509
100913,102418
100911,102417
100985,102494
101059,102558
101081,102554
101048,102517
100991,102448
101098,102579
101148,102617
101163,102579
101159,102563
101065,102478
101177,102590
101207,102642
101200,102602
101147,102576
101091,102470
101150,102575
101207,102635
101192,102579
101137,102559
101046,102449
101140,102557
101170,102606
101133,102554
101022,102501
100985,102420
101021,102511
101080,102560
101045,102510
101038,102468
100903,102391
101009,102498
101065,102577
101000,102468
100975,102427
100909,102430
101043,102511
101083,102561
101100,102518
101047,102509
101010,102436
101146,102534
101192,102581
101198,102562
101173,102522
101149,102509
101265,102639
101290,102621
101306,102619
101317,102592
101271,102541
101438,102666
101476,102741
101521,102714
101531,102680
101489,102658
101662,102753
101753,102887
101780,102822
101825,102807
101832,102811
101986,102923
102113,103008
102118,103003
102168,102954
102153,102936
102349,103066
102426,103161
102443,103147
102417,103060
102433,103082
102552,103172
102657,103246
102672,103249
102636,103145
102642,103169
102768,103286
102839,103372
102837,103282
102824,103247
102770,103210
102928,103364
102979,103418
102941,103329
102932,103302
102869,103241
103002,103379
103056,103410
102986,103373
102956,103314
102912,103258
103042,103390
103096,103432
103033,103399
102981,103315
102935,103327
103060,103388
103079,103445
103018,103398
102919,103262
102839,103258
102888,103298
102840,103298
102661,103196
102466,103103
102317,102971
102252,103025
102146,102954
101908,102828
101746,102707
101601,102627
101572,102692
101532,102640
101281,102553
101163,102448
101009,102367
101049,102402
100945,102429
100859,102325
100700,102257
100654,102215
100673,102280
100664,102290
100566,102225
100509,102122
100463,102146
100513,102230
100603,102269
100506,102222
100497,102120
100478,102140
100631,102272
100676,102310
100658,102290
100659,102220
100681,102225
100808,102340
100925,102401
100912,102411
100873,102291
100938,102400
101033,102504
101122,102495
101129,102488
101091,102444
101102,102464
101230,102551
101283,102629
101305,102607
101213,102472
101254,102537
101340,102602
101417,102667
101398,102650
101360,102560
101411,102589
101533,102696
101591,102763
101575,102717
101521,102618
101530,102638
101686,102771
101673,102797
101645,102774
101615,102673
101622,102709
101721,102816
101730,102777
101706,102765
101584,102693
101611,102667
101709,102787
101663,102761
101631,102722
101527,102595
101511,102663
101538,102687
101566,102723
101478,102658
101398,102553
101384,102592
101423,102630
101488,102687
101382,102620
101279,102478
101252,102496
101342,102614
101315,102572
101268,102544
101135,102403
101166,102474
101237,102575
101221,102562
101156,102486
101115,102444
101090,102473
101178,102566
101197,102521
101202,102496
101055,102419
101126,102458
101216,102551
101239,102560
101215,102512
101130,102411
101198,102477
101286,102625
101335,102584
101298,102546
101272,102525
101317,102566
101451,102659
101469,102694
101481,102646
101443,102599
101541,102691
101703,102775
101772,102838
101756,102793
101777,102749
101859,102784
102019,102938
102050,102924
102107,102915
102094,102915
102179,102961
102355,103048
102453,103117
102425,103064
102421,103041
102461,103095
102608,103188
102655,103206
102623,103171
102586,103069
102639,103184
102814,103284
102789,103267
102814,103269
102732,103157
102825,103270
102923,103329
102977,103331
102922,103329
102857,103186
102933,103295
102998,103378
102987,103317
102986,103312
102859,103248
102966,103330
103043,103405
102986,103377
102956,103298
102907,103277
102946,103273
103018,103354
103018,103355
102966,103301
102909,103267
102973,103290
103043,103387
103017,103353
102947,103311
102846,103224
102862,103228
102885,103312
102750,103229
102635,103165
102366,102954
102284,102958
102188,102985
102021,102857
101834,102771
101590,102615
101544,102611
101484,102664
101274,102502
101161,102432
100930,102297
100900,102343
100819,102338
100742,102257
100591,102238
100444,102063
100453,102147
100407,102160
100395,102124
100340,102086
100214,101997
100238,102049
100315,102100
100308,102101
100255,102047
100197,101994
100254,102106
100349,102109
100359,102117
100300,102091
100271,102024
100353,102092
100462,102203
100486,102140
100457,102135
100438,102111
100492,102174
100631,102225
100621,102250
100556,102192
100512,102134
100667,102209
100718,102303
100686,102260
100697,102278
100638,102184
100745,102321
100807,102333
100790,102317
100789,102302
100730,102267
100855,102353
100921,102427
100944,102403
100929,102362
100864,102311
101025,102446
101067,102491
101089,102470
101021,102400
100970,102365
101076,102476
101141,102495
101088,102491
101054,102422
100987,102349
101077,102429
101058,102466
101104,102467
100998,102405
100946,102354
101009,102408
101006,102461
100986,102420
100944,102374
100832,102318
100919,102356
100929,102378
100900,102381
100847,102326
100758,102234
100856,102337
100903,102378
100915,102373
100837,102306
100798,102258
100897,102353
100961,102360
100947,102404
100878,102312
100852,102299
100969,102383
101007,102438
101037,102447
101000,102384
100977,102339
101075,102408
101161,102535
101144,102484
101080,102422
101076,102357
101226,102491
101301,102577
101311,102587
101297,102489
101270,102494
101389,102559
101516,102678
101500,102656
101513,102603
101441,102581
101567,102653
101674,102762
101700,102754
101652,102664
101652,102699
101810,102794
101873,102835
101910,102824
101891,102772
101939,102748
102025,102901
102109,102897
102121,102917
102104,102865
102065,102843
102222,102949
102312,103036
102277,102998
102226,102982
102215,102916
102387,103053
102399,103077
102363,103008
102375,102998
102335,102952
102425,103058
102520,103141
102517,103099
102449,103030
102441,102987
102562,103140
102630,103140
102616,103152
102595,103091
102553,103087
102651,103186
102743,103212
102693,103159
102674,103109
102629,103107
102741,103234
102756,103204
102747,103164
102668,103102
102636,103083
102767,103223
102808,103240
102736,103211
102675,103094
102645,103108
102791,103234
102804,103232
102770,103210
102646,103098
102658,103110
102694,103196
102663,103143
102584,103105
102364,102943
102264,102880
102231,102952
102055,102843
101904,102775
101722,102594
101520,102551
101466,102581
101386,102527
101206,102409
100963,102307
100854,102249
100828,102293
100767,102228
100579,102194
100452,102037
100346,102027
100388,102095
100366,102044
100269,101993
100141,101931
100110,101913
100227,102019
100219,102020
100231,101983
100114,101879
100169,101967
100274,102054
100278,102052
100288,102035
100244,101987
100281,102006
100447,102169
100466,102150
100473,102144
100396,102045
100455,102081
100593,102258
100636,102176
100628,102191
100521,102107
100576,102155
100672,102260
100732,102265
100702,102268
100660,102146
100699,102189
100805,102322
100809,102303
100814,102307
100806,102227
100798,102292
101016,102407
101008,102406
101014,102362
101015,102340
101080,102415
101201,102537
101232,102510
101307,102483
101241,102458
101324,102481
101451,102655
101457,102581
101443,102569
101376,102514
101415,102506
101567,102657
101490,102632
101493,102591
101385,102485
101422,102554
101481,102595
101437,102573
101397,102534
101262,102390
101276,102445
101364,102533
101267,102475
101262,102464
101109,102380
101176,102418
101214,102486
101241,102480
101173,102466
101098,102321
101153,102447
101260,102501
101206,102449
101252,102490
101141,102338
101268,102448
101314,102529
101355,102514
101342,102486
101276,102435
101291,102486
101422,102610
101426,102564
101403,102547
101387,102456
101417,102569
101549,102637
101585,102653
101560,102626
101495,102545
101562,102583
101732,102721
101719,102721
101708,102663
101691,102640
101782,102681
101881,102802
101923,102795
101992,102815
101875,102730
101978,102778
102122,102882
102117,102899
102137,102855
102041,102825
102186,102856
102298,102992
102317,102968
102287,102959
102265,102880
102332,102968
102417,102998
102454,103033
102425,102999
102313,102900
102390,103002
102558,103089
102534,103071
102503,103032
102480,103010
102552,103084
102668,103133
102723,103177
102696,103141
102656,103014
102698,103121
102831,103215
102828,103206
102792,103160
102722,103064
102800,103170
102852,103234
102825,103195
102795,103154
102721,103056
102798,103178
102838,103213
102841,103183
102786,103164
102687,103025
102772,103145
102844,103208
102821,103161
102757,103125
102683,103030
102752,103136
102787,103155
102791,103153
102729,103102
102638,103031
102724,103127
102775,103168
102791,103147
102706,103106
102641,102994
102717,103103
102747,103155
102711,103118
102633,103045
102475,102928
102491,103000
102472,103007
102310,102886
102144,102772
101932,102687
101796,102700
101741,102644
101549,102539
101324,102445
101113,102310
100990,102321
100904,102257
100720,102176
100560,102070
100297,101942
100240,101979
100259,101958
100057,101929
99927,101800
99803,101717
99766,101774
99839,101812
99726,101756
99693,101707
99528,101581
99612,101688
99661,101734
99655,101711
99612,101693
99534,101582
99644,101711
99725,101761
99718,101715
99752,101734
99646,101639
99815,101754
99870,101851
99873,101806
99890,101802
99860,101721
99987,101870
100037,101918
100089,101913
100071,101886
100003,101822
100172,101920
100258,102024
100255,101985
100209,101941
100203,101884
100319,102014
100383,102045
100402,102056
100337,101997
100314,101964
100428,102048
100486,102139
100477,102092
100469,102018
100410,102016
100526,102071
100607,102142
100558,102112
100494,102063
100420,101985
100540,102109
100563,102123
100505,102091
100434,102011
100378,102005
100432,102063
100446,102091
100405,102035
100293,101951
100224,101917
100260,102006
100351,102009
100240,101983
100153,101868
100057,101869
100172,101939
100198,101934
100136,101901
100063,101886
100016,101819
100071,101898
100113,101931
100052,101890
99975,101786
99928,101788
100038,101877
100031,101912
100025,101903
99923,101766
99963,101786
100019,101879
100064,101892
100055,101880
99977,101792
99959,101775
100108,101907
100151,101921
100142,101915
100104,101871
100114,101860
100239,101984
100289,102024
100325,101995
100308,101927
100281,101927
100416,102046
100523,102108
100517,102083
100488,102018
100488,102007
100633,102108
100718,102192
100739,102159
100663,102093
100706,102100
100853,102226
100932,102233
100861,102229
100856,102154
100866,102143
100962,102241
101015,102279
101005,102263
100943,102190
100962,102183
101064,102294
101113,102344
101078,102316
101040,102201
101004,102223
101154,102313
101152,102339
101137,102312
101096,102234
101088,102222
101219,102316
101223,102354
101217,102324
101124,102279
101137,102217
101243,102363
101252,102365
101219,102350
101141,102255
101137,102249
101214,102344
101257,102385
101173,102358
101128,102233
101144,102262
101211,102378
101248,102376
101199,102348
101153,102234
101145,102274
101269,102407
101283,102325
101273,102375
101198,102290
101232,102301
101350,102417
101363,102389
101347,102353
101298,102320
101322,102356
101397,102419
101507,102488
101457,102440
101365,102351
101367,102341
101530,102495
101461,102437
101466,102426
101366,102345
101303,102343
101360,102390
101280,102394
101151,102284
100976,102147
100864,102121
100846,102179
100706,102068
100533,101992
100307,101813
100166,101798
100116,101837
100014,101757
99826,101654
99622,101525
99503,101477
99505,101568
99369,101484
99246,101422
99054,101268
99027,101258
99066,101325
99000,101343
98943,101289
98873,101196
98894,101221
98973,101285
98976,101323
98969,101283
98902,101225
98959,101234
99094,101358
99106,101376
99135,101358
99089,101292
99127,101337
99276,101429
99294,101454
99285,101455
99223,101364
99309,101416
99493,101544
99467,101507
99467,101512
99375,101430
99486,101499
99566,101586
99598,101595
99592,101580
99521,101462
99597,101557
99716,101632
99668,101634
99700,101589
99624,101547
99701,101583
99823,101724
99842,101686
99823,101636
99801,101631
99866,101679
99965,101779
99974,101776
99984,101754
99880,101639
99961,101707
100004,101816
100039,101787
99999,101765
99884,101635
99889,101677
99919,101759
99956,101727
99887,101673
99736,101573
99765,101608
99846,101682
99809,101665
99793,101629
99659,101530
99703,101589
99787,101656
99767,101649
99668,101590
99605,101494
99631,101535
99757,101656
99682,101588
99653,101553
99581,101491
99610,101528
99697,101598
99723,101582
99663,101586
99563,101486
99626,101525
99769,101658
99756,101610
99744,101595
99665,101507
99723,101609
99801,101637
99847,101656
99795,101605
99747,101519
99814,101649
99885,101661
99943,101725
99875,101648
99773,101558
99865,101661
99991,101718
99982,101734
99930,101673
99853,101592
99925,101691
100041,101758
100078,101754
100032,101704
99963,101669
100050,101709
100167,101831
100171,101834
100127,101769
100106,101693
100200,101829
100328,101869
100346,101885
100352,101854
100337,101812
100439,101922
100558,101967
100580,101996
100605,101956
100574,101888
100747,102026
100800,102123
100875,102098
100882,102082
100874,102063
100983,102130
101076,102167
101050,102162
101053,102110
100947,102067
101041,102131
101096,102196
101015,102148
100936,102065
100873,102024
100926,102060
100966,102132
100926,102085
100796,102014
100741,101935
100781,102042
100859,102058
100806,102076
100762,101985
100655,101881
100766,101991
100778,102072
100757,102017
100697,101972
100653,101904
100710,101990
100803,102038
100745,101998
100710,101964
100632,101893
100700,101988
100784,102009
100705,102005
100626,101914
100608,101872
100690,101978
100711,101974
100657,101970
100668,101955
100571,101889
100704,101956
100783,102019
100746,101975
100717,101955
100644,101909
100764,101970
100850,102086
100838,102045
100795,102001
100767,101957
100843,102062
100887,102069
100823,102025
100754,101955
100621,101868
100600,101896
100582,101941
100405,101789
100216,101688
100037,101607
99938,101581
99857,101556
99642,101468
99395,101309
99196,101176
99117,101207
99040,101190
98819,101080
98612,100949
98455,100852
98424,100881
98343,100893
98201,100808
98073,100674
97932,100643
97966,100672
97993,100702
97916,100643
97835,100595
97787,100543
97875,100636
97899,100706
97863,100637
97822,100598
97778,100497
97887,100629
97933,100709
97920,100657
97902,100614
97885,100584
97968,100694
98065,100765
98033,100693
98021,100635
97979,100653
98138,100746
98211,100812
98196,100747
98204,100729
98182,100705
98304,100832
98404,100861
98420,100819
98347,100808
98381,100785
98500,100926
98558,100959
98551,100924
98528,100854
98558,100862
98680,100995
98779,101005
98768,100985
98733,100968
98742,100958
98848,101104
98947,101091
98949,101085
98859,101022
98917,101041
99025,101154
99073,101158
99073,101115
99002,101119
99024,101068
99112,101198
99172,101245
99182,101178
99057,101094
99056,101127
99141,101180
99173,101245
99156,101185
99045,101096
99032,101068
99137,101191
99112,101201
99020,101119
98960,101018
98944,101048
98993,101121
99031,101119
98961,101057
98881,100974
98803,100964
98937,101065
98914,101090
98877,101034
98773,100929
98744,100906
98853,101043
98825,101029
98809,101015
98739,100942
98729,100925
98819,101043
98815,101033
98817,101042
98694,100949
98744,100943
98847,101036
98905,101080
98870,101048
98764,100990
98807,100963
98958,101104
98960,101094
98920,101077
98874,100982
98923,101030
99027,101155
99009,101095
98984,101094
98938,101009
98935,101020
99104,101149
99101,101164
99101,101115
99038,101047
99068,101095
99220,101229
99217,101208
99237,101194
99175,101123
99214,101153
99373,101285
99398,101280
99385,101277
99387,101203
99429,101237
99550,101353
99586,101363
99570,101314
99524,101266
99575,101314
99695,101405
99751,101412
99675,101369
99626,101322
99684,101340
99749,101422
99801,101431
99764,101400
99663,101315
99733,101378
99808,101446
99827,101447
99813,101441
99711,101349
99777,101396
99847,101428
99842,101482
99782,101405
99741,101361
99749,101367
99872,101486
99833,101410
99800,101421
99679,101337
99684,101365
99767,101452
99770,101413
99717,101398
99620,101299
99622,101332
99717,101374
99680,101372
99664,101372
99563,101258
99594,101300
99642,101369
99670,101403
99634,101331
99524,101239
99520,101270
99654,101379
99620,101391
99548,101297
99449,101216
99482,101289
99597,101342
99564,101345
99530,101268
99459,101235
99453,101253
99524,101287
99486,101307
99367,101189
99245,101100
99201,101138
99174,101144
99000,101036
98817,100961
98624,100782
98508,100812
98406,100808
98226,100686
98057,100563
97812,100458
97723,100427
97653,100432
97544,100378
97353,100277
97188,100136
97148,100161
97119,100210
97088,100132
97028,100108
96851,99956
96897,100024
96973,100106
96910,100081
96887,100020
96821,99966
96922,100068
97032,100172
97020,100130
97044,100133
96951,99996
97092,100111
97198,100226
97244,100214
97238,100220
97214,100101
97356,100275
97471,100307
97489,100323
97520,100319
97454,100241
97609,100363
97718,100474
97761,100431
97761,100415
97736,100376
97823,100465
98001,100551
98003,100591
97995,100515
97980,100440
98107,100564
98194,100670
98262,100641
98277,100635
98235,100589
98366,100712
98449,100785
98554,100810
98525,100791
98520,100706
98638,100830
98757,100900
98776,100893
98729,100887
98674,100768
98777,100889
98834,100943
98828,100924
98742,100848
98646,100771
98761,100838
98782,100935
98717,100842
98620,100804
98554,100742
98560,100774
98621,100819
98577,100819
98488,100717
98414,100688
98461,100732
98522,100786
98408,100729
98367,100723
98303,100610
98396,100713
98454,100748
98464,100773
98434,100697
98393,100674
98473,100764
98552,100841
98553,100797
98515,100770
98524,100714
98618,100839
98721,100881
98772,100896
98704,100842
98677,100804
98776,100885
98922,100966
98908,100946
98903,100929
98871,100889
99012,100979
99076,101006
99129,101055
99061,100988
99043,100962
99160,101049
99235,101144
99199,101084
99205,101021
99177,101013
99272,101125
99332,101187
99318,101111
99329,101117
99249,101060
99361,101150
99467,101227
99430,101224
99383,101111
99336,101113
99440,101203
99533,101258
99496,101213
99452,101150
99421,101132
99562,101261
99593,101251
99571,101243
99540,101213
99505,101140
99636,101300
99728,101347
99691,101345
99643,101233
99611,101233
99720,101324
99792,101360
99799,101351
99730,101313
99736,101279
99841,101373
99884,101429
99891,101376
99902,101352
99846,101323
99957,101424
100065,101491
100006,101478
100032,101429
99977,101386
100151,101527
100203,101562
100212,101519
100136,101486
100144,101438
100262,101583
100312,101587
100320,101628
100229,101511
100226,101507
100315,101572
100398,101657
100338,101597
100266,101515
100230,101532
100356,101627
100392,101641
100351,101594
100307,101563
100273,101499
100378,101634
100373,101646
100320,101593
100220,101474
100151,101474
100174,101534
100185,101535
100007,101450
99858,101308
99676,101264
99626,101271
99517,101245
99319,101123
99121,100952
98940,100892
98871,100934
98740,100853
98515,100734
98336,100627
98171,100552
98080,100570
97976,100496
97834,100461
97636,100267
97507,100247
97518,100261
97439,100264
97380,100215
97181,100130
97114,100078
97225,100156
97226,100181
97143,100121
97115,100054
97072,100065
97212,100170
97235,100159
97216,100144
97154,100109
97203,100088
97393,100230
97412,100228
97439,100230
97406,100202
97406,100194
97605,100321
97626,100380
97673,100324
97614,100260
97632,100292
97821,100406
97836,100467
97825,100388
97826,100356
97848,100363
97938,100486
97998,100516
98027,100501
97982,100399
97978,100462
98133,100556
98189,100600
98147,100554
98120,100511
98108,100528
98256,100643
98303,100660
98292,100653
98213,100532
98306,100605
98354,100688
98361,100675
98364,100660
98284,100589
98258,100582
98369,100671
98382,100695
98315,100645
98264,100541
98212,100576
98322,100647
98312,100663
98247,100603
98157,100529
98173,100530
98226,100638
98240,100618
98158,100576
98042,100437
98050,100483
98150,100594
98129,100547
98068,100523
97931,100399
98005,100473
98044,100519
98096,100519
97992,100501
97969,100415
97968,100484
98034,100506
98055,100558
98068,100512
97981,100467
98001,100487
98138,100596
98181,100577
98158,100558
98049,100456
98135,100529
98235,100625
98244,100641
98248,100586
98155,100533
98243,100616
98341,100650
98370,100713
98344,100636
98305,100569
98409,100666
98481,100752
98509,100710
98510,100744
98408,100626
98560,100706
98652,100782
98682,100808
98673,100765
98653,100746
98722,100799
98835,100927
98920,100900
98850,100894
98821,100785
98964,100927
99022,101015
99084,100967
99063,100974
99016,100903
99127,101028
99251,101048
99260,101103
99240,101075
99192,100943
99315,101051
99399,101168
99377,101147
99387,101086
99314,101037
99368,101089
99485,101180
99443,101159
99421,101122
99291,101039
99340,101115
99427,101130
99447,101132
99369,101089
99249,101019
99336,101078
99364,101136
99357,101138
99321,101083
99188,100978
99295,101054
99347,101115
99341,101115
99264,101057
99189,100975
99269,101056
99297,101090
99305,101103
99258,101072
99167,100995
99264,101046
99314,101149
99303,101114
99252,101039
99163,100971
99235,101075
99345,101133
99302,101109
99278,101061
99180,100973
99286,101094
99361,101144
99366,101113
99318,101112
99220,100996
99323,101089
99383,101162
99316,101104
99278,101067
99134,100972
99149,100997
99192,101065
99045,100981
98897,100876
98657,100733
98626,100727
98565,100769
98431,100663
98198,100551
97997,100410
97955,100432
97861,100420
97735,100352
97522,100256
97361,100121
97346,100167
97334,100179
97206,100086
97080,99998
96958,99959
97037,100010
97073,100069
96992,100003
96951,99926
96912,99908
96994,100000
97071,100038
97096,100015
97057,100012
97040,99922
97180,100091
97255,100160
97278,100125
97314,100116
97273,100060
97420,100170
97497,100264
97523,100205
97515,100207
97504,100157
97621,100254
97684,100323
97707,100292
97726,100293
97671,100237
97814,100319
97901,100422
97848,100386
97851,100319
97801,100328
97908,100392
97988,100449
98037,100431
97983,100410
97917,100320
98023,100447
98082,100510
98126,100482
98067,100473
98036,100386
98161,100504
98249,100573
98222,100519
98114,100446
98152,100484
98237,100550
98298,100626
98218,100544
98214,100455
98111,100474
98219,100534
98309,100577
98234,100531
98159,100473
98067,100389
98147,100507
98159,100505
98126,100460
98032,100432
97963,100350
98031,100456
98047,100475
97984,100392
97962,100331
97825,100310
97944,100401
97961,100428
97893,100398
97787,100311
97747,100248
97841,100334
97842,100396
97815,100326
97702,100259
97673,100230
97731,100322
97739,100293
97732,100290
97626,100209
97599,100197
97657,100256
97673,100300
97656,100256
97561,100228
97525,100150
97663,100275
97717,100315
97642,100292
97602,100163
97556,100194
97684,100314
97700,100321
97752,100305
97689,100222
97658,100252
97768,100326
97880,100385
97848,100347
97802,100299
97787,100272
97934,100360
97993,100456
97955,100422
97924,100360
97913,100341
98057,100439
98106,100535
98102,100474
98051,100395
98065,100446
98160,100562
98264,100591
98209,100521
98147,100438
98157,100444
98259,100550
98286,100583
98279,100522
98225,100478
98178,100487
98295,100602
98385,100598
98325,100577
98251,100499
98269,100480
98382,100635
98419,100600
98377,100577
98260,100514
98287,100487
98414,100643
98440,100616
98425,100634
98321,100540
98341,100574
98482,100625
98559,100718
98541,100664
98501,100588
98543,100623
98646,100721
98730,100746
98692,100743
98699,100681
98729,100722
98845,100854
98923,100826
98913,100823
98830,100793
98883,100781
99001,100897
99038,100930
98994,100877
98960,100817
98956,100846
99038,100898
99075,100947
99038,100890
98957,100780
98961,100844
99007,100895
99029,100923
98955,100859
98772,100726
98732,100706
98716,100767
98651,100731
98513,100662
98261,100487
98154,100480
98116,100470
97961,100393
97749,100277
97557,100179
97408,100113
97354,100133
97191,100048
97033,99959
96857,99851
96778,99770
96798,99859
96724,99837
96631,99743
96491,99674
96445,99650
96579,99766
96518,99709
96470,99687
96377,99619
96428,99653
96525,99715
96577,99737
96559,99703
96505,99646
96590,99686
96678,99806
96715,99775
96738,99775
96647,99694
96699,99744
96811,99859
96855,99854
96918,99843
96776,99782
96855,99833
96997,99916
97043,99991
96970,99907
96953,99828
97001,99935
97127,100014
97172,99973
97110,99997
97110,99870
97180,100003
97254,100056
97306,100064
97291,100059
97244,99969
97293,100057
97428,100151
97452,100148
97471,100131
97402,100024
97460,100143
97597,100249
97616,100206
97620,100195
97541,100115
97606,100197
97753,100307
97716,100224
97710,100229
97629,100176
97721,100253
97810,100329
97760,100272
97745,100233
97641,100197
97718,100213
97803,100341
97713,100263
97702,100223
97585,100131
97587,100170
97662,100221
97634,100219
97567,100185
97478,100082
97470,100146
97552,100197
97520,100169
97430,100119
97278,100015
97352,100065
97460,100180
97406,100099
97382,100083
97291,99996
97346,100084
97412,100137
97411,100119
97368,100114
97283,99987
97369,100123
97445,100140
97468,100148
97448,100093
97307,100074
97440,100106
97565,100225
97518,100151
97544,100145
97468,100088
97563,100191
97634,100220
97643,100251
97651,100195
97544,100150
97655,100221
97789,100319
97775,100290
97758,100273
97699,100213
97835,100325
97924,100386
97969,100387
97921,100350
97884,100324
98022,100421
98109,100462
98115,100466
98114,100439
98036,100369
98164,100464
98306,100561
98272,100557
98229,100488
98242,100477
98327,100572
98415,100602
98415,100604
98388,100582
98367,100489
98441,100618
98551,100674
98555,100651
98537,100635
98501,100585
98570,100735
98664,100728
98684,100739
98686,100731
98635,100679
98770,100775
98836,100861
98854,100804
98844,100796
98786,100764
98924,100867
99032,100911
99087,100920
99088,100890
98996,100813
99163,100965
99273,101024
99234,101026
99203,100937
99183,100938
99313,100997
99382,101091
99367,101103
99270,100975
99220,100942
99290,100989
99321,101036
99238,100998
99053,100906
98934,100783
98903,100814
98832,100829
98657,100698
98472,100594
98239,100458
98155,100521
98039,100404
97900,100365
97646,100192
97429,100115
97408,100148
97314,100125
97150,100006
97016,99906
96866,99842
96875,99897
96880,99917
96775,99830
96710,99762
96627,99723
96708,99808
96752,99845
96681,99807
96663,99771
96640,99725
96753,99847
96861,99874
96854,99878
96847,99821
96854,99793
97001,99933
97087,100005
97128,99988
97121,99955
97097,99920
97295,100053
97378,100133
97418,100119
97363,100055
97338,100058
97472,100148
97583,100252
97571,100174
97585,100151
97551,100155
97698,100267
97777,100259
97807,100282
97724,100234
97754,100224
97883,100339
97971,100387
98024,100375
97944,100332
97991,100343
98130,100458
98204,100524
98220,100472
98241,100434
98216,100471
98323,100530
98423,100607
98379,100516
98343,100507
98294,100456
98472,100552
98478,100645
98459,100578
98360,100520
98362,100490
98480,100614
98493,100595
98446,100580
98351,100524
98282,100478
98393,100555
98410,100561
98337,100556
98261,100470
98169,100406
98278,100494
98257,100520
98197,100487
98066,100355
98037,100340
98108,100449
98097,100427
98068,100362
97903,100274
97889,100250
97958,100387
97969,100344
97912,100322
97782,100247
97788,100245
97866,100350
97881,100313
97829,100322
97779,100240
97725,100220
97860,100341
97872,100332
97904,100356
97786,100233
97826,100262
97919,100417
97988,100393
97949,100336
97876,100298
97907,100310
98054,100432
98067,100432
98086,100413
98035,100346
98055,100378
98177,100473
98244,100524
98217,100492
98162,100414
98208,100435
98385,100595
98416,100549
98351,100522
98371,100511
98368,100528
98528,100619
98582,100674
98551,100660
98497,100554
98573,100643
98706,100712
98707,100718
98706,100687
98625,100650
98641,100635
98786,100739
98768,100744
98792,100714
98666,100690
98713,100657
98855,100795
98874,100785
98852,100802
98754,100650
98802,100756
98911,100841
98965,100850
98942,100834
98884,100749
98929,100797
99037,100899
99023,100893
98994,100847
98940,100786
98950,100800
99060,100917
99043,100860
99037,100871
98958,100793
98982,100839
99043,100929
99062,100909
98977,100874
98858,100726
98823,100796
98893,100834
98774,100765
98623,100675
98442,100550
98331,100525
98328,100589
98116,100466
97983,100391
97707,100164
97677,100186
97569,100229
97454,100129
97289,100045
97087,99903
97013,99907
96990,99930
96936,99920
96812,99807
96626,99676
96606,99707
96690,99807
96656,99760
96608,99720
96505,99638
96543,99674
96594,99748
96634,99763
96591,99739
96542,99619
96576,99702
96740,99819
96737,99797
96763,99776
96701,99754
96831,99793
96977,99918
96992,99918
97033,99928
96944,99835
97085,99929
97215,100031
97258,100051
97276,100016
97199,99931
97314,100018
97430,100148
97466,100115
97447,100089
97402,100040
97483,100108
97652,100207
97630,100212
97608,100166
97528,100131
97657,100218
97756,100269
97802,100278
97763,100279
97690,100165
97778,100215
97849,100334
97834,100290
97836,100279
97736,100204
97804,100272
97885,100332
97872,100327
97793,100282
97760,100220
97768,100270
97869,100312
97846,100271
97779,100257
97674,100145
97747,100263
97764,100270
97757,100247
97703,100206
97534,100132
97636,100150
97639,100247
97592,100178
97552,100127
97360,100000
97437,100091
97492,100173
97456,100121
97358,100024
97259,99987
97339,100050
97388,100128
97362,100073
97275,100010
97203,99955
97285,100031
97380,100065
97364,100084
97354,100031
97228,99977
97332,100038
97440,100148
97425,100091
97389,100059
97336,100052
97426,100098
97558,100177
97515,100171
97524,100136
97500,100078
97606,100176
97705,100241
97668,100218
97715,100203
97646,100147
97769,100255
97889,100314
97874,100323
97890,100274
97855,100262
97964,100355
98050,100375
98062,100411
98054,100362
98013,100293
98134,100430
98275,100516
98245,100481
98196,100416
98151,100403
98223,100502
98368,100532
98336,100528
98308,100510
98242,100405
98342,100542
98385,100550
98400,100549
98335,100520
98264,100443
98353,100530
98434,100608
98373,100549
98316,100491
98308,100467
98367,100569
98466,100575
98471,100593
98370,100562
98304,100469
98421,100561
98473,100600
98488,100581
98369,100561
98341,100462
98438,100592
98491,100628
98413,100586
98384,100512
98327,100529
98423,100578
98464,100642
98467,100600
98404,100535
98351,100516
98428,100605
98498,100625
98475,100588
98430,100524
98392,100532
98470,100644
98523,100621
98445,100610
98360,100525
98316,100502
98331,100554
98364,100610
98225,100509
98071,100363
97903,100318
97906,100319
97823,100328
97645,100224
97452,100031
97226,99993
97198,99975
97107,99993
96911,99840
96723,99726
96538,99637
96564,99706
96469,99692
96348,99621
96215,99480
96138,99428
96176,99538
96180,99521
96118,99481
96049,99406
96019,99375
96174,99499
96221,99560
96212,99492
96138,99467
96194,99480
96319,99586
96413,99646
96371,99619
96425,99564
96404,99547
96572,99699
96644,99730
96693,99742
96626,99663
96644,99655
96761,99779
96855,99802
96828,99828
96805,99755
96771,99756
96923,99845
96944,99885
96944,99865
96903,99813
96905,99819
97039,99885
97047,99928
97084,99919
97000,99834
97002,99843
97130,99931
97195,99987
97182,99960
97134,99920
97168,99921
97291,100014
97309,100046
97310,100057
97261,99979
97286,99967
97379,100092
97431,100080
97374,100061
97308,99960
97332,99992
97418,100062
97403,100108
97342,100049
97231,99956
97203,99933
97308,100022
97256,100061
97211,99983
97099,99879
97063,99900
97097,99963
97146,99959
97036,99910
96958,99825
96909,99809
97005,99893
96978,99873
96942,99867
96827,99757
96872,99818
96963,99897
96957,99906
96908,99867
96860,99806
96913,99848
97038,99940
97031,99924
97041,99917
96982,99829
96998,99862
97146,99958
97164,99987
97184,99970
97074,99893
97138,99907
97252,100027
97264,100058
97237,100006
97225,99962
97215,99954
97367,100105
97357,100040
97362,100027
97317,100003
97336,100066
97495,100138
97453,100164
97438,100113
97454,100040
97461,100107
97567,100151
97599,100190
97576,100166
97497,100049
97556,100104
97717,100282
97680,100205
97704,100248
97617,100182
97647,100202
97806,100301
97814,100305
97825,100302
97775,100214
97858,100253
97974,100383
97949,100373
97953,100335
97862,100253
97922,100304
98041,100404
98063,100429
98047,100392
97940,100319
97988,100359
98127,100446
98129,100454
98106,100430
98017,100332
98078,100401
98187,100496
98221,100464
98169,100461
98082,100371
98103,100388
98192,100489
98178,100489
98183,100436
98056,100375
98081,100423
98197,100526
98161,100460
98096,100446
97987,100343
98077,100428
98145,100456
98111,100471
98073,100417
97980,100311
98087,100405
98084,100491
98122,100444
98083,100409
98001,100295
98112,100433
98119,100512
98176,100498
98125,100481
98058,100369
98133,100428
98240,100555
98257,100511
98216,100497
98120,100431
98157,100463
98258,100525
98196,100448
98105,100407
97902,100278
97932,100320
97855,100340
97775,100275
97582,100164
97366,99999
97274,100032
97228,100043
97093,99928
96914,99860
96694,99736
96638,99729
96675,99744
96512,99693
96398,99621
96272,99504
96268,99552
96356,99584
96245,99556
96216,99525
96100,99408
96223,99480
96286,99620
96277,99551
96291,99557
96191,99481
96349,99581
96423,99625
96422,99656
96457,99641
96425,99511
96540,99642
96644,99734
96684,99783
96709,99715
96669,99654
96822,99784
96968,99893
96989,99879
96953,99851
96949,99840
97046,99891
97222,100017
97215,99994
97194,99934
97150,99929
97305,99989
97368,100073
97389,100044
97350,100011
97277,99969
97394,100069
97518,100132
97477,100097
97451,100101
97396,99993
97520,100118
97544,100196
97567,100193
97506,100112
97425,100071
97532,100130
97618,100166
97572,100161
97534,100115
97429,100020
97545,100119
97561,100175
97516,100121
97477,100077
97341,100016
97437,100091
97467,100145
97401,100072
97363,100028
97276,99952
97320,100039
97378,100074
97294,100064
97241,99960
97132,99885
97225,99982
97250,100064
97192,99983
97144,99911
97069,99882
97151,99971
97194,100035
97143,99957
97090,99896
97018,99885
97144,99956
97183,100016
97138,99976
97063,99913
97052,99868
97146,99971
97205,99998
97163,99970
97155,99966
97107,99888
97236,100016
97279,100031
97317,100049
97292,100011
97221,99920
97378,100084
97480,100159
97436,100146
97431,100036
97353,100050
97515,100112
97620,100191
97625,100179
97574,100179
97561,100067
97699,100216
97732,100300
97723,100237
97756,100177
97694,100189
97806,100284
97892,100333
97889,100303
97828,100276
97788,100223
97961,100333
98036,100402
98019,100371
97958,100301
97966,100292
98065,100434
98114,100436
98104,100421
98065,100372
98068,100349
98143,100472
98203,100455
98188,100457
98131,100393
98084,100348
98225,100456
98269,100528
98193,100467
98156,100381
98092,100394
98222,100474
98271,100489
98231,100479
98167,100432
98106,100358
98255,100491
98264,100535
98224,100512
98133,100429
98122,100375
98216,100498
98299,100516
98260,100502
98187,100446
98115,100393
98282,100491
98322,100574
98324,100530
98257,100452
98258,100455
98326,100543
98435,100631
98384,100575
98319,100520
98311,100462
98377,100580
98402,100617
98354,100525
98164,100409
98103,100400
98122,100450
98053,100409
97873,100318
97669,100129
97544,100119
97469,100122
97343,100080
97150,99962
96899,99809
96765,99715
96763,99790
96634,99722
96519,99632
96363,99508
96263,99515
96246,99559
96259,99550
96196,99525
96028,99401
96004,99426
96115,99493
96196,99551
96139,99451
96099,99408
96076,99426
96247,99530
96281,99573
96257,99511
96276,99467
96260,99488
96423,99577
96471,99658
96455,99629
96427,99564
96488,99583
96614,99721
96709,99747
96709,99714
96620,99674
96704,99704
96887,99833
96904,99815
96915,99811
96849,99763
96878,99785
97044,99863
97022,99930
97027,99882
96997,99808
97002,99837
97140,99958
97153,99976
97140,99922
97077,99873
97117,99905
97249,99998
97226,99988
97170,99954
97122,99846
97148,99938
97228,100010
97239,99996
97129,99954
97099,99839
97105,99927
97185,99969
97134,99942
97103,99906
96968,99846
97025,99816
97084,99942
97079,99898
96996,99879
96906,99774
96877,99794
96995,99860
96978,99869
96903,99826
96845,99723
96848,99743
96898,99830
96914,99820
96867,99776
96762,99679
96796,99724
96876,99806
96867,99830
96857,99758
96745,99703
96776,99721
96880,99812
96877,99817
96867,99744
96737,99737
96818,99736
96933,99832
96903,99842
96870,99798
96814,99716
96807,99777
96981,99876
96902,99833
96913,99822
96860,99756
96928,99827
97017,99902
97055,99917
97067,99894
96986,99804
97085,99880
97206,99989
97263,99981
97258,99983
97208,99914
97340,100016
97487,100111
97511,100095
97544,100111
97467,100038
97616,100123
97712,100186
97777,100249
97741,100212
97742,100168
97823,100218
97912,100296
97992,100329
97993,100311
97897,100239
97997,100320
98132,100397
98133,100448
98053,100368
98000,100259
98058,100349
98140,100420
98097,100410
98093,100357
97959,100302
98023,100348
98146,100446
98132,100401
98077,100380
97973,100270
98096,100374
98132,100441
98129,100411
98118,100377
98016,100300
98089,100362
98194,100444
98208,100446
98150,100401
98085,100324
98193,100416
98259,100484
98247,100458
98235,100439
98132,100338
98210,100439
98325,100488
98292,100493
98244,100439
98199,100371
98236,100471
98360,100510
98306,100509
98318,100462
98198,100383
98303,100480
98412,100542
98361,100512
98348,100468
98231,100411
98343,100489
98428,100589
98388,100535
98375,100501
98283,100414
98345,100513
98385,100543
98348,100520
98240,100442
98051,100320
98073,100400
98027,100375
97870,100291
97715,100153
97453,100028
97389,100043
97312,100035
97098,99877
96916,99805
96633,99606
96605,99673
96517,99666
96327,99507
96148,99421
95975,99350
95968,99371
95936,99347
95866,99303
95724,99244
95614,99115
95665,99180
95711,99262
95642,99238
95564,99149
95568,99106
95622,99215
95706,99276
95707,99219
95725,99194
95650,99169
95766,99264
95889,99355
95899,99310
95911,99277
95854,99223
96013,99346
96122,99433
96092,99407
96086,99365
96068,99356
96177,99423
96259,99470
96263,99497
96194,99407
96194,99421
96271,99488
96346,99571
96336,99461
96287,99487
96282,99430
96370,99540
96418,99604
96384,99521
96368,99462
96323,99482
96449,99568
96523,99618
96489,99629
96439,99535
96432,99520
96564,99612
96586,99676
96564,99612
96541,99552
96476,99543
96568,99635
96654,99699
96576,99655
96520,99544
96493,99572
96560,99646
96584,99624
96536,99613
96468,99541
96365,99503
96471,99586
96507,99593
96381,99572
96305,99492
96270,99461
96313,99528
96355,99549
96318,99519
96235,99434
96170,99415
96264,99500
96292,99522
96247,99462
96188,99422
96178,99398
96237,99515
96307,99526
96285,99478
96218,99437
96174,99426
96334,99549
96363,99564
96325,99544
96303,99448
96263,99436
96389,99556
96444,99583
96435,99570
96387,99505
96372,99514
96515,99607
96553,99652
96555,99637
96493,99539
96494,99557
96629,99669
96700,99705
96657,99682
96595,99613
96620,99600
96714,99711
96796,99764
96805,99714
96692,99651
96692,99651
96803,99755
96858,99790
96818,99746
96741,99704
96737,99695
96873,99803
96902,99824
96907,99807
96856,99742
96797,99725
96949,99841
97013,99865
96967,99808
96907,99766
96944,99781
97035,99886
97089,99886
97094,99862
97000,99798
97030,99846
97155,99945
97208,99977
97190,99949
97133,99876
97199,99917
97319,100029
97396,100050
97389,100012
97304,99963
97368,100007
97476,100098
97555,100128
97514,100094
97423,99997
97452,100043
97584,100112
97581,100151
97572,100132
97497,100063
97482,100066
97601,100149
97646,100186
97611,100160
97540,100073
97530,100100
97659,100223
97709,100210
97687,100181
97608,100082
97592,100122
97744,100233
97764,100269
97789,100233
97686,100156
97757,100181
97875,100300
97897,100310
97899,100277
97843,100217
97900,100276
98008,100392
98047,100389
98065,100378
97984,100265
98063,100351
98188,100445
98213,100446
98201,100430
98122,100338
98174,100389
98263,100470
98281,100506
98216,100454
98134,100394
98161,100385
98176,100460
98166,100436
98040,100342
97853,100242
97748,100191
97763,100226
97564,100148
97424,100044
97159,99866
97002,99830
96970,99869
96791,99763
96549,99627
96360,99511
96238,99445
96135,99461
96022,99404
95852,99329
95642,99130
95560,99153
95586,99203
95525,99167
95386,99114
95230,98924
95225,98992
95319,99049
95275,99048
95220,98989
95180,98922
95252,99000
95342,99073
95396,99095
95355,99084
95313,98984
95409,99055
95563,99153
95580,99210
95575,99144
95576,99114
95646,99156
95749,99275
95815,99256
95794,99266
95717,99150
95812,99246
95914,99345
95930,99319
95886,99283
95876,99226
95938,99296
96010,99404
96057,99356
96028,99395
95942,99271
96076,99389
96194,99469
96178,99474
96190,99460
96182,99384
96277,99460
96372,99558
96432,99572
96409,99563
96375,99491
96472,99581
96616,99671
96593,99632
96613,99610
96534,99578
96643,99652
96763,99769
96778,99712
96736,99678
96682,99635
96769,99720
96825,99766
96807,99736
96799,99731
96675,99581
96766,99698
96835,99781
96763,99715
96759,99685
96607,99621
96666,99657
96748,99729
96730,99735
96703,99651
96585,99600
96642,99666
96732,99731
96751,99729
96692,99662
96639,99608
96743,99700
96818,99784
96859,99774
96866,99742
96812,99685
96940,99795
97059,99900
97092,99887
97082,99861
97042,99826
97170,99892
97296,100034
97343,100010
97319,99965
97283,99912
97409,100038
97541,100126
97562,100110
97562,100089
97541,100047
97609,100140
97742,100228
97742,100192
97674,100141
97573,100085
97674,100167
97738,100216
97744,100216
97685,100148
97589,100078
97671,100185
97755,100280
97737,100221
97645,100143
97605,100104
97693,100195
97760,100267
97704,100207
97652,100167
97617,100115
97693,100213
97733,100250
97721,100200
97683,100195
97608,100137
97691,100212
97754,100266
97719,100231
97680,100170
97615,100124
97684,100204
97784,100276
97740,100231
97662,100189
97596,100138
97687,100243
97800,100286
97779,100252
97673,100172
97630,100140
97727,100226
97815,100292
97783,100249
97705,100212
97633,100147
97751,100236
97789,100323
97775,100249
97698,100184
97617,100133
97736,100247
97813,100287
97766,100241
97690,100174
97643,100130
97747,100235
97780,100293
97779,100250
97687,100181
97638,100147
97770,100252
97821,100314
97788,100245
97723,100207
97658,100192
97801,100284
97863,100332
97828,100292
97780,100255
97744,100206
97906,100324
97959,100353
97939,100340
97878,100297
97842,100251
97951,100359
97978,100387
97942,100348
97824,100251
97730,100224
97770,100253
97733,100244
97557,100162
97414,100036
97199,99944
97157,99990
97066,99939
96834,99824
96622,99663
96440,99591
96398,99621
96279,99559
96079,99472
95901,99340
95752,99257
95767,99302
95699,99289
95590,99222
95473,99126
95364,99079
95456,99198
95479,99166
95392,99109
95362,99083
95354,99032
95445,99173
95523,99185
95540,99183
95489,99087
95474,99129
95636,99241
95714,99277
95717,99265
95701,99213
95692,99235
95848,99348
95918,99393
95957,99392
95910,99304
95904,99314
96052,99437
96152,99487
96116,99464
96099,99417
96128,99415
96249,99517
96334,99561
96324,99550
96261,99516
96324,99513
96468,99616
96517,99667
96522,99664
96516,99585
96501,99606
96667,99723
96755,99758
96702,99725
96672,99672
96738,99724
96853,99815
96879,99836
96864,99822
96820,99730
96810,99763
96909,99840
96958,99884
96904,99838
96801,99747
96812,99742
96874,99844
96862,99837
96828,99816
96737,99709
96692,99691
96787,99806
96784,99790
96703,99721
96622,99647
96610,99666
96646,99717
96658,99763
96601,99684
96459,99583
96476,99623
96580,99686
96514,99682
96519,99648
96425,99547
96355,99548
96495,99661
96493,99666
96412,99620
96338,99544
96378,99544
96436,99641
96477,99665
96446,99606
96373,99550
96396,99563
96500,99652
96511,99678
96495,99637
96436,99595
96497,99616
96577,99702
96669,99739
96633,99711
96554,99628
96634,99701
96773,99823
96805,99829
96834,99786
96772,99731
96836,99807
96990,99912
97081,99936
97057,99914
97049,99843
97084,99930
97252,100027
97283,100037
97309,100004
97221,99955
97280,100016
97422,100082
97454,100110
97413,100034
97360,100024
97373,100021
97438,100126
97489,100123
97446,100097
97315,99957
97332,100048
97442,100120
97443,100122
97374,100073
97296,99983
97358,100039
97394,100101
97401,100148
97325,100076
97261,99962
97291,100044
97348,100093
97372,100101
97305,100075
97187,99932
97264,100008
97358,100103
97325,100067
97295,100021
97213,99952
97268,100038
97377,100128
97396,100084
97353,100053
97283,100035
97348,100108
97448,100103
97441,100146
97397,100114
97298,100008
97386,100047
97469,100169
97452,100129
97443,100098
97322,100037
97394,100052
97485,100170
97461,100126
97418,100095
97353,100026
97417,100113
97500,100163
97482,100172
97488,100140
97424,100079
97474,100126
97554,100166
97597,100195
97576,100163
97473,100074
97558,100163
97580,100226
97561,100185
97509,100126
97350,99995
97397,100063
97344,100119
97282,100019
97090,99942
96884,99781
96870,99812
96808,99848
96675,99731
96519,99649
96303,99490
96259,99535
96224,99513
96137,99485
96003,99413
95822,99295
95791,99334
95844,99356
95785,99314
95669,99264
95542,99124
95595,99212
95615,99271
95563,99193
95565,99186
95411,99093
95520,99205
95585,99243
95569,99220
95534,99166
95470,99139
95553,99225
95690,99284
95663,99272
95626,99254
95593,99179
95693,99282
95784,99317
95806,99338
95771,99306
95727,99231
95839,99364
95951,99383
95952,99382
95921,99369
95899,99335
95984,99456
96087,99469
96086,99462
96073,99428
96012,99369
96156,99509
96215,99547
96222,99506
96214,99505
96148,99477
96257,99553
96354,99633
96363,99638
96334,99549
96312,99576
96450,99654
96498,99690
96529,99671
96495,99616
96495,99649
96582,99713
96605,99767
96619,99706
96567,99692
96524,99621
96632,99740
96680,99787
96597,99740
96521,99654
96474,99605
96569,99702
96566,99702
96520,99689
96392,99604
96348,99574
96430,99643
96466,99690
96388,99635
96295,99545
96280,99524
96314,99614
96394,99630
96346,99579
96254,99568
96215,99482
96312,99627
96348,99606
96320,99605
96266,99543
96261,99531
96320,99601
96445,99639
96417,99607
96366,99567
96357,99577
96451,99654
96540,99742
96537,99701
96472,99645
96490,99624
96635,99742
96656,99758
96636,99763
96644,99748
96567,99710
96722,99797
96802,99870
96793,99817
96731,99746
96753,99765
96860,99909
96938,99917
96955,99900
96889,99856
96885,99854
97043,100005
97094,99967
97090,99968
97027,99932
97000,99894
97181,100026
97197,100082
97150,100015
97135,99994
97151,99968
97270,100082
97303,100121
97290,100058
97272,100038
97236,100003
97362,100111
97463,100171
97399,100168
97366,100101
97350,100061
97489,100174
97518,100243
97520,100204
97469,100097
97431,100136
97502,100213
97546,100251
97516,100199
97483,100144
97414,100152
97499,100208
97582,100274
97514,100202
97407,100145
97389,100093
97537,100221
97526,100250
97512,100226
97455,100133
97430,100134
97538,100223
97536,100261
97505,100213
97487,100159
97446,100130
97597,100247
97570,100284
97532,100213
97499,100145
97516,100193
97629,100266
97686,100341
97638,100274
97575,100219
97538,100208
97678,100279
97740,100315
97704,100294
97617,100225
97669,100242
97755,100352
97766,100322
97731,100322
97687,100270
97648,100237
97714,100338
97781,100353
97733,100333
97610,100207
97609,100228
97650,100290
97590,100228
97502,100211
97310,100070
97196,100041
97133,100064
97090,100014
96869,99893
96615,99751
96488,99674
96415,99718
96302,99644
96096,99539
95857,99389
95752,99316
95724,99364
95640,99335
95462,99230
95297,99107
95259,99098
95317,99139
95253,99143
95226,99095
95076,98982
95071,99018
95209,99105
95218,99085
95184,99091
95131,99012
95149,99050
95322,99147
95350,99164
95353,99147
95318,99110
95371,99137
95515,99274
95563,99253
95574,99262
95519,99196
95603,99231
95717,99334
95742,99329
95745,99344
95692,99268
95712,99313
95844,99403
95885,99405
95862,99399
95795,99301
95794,99372
95933,99419
95937,99456
95944,99417
95851,99345
95905,99376
96029,99500
96025,99450
96013,99430
95965,99393
95989,99445
96119,99551
96113,99535
96131,99517
96060,99455
96162,99525
96200,99569
96249,99610
96197,99563
96110,99448
96165,99498
96239,99585
96192,99565
96153,99535
96039,99444
96071,99456
96089,99536
96083,99498
95996,99451
95875,99381
95881,99419
95903,99446
95874,99433
95763,99361
95677,99263
95688,99315
95705,99364
95683,99319
95596,99285
95477,99177
95508,99253
95540,99247
95538,99286
95468,99229
95367,99126
95443,99166
95519,99258
95550,99256
95489,99242
95429,99142
95531,99212
95627,99333
95616,99252
95632,99275
95583,99254
95652,99307
95808,99390
95780,99383
95836,99387
95720,99324
95890,99355
95979,99484
96036,99496
96052,99465
95987,99432
96125,99498
96164,99603
96269,99593
96205,99581
96183,99531
96250,99622
96386,99662
96421,99678
96434,99701
96364,99635
96504,99708
96567,99780
96608,99817
96620,99776
96570,99721
96686,99779
96819,99911
96878,99897
96840,99905
96842,99851
96938,99954
97047,99991
97064,100004
97080,99985
97055,99954
97130,100042
97256,100080
97264,100104
97268,100068
97190,100009
97329,100126
97388,100171
97363,100171
97339,100129
97262,100064
97407,100179
97446,100178
97446,100222
97452,100155
97344,100093
97489,100202
97542,100240
97537,100251
97556,100224
97438,100157
97537,100225
97647,100301
97617,100271
97603,100262
97531,100162
97657,100310
97723,100343
97705,100329
97626,100285
97608,100231
97690,100350
97759,100361
97729,100337
97698,100311
97635,100261
97721,100361
97816,100399
97803,100361
97765,100362
97684,100295
97793,100356
97894,100484
97878,100407
97818,100388
97759,100319
97853,100426
97920,100474
97910,100465
97869,100401
97792,100379
97845,100417
97892,100462
97793,100393
97676,100289
97519,100239
97485,100280
97412,100231
97249,100165
97062,99985
96931,99952
96859,99964
96779,99909
96589,99819
96453,99742
96263,99610
96301,99670
96208,99685
96086,99594
95982,99537
95861,99425
95912,99474
95938,99562
95887,99491
95778,99409
95702,99386
95807,99427
95863,99519
95875,99467
95803,99402
95808,99404
95922,99515
96002,99527
95975,99508
95987,99493
95954,99456
96109,99575
96199,99616
96213,99642
96127,99578
96155,99542
96274,99683
96345,99680
96365,99684
96334,99614
96252,99630
96364,99693
96466,99782
96441,99708
96372,99691
96342,99628
96505,99743
96493,99789
96444,99743
96446,99699
96424,99675
96498,99798
96561,99796
96561,99767
96459,99716
96502,99732
96618,99836
96617,99824
96646,99806
96562,99795
96562,99735
96695,99856
96731,99918
96713,99857
96718,99807
96655,99824
96735,99869
96823,99916
96753,99872
96715,99808
96635,99809
96720,99885
96758,99890
96711,99853
96610,99759
96568,99760
96643,99845
96671,99822
96603,99802
96467,99695
96410,99685
96484,99754
96481,99740
96416,99693
96323,99660
96263,99559
96332,99716
96371,99707
96296,99677
96204,99551
96139,99583
96289,99659
96321,99698
96350,99675
96225,99605
96227,99627
96379,99715
96434,99721
96407,99712
96386,99657
96408,99630
96547,99793
96575,99808
96592,99789
96531,99739
96567,99730
96688,99884
96737,99840
96760,99853
96650,99797
96695,99838
96810,99902
96867,99960
96831,99908
96835,99852
96848,99906
96949,99992
97046,100023
96999,99976
96970,99940
96970,99948
97108,100056
97147,100060
97139,100043
97117,99980
97142,100025
97248,100152
97303,100140
97276,100139
97217,100046
97232,100078
97382,100190
97370,100200
97352,100118
97306,100087
97298,100116
97405,100215
97415,100217
97352,100181
97295,100090
97318,100101
97448,100211
97396,100202
97403,100168
97287,100118
97330,100126
97447,100239
97444,100178
97453,100197
97326,100144
97367,100175
97470,100271
97509,100239
97518,100207
97446,100172
97438,100210
97611,100335
97588,100271
97590,100241
97579,100210
97625,100273
97674,100384
97743,100350
97688,100325
97630,100250
97683,100289
97781,100422
97761,100334
97723,100344
97629,100232
97612,100288
97673,100300
97627,100329
97531,100228
97342,100098
97324,100104
97294,100134
97104,100065
96966,99995
96717,99811
96621,99775
96524,99764
96359,99719
96162,99614
95896,99444
95792,99377
95800,99415
95671,99348
95484,99257
95284,99127
95270,99124
95266,99176
95220,99092
95133,99083
94994,98947
95005,99006
95076,99088
95100,99084
95038,99017
94980,98969
95006,99011
95170,99114
95192,99108
95157,99093
95126,99045
95228,99112
95338,99195
95388,99199
95408,99222
95367,99123
95419,99196
95607,99327
95624,99314
95616,99297
95560,99227
95672,99324
95771,99430
95823,99406
95821,99383
95761,99312
95813,99430
95934,99435
95946,99480
95953,99459
95877,99381
95996,99498
96053,99492
96062,99535
96079,99517
96035,99471
96096,99552
96218,99582
96257,99626
96243,99571
96183,99486
96295,99620
96366,99672
96377,99692
96330,99651
96293,99589
96310,99648
96404,99667
96349,99678
96328,99635
96220,99552
96262,99615
96321,99644
96296,99665
96219,99618
96149,99504
96178,99583
96205,99595
96165,99603
96130,99528
96021,99472
96109,99551
96088,99545
96059,99546
95986,99478
95932,99427
96020,99501
96004,99503
96012,99537
95979,99431
95825,99365
95929,99449
96017,99517
95974,99495
95921,99459
95844,99361
95904,99460
95965,99516
95980,99498
95920,99436
95876,99409
95970,99508
96056,99503
96057,99535
96032,99487
96017,99465
96086,99534
96208,99609
96202,99596
96189,99569
96128,99490
96247,99566
96324,99694
96311,99659
96285,99595
96225,99570
96358,99640
96399,99742
96407,99727
96401,99679
96327,99621
96427,99684
96527,99805
96508,99752
96468,99719
96445,99692
96505,99769
96600,99799
96616,99799
96600,99790
96537,99724
96624,99790
96712,99855
96700,99825
96645,99775
96561,99754
96661,99821
96744,99836
96720,99849
96666,99798
96563,99724
96698,99856
96735,99916
96689,99838
96641,99789
96609,99767
96680,99845
96778,99911
96696,99876
96679,99785
96663,99811
96785,99899
96835,99955
96823,99920
96766,99888
96772,99831
96844,99935
96890,99956
96878,99991
96868,99896
96834,99906
96902,99942
97016,100038
96974,100008
96922,99915
96881,99917
96946,99988
97063,100031
97048,100011
96976,99946
96863,99932
96989,99989
97049,100084
96998,100009
96956,99907
96909,99911
96922,99965
96967,100013
96906,99960
96762,99856
96639,99759
96624,99802
96595,99818
96398,99704
96201,99596
96033,99490
95954,99490
95899,99478
95726,99362
95546,99281
95365,99146
95372,99223
95284,99164
95155,99111
94997,99014
94915,98976
94947,99000
94922,99013
94866,98941
94781,98869
94743,98869
94865,98956
94909,98955
94856,98945
94859,98905
94795,98894
94907,98997
95023,99041
95045,99028
94986,99005
94981,99012
95137,99114
95279,99147
95277,99150
95248,99078
95297,99110
95402,99237
95519,99252
95504,99266
95464,99225
95508,99186
95610,99346
95668,99320
95680,99355
95619,99316
95605,99264
95761,99384
95774,99403
95759,99367
95720,99354
95707,99320
95853,99430
95880,99468
95850,99416
95804,99400
95814,99379
95897,99447
95987,99519
95929,99490
95869,99393
95865,99416
95974,99509
96005,99527
95945,99475
95924,99408
95854,99426
95952,99469
95991,99525
95917,99458
95857,99361
95821,99391
95868,99501
95900,99443
95830,99410
95691,99327
95658,99307
95734,99360
95679,99374
95609,99286
95520,99249
95447,99229
95473,99275
95487,99289
95348,99205
95276,99088
95230,99100
95305,99191
95288,99149
95234,99131
95122,99032
95120,99032
95204,99121
95216,99155
95158,99108
95094,99005
95064,99070
95136,99083
95210,99146
95143,99097
95093,99027
95081,99039
95201,99125
95221,99142
95194,99121
95094,99036
95132,99093
95236,99146
95287,99152
95264,99152
95202,99099
95222,99145
95388,99224
95385,99239
95392,99188
95419,99193
95454,99220
95613,99349
95627,99321
95647,99314
95622,99312
95731,99310
95873,99464
95913,99478
95959,99468
95921,99418
96035,99481
96162,99629
96242,99621
96266,99649
96243,99598
96293,99628
96462,99729
96535,99809
96510,99792
96479,99696
96578,99790
96688,99858
96807,99877
96746,99892
96699,99851
96750,99868
96877,99952
96931,100005
96887,99925
96890,99923
96905,99927
97052,100051
97052,100054
97037,100027
96935,99964
97028,99985
97158,100087
97131,100075
97149,100039
96996,100012
97062,100005
97196,100139
97159,100069
97124,100070
97047,100019
97057,100034
97210,100109
97157,100118
97143,100075
97044,100000
97128,100076
97190,100166
97229,100103
97182,100140
97059,99993
97182,100073
97216,100180
