11111,11111
0,0
79709,79949
96809,97610
96758,97568
96833,97617
96859,97659
96844,97607
96844,97596
96791,97604
96877,97636
96924,97702
96904,97610
96950,97640
96873,97612
96954,97645
96938,97668
96980,97652
96986,97654
96916,97592
97009,97671
97029,97670
96898,97611
96863,97554
96724,97545
96754,97527
96700,97539
96587,97438
96463,97416
96329,97328
96341,97366
96223,97300
96140,97269
96074,97214
95906,97161
95918,97146
95807,97108
95724,97050
95643,97049
95521,96928
95514,96951
95443,96969
95409,96917
95304,96902
95231,96808
95247,96870
95249,96848
95168,96844
95089,96766
95110,96753
95125,96825
95097,96816
95098,96824
95065,96761
95067,96729
95119,96805
95129,96819
95121,96804
95093,96796
95123,96767
95174,96833
95215,96839
95211,96831
95196,96841
95201,96789
95284,96881
95295,96887
95313,96882
95278,96879
95302,96837
95314,96922
95405,96904
95345,96931
95308,96847
95344,96881
95375,96894
95399,96954
95405,96916
95388,96919
95389,96873
95491,96953
95450,96965
95457,96928
95508,96915
95433,96923
95536,96951
95585,96974
95578,96966
95560,96974
95523,96921
95642,97034
95605,97039
95573,96982
95615,96986
95570,96930
95655,97014
95631,96992
95634,97014
95643,97002
95587,96940
95673,97033
95634,96965
95610,97007
95578,96933
95590,96954
95633,97033
95636,96976
95579,96987
95574,96938
95588,96966
95631,96995
95603,96948
95577,96966
95575,96941
95558,96919
95626,97006
95599,96954
95586,96973
95558,96901
95587,96943
95609,97010
95620,96978
95589,96966
95626,96955
95586,96909
95656,97003
95949,97097
96276,97229
96357,97291
96584,97349
96623,97349
96678,97423
96906,97492
96908,97470
96931,97497
97000,97546
97211,97592
97189,97653
97165,97594
97168,97623
97202,97604
97310,97655
97246,97637
97280,97644
97271,97602
97271,97675
97357,97663
97315,97664
97329,97668
97253,97627
97264,97639
97310,97676
97206,97603
97133,97533
97017,97531
96980,97486
96927,97490
96829,97384
96750,97331
96568,97294
96539,97272
96510,97263
96390,97192
96270,97180
96172,97075
96119,97103
96067,97081
95978,97034
95894,96964
95777,96940
95745,96917
95719,96918
95627,96894
95571,96837
95479,96810
95455,96826
95444,96849
95409,96789
95328,96768
95324,96734
95291,96742
95396,96770
95323,96745
95311,96766
95314,96736
95327,96764
95349,96810
95352,96801
95347,96782
95319,96720
95388,96757
95410,96841
95401,96791
95445,96795
95389,96733
95489,96824
95474,96880
95501,96841
95462,96830
95499,96816
95530,96862
95614,96890
95548,96879
95579,96857
95574,96829
95649,96895
95623,96952
95633,96875
95672,96889
95638,96868
95711,96940
95734,96945
95730,96931
95736,96971
95737,96883
95769,96951
95852,96974
95848,96994
95791,96986
95841,96936
95852,97009
95906,97027
95841,96993
95843,97009
95849,96963
95889,97015
95910,97048
95872,96987
95861,97007
95807,96925
95892,96983
95896,97014
95852,96994
95857,96980
95809,96909
95846,96984
95827,96992
95794,96955
95820,96938
95749,96927
95809,96963
95825,96976
95799,96934
95762,96956
95716,96852
95780,96961
95809,96990
95776,96937
95743,96918
95707,96892
95758,96966
95759,96969
95712,96909
95735,96894
95684,96901
95743,96961
95803,96922
95759,96927
95708,96900
95733,96882
95776,96959
95794,96943
95802,96966
95780,96934
95713,96929
95818,96951
95850,96957
95828,96973
95796,96914
95806,96944
95853,96998
95874,96985
95878,96974
95856,96968
95868,96964
95903,97014
95919,97029
95951,97008
95899,97032
95927,96978
95984,97064
95996,97041
95965,97012
96024,97046
95974,96977
96071,97056
96058,97081
96078,97039
96066,97065
96058,97058
96098,97122
96135,97098
96097,97119
96139,97072
96108,97066
96140,97113
96171,97153
96162,97086
96134,97122
96160,97071
96181,97160
96211,97137
96206,97117
96203,97116
96141,97059
96228,97141
96247,97156
96212,97159
96219,97082
96206,97133
96247,97186
96288,97185
96247,97158
96281,97129
96244,97159
96300,97157
96360,97198
96325,97213
96302,97141
96283,97110
96382,97210
96361,97154
96346,97185
96323,97137
96313,97158
96402,97205
96372,97196
96351,97229
96320,97132
96324,97161
96381,97178
96368,97215
96378,97155
96362,97191
96312,97149
96403,97219
96375,97213
96372,97202
96382,97177
96323,97153
96427,97195
96401,97186
96420,97185
96367,97179
96337,97147
96437,97196
96394,97243
96391,97186
96410,97175
96357,97208
96435,97241
96429,97192
96451,97200
96405,97178
96401,97173
96444,97221
96455,97252
96455,97203
96412,97220
96438,97183
96451,97226
96460,97270
96424,97182
96448,97228
96433,97179
96530,97255
96497,97251
96485,97237
96499,97192
96488,97254
96528,97245
96575,97251
96559,97260
96521,97221
96561,97230
96608,97317
96586,97238
96543,97258
96521,97197
96456,97167
96436,97216
96391,97185
96285,97144
96151,97057
96063,97012
96038,97008
95924,96940
95818,96874
95685,96825
95602,96777
95511,96767
95460,96734
95339,96697
95179,96569
95103,96589
95066,96583
94996,96519
94879,96492
94799,96424
94733,96387
94724,96444
94665,96374
94596,96372
94535,96299
94498,96298
94517,96349
94504,96319
94433,96285
94427,96233
94373,96298
94439,96268
94438,96330
94404,96275
94352,96249
94405,96271
94497,96349
94491,96293
94494,96330
94454,96272
94461,96297
94572,96381
94565,96327
94580,96363
94557,96309
94586,96344
94640,96399
94657,96413
94706,96396
94628,96399
94668,96368
94781,96461
94776,96459
94753,96433
94752,96418
94770,96435
94802,96426
94845,96479
94815,96442
94834,96423
94875,96456
94876,96541
94946,96496
94931,96503
94894,96432
94947,96503
94987,96539
95043,96556
95049,96546
95009,96486
95041,96545
95114,96594
95076,96591
95107,96550
95096,96518
95060,96557
95158,96634
95112,96553
95100,96551
95092,96551
95079,96548
95140,96605
95125,96560
95123,96558
95077,96522
95119,96569
95138,96598
95112,96558
95114,96559
95064,96526
95071,96539
95113,96587
95076,96545
95061,96549
95043,96540
95032,96529
95108,96570
95047,96557
95055,96527
95013,96513
95024,96544
95126,96585
95083,96603
95049,96538
95084,96523
95097,96521
95145,96587
95099,96586
95106,96539
95076,96543
95090,96573
95199,96623
95169,96587
95197,96570
95124,96583
95201,96597
95292,96642
95260,96641
95242,96648
95230,96617
95292,96649
95350,96685
95344,96687
95372,96671
95312,96622
95388,96678
95476,96709
95396,96703
95430,96679
95399,96685
95495,96721
95578,96774
95531,96752
95544,96748
95545,96731
95597,96787
95644,96801
95659,96815
95669,96799
95668,96807
95704,96818
95755,96875
95759,96854
95744,96847
95731,96823
95794,96847
95866,96917
95840,96898
95848,96871
95835,96854
95882,96896
95934,96961
95940,96916
95935,96904
95929,96889
95982,96927
95996,96949
96018,96944
96030,96968
96002,96928
96048,96948
96129,96989
96098,97016
96081,96963
96112,96973
96133,97019
96162,97029
96172,97020
96181,97052
96177,96967
96245,97069
96256,97093
96211,97059
96243,97021
96217,97021
96296,97068
96318,97074
96338,97074
96304,97098
96306,97027
96346,97103
96403,97111
96373,97100
96379,97097
96388,97087
96438,97143
96473,97145
96490,97141
96449,97174
96450,97102
96495,97155
96558,97159
96565,97150
96550,97196
96518,97136
96595,97182
96624,97236
96607,97221
96581,97199
96591,97176
96627,97238
96685,97219
96637,97236
96638,97163
96604,97209
96684,97248
96710,97221
96719,97248
96714,97264
96681,97192
96737,97274
96792,97261
96782,97292
96757,97252
96732,97256
96794,97322
96878,97355
96830,97334
96868,97278
96828,97252
96921,97329
96940,97386
96946,97375
96951,97332
96936,97315
97027,97375
97045,97381
97063,97382
97042,97406
97052,97361
97068,97398
97112,97440
97014,97381
96987,97332
96865,97266
96872,97292
96796,97263
96680,97196
96524,97109
96400,97051
96400,97072
96312,97063
96184,96976
96083,96911
95953,96807
95937,96848
95825,96810
95727,96800
95647,96700
95536,96665
95496,96692
95468,96672
95375,96622
95260,96584
95189,96525
95209,96558
95166,96554
95085,96529
95013,96440
94947,96429
95005,96477
94974,96462
94929,96452
94917,96390
94861,96409
94927,96464
94938,96440
94932,96436
94908,96466
94894,96427
94931,96465
94991,96505
94978,96516
94970,96437
94956,96456
95072,96502
95087,96507
95107,96549
95057,96485
95072,96492
95171,96565
95210,96566
95204,96578
95166,96545
95176,96550
95274,96599
95284,96610
95274,96604
95285,96565
95278,96584
95365,96633
95350,96641
95380,96623
95335,96656
95337,96647
95409,96668
95494,96695
95490,96692
95445,96667
95466,96672
95587,96729
95571,96772
95548,96736
95573,96738
95572,96705
95637,96759
95606,96764
95609,96738
95618,96751
95583,96714
95635,96770
95633,96756
95601,96730
95606,96761
95585,96697
95630,96761
95682,96775
95616,96753
95632,96699
95586,96754
95647,96734
95664,96778
95601,96745
95601,96725
95574,96710
95639,96772
95603,96731
95617,96742
95585,96681
95536,96680
95624,96748
95569,96727
95604,96705
95561,96713
95576,96710
95609,96731
95632,96742
95594,96764
95584,96691
95579,96703
95649,96767
95603,96746
95669,96730
95600,96745
95634,96750
95695,96804
95696,96795
95725,96786
95693,96765
95713,96784
95762,96830
95780,96835
95768,96798
95740,96787
95765,96768
95860,96862
95821,96825
95859,96836
95811,96847
95839,96807
95950,96911
95923,96852
95942,96872
95920,96870
95941,96872
96012,96922
96035,96948
96003,96901
96029,96920
96032,96921
96081,96986
96112,96981
96130,96995
96087,96908
96128,96956
96218,96996
96188,97019
96200,97002
96169,96999
96202,96983
96273,97045
96269,97022
96237,97024
96237,97021
96282,97000
96318,97098
96335,97032
96333,97051
96319,97054
96312,97060
96381,97069
96374,97118
96359,97064
96371,97039
96396,97074
96430,97094
96425,97108
96403,97126
96406,97059
96455,97111
96466,97120
96490,97163
96494,97128
96468,97076
96526,97132
96553,97190
96556,97137
96505,97138
96500,97119
96519,97116
96585,97184
96613,97160
96574,97168
96572,97158
96564,97163
96645,97206
96632,97182
96588,97178
96562,97157
96589,97212
96646,97221
96674,97184
96662,97199
96594,97170
96628,97197
96717,97234
96714,97216
96690,97222
96688,97185
96680,97226
96752,97228
96757,97223
96716,97234
96720,97175
96727,97252
96778,97260
96765,97230
96800,97266
96719,97185
96789,97228
96827,97283
96822,97276
96817,97295
96795,97269
96837,97261
96901,97335
96884,97336
96872,97310
96855,97314
96887,97298
97016,97339
96925,97330
96934,97318
96892,97241
96927,97316
96926,97303
96873,97267
96759,97265
96669,97151
96592,97160
96580,97152
96423,97099
96324,96997
96212,96969
96147,96934
96087,96923
95958,96834
95890,96813
95717,96698
95687,96729
95629,96741
95509,96664
95436,96646
95280,96550
95281,96582
95272,96555
95169,96524
95146,96512
95032,96428
95016,96454
95025,96441
94963,96416
94893,96381
94867,96385
94894,96400
94907,96408
94863,96404
94800,96372
94778,96336
94853,96408
94894,96449
94832,96420
94880,96369
94850,96382
94878,96399
94964,96473
94950,96451
95006,96464
94978,96385
95039,96481
95071,96461
95088,96483
95095,96515
95036,96446
95128,96520
95174,96557
95194,96543
95180,96521
95198,96492
95234,96600
95269,96580
95288,96598
95255,96601
95263,96557
95297,96589
95356,96592
95360,96637
95285,96576
95285,96535
95385,96642
95408,96654
95401,96653
95394,96588
95388,96645
95446,96639
95451,96680
95432,96637
95454,96690
95375,96588
95469,96649
95497,96680
95460,96660
95440,96670
95366,96582
95500,96654
95452,96676
95449,96650
95416,96627
95394,96620
95372,96640
95447,96641
95396,96636
95373,96611
95344,96581
95380,96618
95375,96648
95328,96593
95356,96616
95272,96551
95318,96602
95363,96578
95329,96592
95302,96559
95277,96521
95293,96574
95327,96619
95271,96571
95282,96555
95219,96546
95278,96560
95299,96590
95273,96581
95301,96546
95244,96551
95287,96546
95332,96622
95322,96600
95288,96542
95299,96560
95338,96603
95366,96637
95381,96601
95343,96572
95331,96562
95361,96617
95416,96634
95377,96630
95397,96566
95335,96590
95459,96657
95450,96663
95428,96632
95442,96640
95427,96611
95521,96658
95527,96669
95492,96659
95530,96671
95530,96647
95572,96708
95597,96716
95579,96716
95577,96685
95589,96684
95658,96722
95663,96756
95684,96739
95638,96729
95642,96693
95699,96757
95763,96783
95729,96749
95690,96750
95694,96717
95760,96793
95819,96787
95797,96781
95739,96737
95781,96748
95795,96817
95831,96860
95822,96788
95887,96803
95835,96761
95863,96818
95922,96844
95899,96865
95908,96796
95892,96828
95947,96871
95988,96851
95938,96842
95953,96850
95927,96799
96001,96893
95986,96860
95994,96887
95943,96866
95939,96819
96045,96871
96007,96892
96033,96876
95990,96857
96016,96841
96081,96923
96069,96877
96060,96891
96055,96886
96057,96869
96108,96957
96150,96898
96117,96923
96106,96903
96100,96881
96122,96909
96137,96954
96108,96919
96143,96915
96099,96913
96163,96963
96181,96953
96164,96926
96161,96901
96155,96903
96193,96976
96262,96974
96231,96964
96198,96919
96215,96950
96240,96952
96244,97015
96247,96969
96237,96979
96220,96945
96348,96986
96286,97021
96317,97003
96294,97000
96314,96962
96351,97016
96356,97051
96353,97016
96383,96972
96342,96986
96407,97049
96366,96986
96385,97022
96339,96952
96322,96987
96269,96977
96203,96918
96139,96916
95998,96805
95980,96790
95880,96811
95802,96745
95668,96668
95557,96632
95463,96550
95432,96594
95314,96504
95220,96475
95099,96397
95012,96375
94947,96360
94831,96341
94738,96296
94666,96209
94584,96189
94554,96192
94477,96147
94457,96137
94298,96080
94300,96073
94330,96120
94260,96094
94250,96033
94198,96038
94154,96016
94262,96071
94230,96050
94221,96031
94210,96023
94196,96074
94279,96038
94248,96116
94262,96080
94255,96084
94280,96069
94364,96154
94369,96118
94364,96128
94339,96112
94419,96122
94444,96173
94478,96152
94471,96189
94444,96132
94453,96138
94547,96231
94532,96181
94499,96173
94519,96171
94526,96180
94567,96228
94577,96227
94566,96202
94527,96168
94573,96159
94654,96247
94643,96259
94635,96202
94625,96197
94696,96217
94704,96312
94712,96286
94734,96286
94693,96241
94735,96257
94766,96342
94764,96254
94775,96291
94725,96269
94746,96258
94756,96284
94786,96289
94724,96306
94702,96214
94717,96234
94736,96291
94711,96281
94717,96227
94662,96220
94670,96211
94735,96275
94654,96258
94656,96204
94607,96232
94624,96183
94645,96277
94612,96241
94603,96178
94591,96169
94614,96223
94619,96220
94646,96210
94565,96227
94582,96168
94562,96221
94633,96212
94628,96199
94598,96222
94592,96187
94617,96212
94663,96222
94650,96199
94630,96232
94581,96159
94640,96225
94685,96267
94652,96233
94665,96250
94619,96165
94684,96263
94760,96265
94711,96258
94737,96251
94681,96254
94722,96265
94830,96346
94774,96291
94831,96279
94752,96273
94822,96283
94889,96364
94883,96344
94854,96315
94857,96316
94895,96307
95001,96401
94936,96354
94952,96351
94916,96334
95011,96368
95073,96390
95086,96399
95029,96419
95018,96393
95093,96424
95129,96452
95133,96450
95147,96432
95113,96425
95154,96452
95237,96504
95209,96482
95241,96463
95171,96434
95233,96476
95275,96535
95261,96489
95304,96507
95274,96503
95288,96492
95408,96564
95346,96554
95369,96516
95345,96474
95447,96553
95448,96571
95453,96554
95452,96559
95418,96559
95477,96569
95552,96621
95518,96616
95545,96582
95496,96549
95567,96627
95612,96665
95587,96671
95554,96595
95574,96597
95615,96668
95647,96668
95663,96684
95615,96637
95621,96617
95660,96680
95713,96685
95688,96666
95709,96694
95640,96622
95764,96685
95753,96739
95789,96700
95738,96688
95716,96686
95772,96706
95853,96773
95820,96731
95830,96728
95780,96684
95894,96738
95873,96812
95884,96754
95899,96756
95855,96720
95898,96763
95948,96831
95903,96766
95974,96773
95912,96771
95984,96813
96024,96810
95996,96832
96019,96789
95977,96819
96051,96814
96093,96847
96095,96834
96088,96813
96085,96803
96166,96872
96174,96873
96139,96893
96149,96862
96119,96834
96167,96828
96087,96877
96019,96763
95954,96747
95811,96677
95792,96695
95753,96659
95613,96607
95477,96513
95352,96464
95327,96494
95239,96422
95131,96385
94984,96316
94877,96263
94815,96247
94758,96233
94669,96208
94539,96098
94465,96098
94395,96096
94398,96121
94272,96005
94251,96016
94152,95955
94121,95951
94149,95986
94100,95933
94020,95884
93962,95859
94050,95957
94021,95928
94020,95893
93979,95907
93969,95889
94052,95949
94050,95938
94074,95924
94057,95933
94058,95936
94095,95976
94186,95971
94194,96004
94152,95949
94167,95973
94263,96019
94292,96028
94275,96020
94262,96040
94255,95985
94385,96071
94365,96068
94398,96076
94360,96083
94350,96058
94484,96097
94464,96146
94486,96109
94480,96119
94492,96054
94571,96179
94581,96133
94610,96166
94570,96165
94607,96171
94667,96248
94707,96198
94716,96208
94707,96221
94688,96199
94833,96273
94850,96265
94796,96254
94798,96262
94773,96249
94825,96279
94869,96270
94830,96301
94815,96230
94800,96275
94851,96264
94881,96313
94847,96286
94829,96280
94760,96214
94895,96303
94864,96291
94853,96295
94830,96257
94810,96282
94838,96300
94877,96279
94850,96297
94840,96273
94830,96246
94863,96269
94870,96283
94866,96279
94849,96256
94819,96278
94892,96318
94915,96294
94882,96275
94856,96273
94886,96266
94926,96327
94941,96315
94951,96333
94900,96309
94920,96291
94997,96389
95023,96402
94991,96368
94988,96338
95000,96333
95073,96403
95073,96368
95088,96380
95083,96356
95061,96382
95168,96446
95170,96426
95188,96443
95134,96411
95174,96420
95283,96479
95296,96485
95262,96469
95279,96472
95252,96449
95334,96548
95386,96541
95375,96508
95360,96505
95341,96518
95435,96535
95487,96581
95463,96561
95416,96511
95486,96525
95519,96614
95517,96597
95580,96610
95506,96581
95521,96569
95647,96689
95635,96629
95647,96633
95585,96604
95646,96642
95684,96646
95739,96652
95697,96696
95681,96670
95665,96662
95731,96705
95757,96679
95787,96694
95732,96676
95755,96687
95807,96741
95842,96691
95848,96730
95783,96674
95817,96708
95874,96750
95897,96749
95860,96766
95868,96715
95854,96739
95946,96767
95939,96775
95919,96774
95864,96737
95922,96725
95991,96813
95992,96793
95978,96777
95950,96789
95957,96768
96037,96840
96066,96811
96007,96801
96021,96776
96015,96823
96047,96811
96059,96821
96059,96819
96027,96787
96044,96830
96115,96821
96100,96836
96094,96859
96042,96776
96082,96811
96149,96871
96147,96846
96107,96856
96154,96830
96135,96854
96213,96898
96203,96855
96192,96900
96189,96826
96181,96879
96241,96929
96261,96909
96261,96951
96248,96836
96241,96905
96258,96949
96193,96865
96161,96871
96085,96780
95999,96793
95998,96766
95912,96743
95740,96660
95640,96586
95546,96566
95499,96538
95371,96472
95275,96453
95099,96354
95065,96361
94985,96342
94872,96266
94780,96220
94613,96162
94590,96111
94548,96173
94445,96111
94405,96063
94255,95994
94238,95980
94244,96037
94147,95988
94147,95968
94054,95881
94107,95917
94078,95956
94053,95920
94030,95912
93977,95863
94025,95914
94067,95956
94073,95949
94022,95938
94036,95904
94071,95934
94101,95962
94091,95952
94142,95984
94079,95897
94174,95952
94212,96007
94192,96004
94237,96018
94151,95975
94255,96006
94304,96046
94323,96058
94308,96050
94227,95999
94311,96039
94375,96115
94379,96051
94368,96070
94359,96049
94381,96116
94465,96116
94433,96112
94434,96117
94425,96099
94487,96123
94551,96185
94561,96149
94540,96154
94545,96132
94600,96177
94606,96196
94630,96169
94607,96190
94601,96113
94643,96191
94661,96242
94653,96170
94616,96200
94618,96125
94615,96217
94639,96176
94631,96166
94629,96169
94549,96135
94651,96155
94613,96226
94615,96158
94581,96165
94557,96096
94553,96120
94615,96202
94541,96145
94533,96118
94494,96097
94571,96154
94590,96124
94539,96133
94510,96126
94498,96099
94531,96156
94542,96160
94513,96110
94540,96135
94489,96072
94566,96156
94561,96151
94575,96157
94543,96140
94539,96140
94595,96192
94629,96165
94664,96191
94600,96181
94606,96135
94676,96219
94674,96198
94650,96196
94717,96188
94659,96151
94760,96263
94743,96238
94775,96229
94741,96216
94736,96208
94831,96287
94840,96255
94873,96265
94836,96284
94826,96234
94895,96285
94948,96315
94928,96342
94915,96284
94940,96305
95006,96352
95048,96361
95058,96335
95027,96378
95020,96326
95139,96412
95156,96432
95125,96408
95132,96400
95105,96362
95228,96443
95212,96434
95184,96429
95248,96444
95156,96408
95291,96446
95269,96520
95294,96446
95280,96451
95273,96430
95360,96496
95361,96533
95362,96476
95362,96504
95381,96500
95435,96556
95466,96523
95427,96533
95475,96527
95410,96527
95495,96548
95509,96569
95524,96535
95498,96567
95463,96511
95570,96593
95587,96609
95533,96578
95537,96558
95530,96509
95598,96629
95639,96604
95631,96602
95619,96599
95569,96567
95685,96606
95694,96659
95660,96600
95672,96590
95659,96578
95687,96638
95749,96673
95734,96614
95720,96638
95686,96612
95771,96690
95744,96675
95792,96652
95717,96673
95713,96633
95780,96687
95836,96717
95794,96652
95783,96701
95763,96635
95864,96738
95898,96714
95851,96711
95884,96694
95836,96721
95934,96725
95923,96772
95950,96733
95973,96748
95937,96716
96030,96740
96017,96811
96004,96771
96031,96780
95974,96769
96089,96819
96078,96805
96077,96802
95984,96738
95911,96726
95973,96726
95894,96734
95747,96656
95700,96577
95550,96559
95535,96541
95435,96491
95336,96464
95183,96376
95086,96302
95034,96328
94935,96259
94823,96214
94674,96157
94581,96075
94585,96142
94479,96065
94386,96028
94266,95970
94215,95947
94181,95970
94130,95905
94083,95910
94063,95870
93985,95852
94012,95865
93972,95849
93936,95804
93881,95809
93916,95795
93909,95848
93931,95822
93960,95842
93905,95819
93899,95810
94012,95872
94012,95898
94005,95838
93997,95841
93973,95843
94101,95903
94090,95918
94069,95886
94071,95870
94061,95890
94175,95908
94172,95928
94177,95962
94148,95891
94175,95947
94204,95999
94224,95934
94266,95979
94196,95929
94269,95939
94306,95980
94342,96004
94288,96030
94265,95980
94298,95975
94411,96053
94386,96049
94377,96003
94417,96032
94428,96057
94465,96075
94483,96049
94435,96069
94467,96053
94446,96021
94535,96096
94535,96086
94552,96068
94512,96072
94483,96084
94554,96090
94518,96089
94530,96072
94475,96047
94477,96057
94559,96067
94512,96113
94502,96037
94422,96035
94480,96048
94479,96070
94501,96054
94464,96065
94396,96040
94415,96020
94466,96046
94482,96060
94420,96024
94406,96034
94424,96030
94425,96070
94456,96064
94410,96009
94415,96022
94410,96036
94478,96048
94481,96064
94491,96067
94427,96062
94452,96012
94563,96133
94507,96067
94517,96067
94504,96049
94530,96066
94616,96138
94611,96104
94580,96115
94579,96120
94626,96108
94658,96153
94665,96171
94682,96148
94673,96127
94679,96153
94722,96183
94746,96182
94734,96183
94718,96131
94761,96197
94828,96224
94782,96193
94821,96222
94806,96179
94831,96202
94893,96274
94899,96248
94896,96252
94841,96214
94917,96264
94962,96275
94985,96278
94986,96287
94974,96262
94993,96290
95075,96328
95041,96319
95096,96313
95032,96289
95060,96323
95155,96378
95120,96346
95127,96366
95090,96319
95140,96357
95219,96403
95182,96373
95196,96372
95151,96330
95188,96354
95254,96421
95246,96397
95261,96391
95222,96378
95262,96398
95337,96448
95290,96427
95309,96380
95256,96413
95280,96386
95356,96461
95344,96456
95336,96418
95318,96397
95305,96440
95387,96480
95355,96453
95348,96427
95318,96392
95393,96460
95448,96491
95391,96485
95369,96447
95391,96393
95415,96476
95435,96478
95453,96466
95415,96491
95422,96431
95449,96491
95545,96521
95488,96527
95475,96459
95442,96477
95499,96493
95565,96549
95515,96513
95525,96518
95483,96479
95522,96505
95597,96560
95562,96513
95515,96517
95507,96495
95573,96545
95595,96532
95612,96555
95574,96538
95563,96505
95626,96564
95623,96561
95649,96566
95617,96562
95597,96533
95664,96560
95732,96604
95675,96598
95686,96554
95682,96542
95715,96597
95772,96659
95723,96593
95774,96642
95719,96564
95744,96628
95748,96609
95698,96577
95622,96587
95512,96480
95531,96504
95444,96456
95333,96407
95200,96346
95071,96257
95039,96260
94955,96239
94849,96165
94705,96146
94556,96028
94532,96034
94482,96026
94326,95972
94247,95900
94103,95831
94087,95809
94035,95841
93879,95768
93852,95737
93758,95651
93702,95683
93729,95675
93676,95653
93586,95631
93536,95580
93599,95612
93593,95642
93582,95577
93547,95629
93500,95569
93618,95632
93620,95664
93614,95652
93620,95590
93622,95607
93663,95660
93749,95676
93720,95668
93708,95695
93687,95662
93782,95725
93803,95726
93813,95707
93822,95720
93818,95706
93874,95753
93928,95773
93900,95779
93941,95764
93898,95720
93924,95799
93987,95797
94017,95826
94000,95754
93989,95777
94061,95854
94074,95823
94075,95831
94049,95795
94048,95803
94133,95865
94176,95853
94192,95917
94154,95823
94140,95844
94213,95907
94239,95918
94231,95906
94180,95895
94167,95860
94265,95928
94263,95952
94227,95945
94234,95891
94197,95882
94281,95951
94248,95932
94240,95874
94225,95889
94188,95883
94257,95920
94282,95911
94230,95912
94222,95848
94202,95869
94251,95967
94227,95878
94248,95897
94164,95881
94142,95870
94210,95926
94226,95892
94178,95889
94226,95917
94182,95870
94222,95911
94265,95915
94205,95900
94179,95849
94184,95847
94246,95962
94228,95919
94255,95907
94216,95896
94203,95866
94268,95937
94288,95928
94295,95938
94260,95914
94272,95903
94324,95965
94330,95988
94374,95937
94293,95975
94299,95895
94411,96023
94383,96004
94435,96006
94402,95997
94371,95955
94492,96058
94497,96009
94477,96057
94505,96002
94490,96022
94569,96085
94563,96076
94579,96052
94566,96067
94561,96073
94641,96083
94671,96082
94680,96121
94674,96096
94658,96099
94739,96131
94773,96170
94738,96154
94726,96116
94758,96122
94792,96173
94820,96200
94807,96193
94833,96147
94790,96142
94862,96216
94883,96227
94877,96202
94858,96142
94892,96180
94916,96209
94917,96218
94939,96214
94944,96182
94946,96206
94986,96230
95044,96245
94999,96233
94974,96231
94979,96233
95076,96315
95065,96272
95114,96285
95062,96244
95035,96265
95125,96299
95152,96314
95093,96296
95119,96296
95128,96288
95136,96324
95200,96337
95191,96330
95104,96283
95143,96272
95207,96338
95184,96342
95224,96327
95146,96318
95197,96292
95238,96391
95243,96354
95235,96338
95206,96370
95226,96294
95330,96409
95273,96366
95250,96365
95258,96346
95266,96343
95344,96416
95324,96378
95337,96407
95295,96341
95337,96368
95377,96436
95350,96426
95386,96395
95327,96374
95360,96381
95406,96443
95402,96449
95417,96400
95364,96408
95391,96380
95475,96481
95457,96477
95448,96480
95430,96407
95520,96446
95507,96498
95556,96483
95556,96492
95533,96449
95493,96473
95557,96491
95518,96481
95434,96437
95406,96399
95302,96352
95296,96343
95156,96284
95069,96272
94918,96149
94895,96155
94797,96149
94671,96071
94598,96044
94423,95930
94349,95928
94282,95916
94191,95862
94086,95762
93998,95742
93884,95731
93834,95714
93767,95654
93731,95608
93593,95575
93528,95559
93590,95606
93507,95543
93466,95499
93382,95430
93431,95498
93439,95551
93391,95519
93374,95495
93390,95455
93384,95482
93448,95579
93421,95510
93462,95494
93417,95463
93479,95537
93574,95571
93540,95576
93541,95532
93549,95572
93578,95603
93621,95603
93653,95604
93641,95608
93650,95595
93671,95652
93732,95660
93719,95659
93788,95638
93718,95599
93757,95664
93871,95725
93809,95676
93852,95690
93781,95631
93888,95712
93913,95724
93921,95711
93895,95692
93882,95697
93955,95745
94007,95760
94029,95787
93996,95775
93964,95742
94079,95815
94077,95832
94079,95791
94108,95860
94058,95756
94138,95863
94142,95854
94140,95869
94121,95813
94097,95806
94119,95808
94197,95839
94142,95844
94131,95824
94073,95789
94134,95822
94157,95843
94155,95831
94124,95843
94036,95793
94131,95815
94137,95875
94099,95803
94102,95788
94053,95784
94093,95831
94163,95829
94107,95846
94079,95810
94075,95780
94083,95850
94144,95831
94110,95840
94083,95785
94103,95792
94109,95848
94174,95869
94125,95863
94145,95832
94127,95825
94145,95868
94222,95866
94187,95869
94207,95889
94160,95864
94208,95844
94292,95925
94279,95916
94243,95917
94220,95868
94343,95954
94361,95955
94357,95949
94339,95915
94332,95893
94407,95936
94459,96032
94423,95979
94453,95978
94413,95945
94496,96022
94527,96042
94497,96005
94538,96016
94476,95977
94584,96059
94624,96071
94568,96065
94585,96050
94582,96016
94630,96081
94696,96109
94678,96084
94666,96101
94646,96051
94732,96118
94781,96114
94746,96116
94756,96109
94738,96080
94792,96154
94817,96154
94813,96141
94809,96155
94752,96120
94859,96164
94871,96171
94899,96169
94849,96169
94829,96139
94872,96215
94949,96216
94909,96161
94929,96198
94870,96178
94946,96227
94982,96218
94947,96223
94961,96212
94926,96191
94998,96208
94997,96237
95024,96255
94998,96208
94988,96179
95039,96260
95064,96265
95037,96240
95059,96270
95028,96214
95085,96269
95094,96302
95085,96278
95049,96247
95052,96212
95155,96310
95155,96319
95113,96283
95143,96280
95089,96229
95186,96327
95213,96314
95172,96294
95144,96309
95129,96262
95193,96304
95219,96317
95217,96302
95198,96278
95212,96260
95247,96361
95255,96358
95270,96342
95241,96295
95213,96273
95283,96354
95293,96373
95277,96333
95318,96323
95275,96343
95326,96405
95335,96388
95307,96383
95322,96361
95278,96346
95377,96402
95406,96397
95391,96426
95392,96386
95339,96408
95464,96429
95480,96443
95422,96455
95471,96408
95463,96426
95493,96471
95546,96449
95532,96493
95527,96412
95534,96434
95597,96476
95625,96485
95574,96492
95555,96436
95540,96435
95535,96453
95542,96438
95435,96437
95352,96357
95212,96288
95194,96281
95104,96230
95015,96206
94875,96111
94743,96059
94697,96108
94580,96014
94494,95944
94341,95887
94217,95850
94168,95855
94042,95805
93948,95704
93812,95701
93748,95632
93703,95630
93622,95598
93557,95531
93410,95493
93363,95423
93387,95486
93314,95454
93305,95439
93244,95398
93260,95411
93233,95401
93245,95446
93205,95406
93219,95378
93227,95388
93241,95446
93293,95423
93267,95449
93277,95426
93265,95410
93364,95504
93379,95476
93392,95508
93373,95435
93421,95485
93450,95536
93517,95522
93476,95513
93498,95505
93484,95537
93593,95554
93588,95591
93591,95593
93544,95547
93595,95537
93645,95604
93678,95615
93694,95601
93667,95607
93639,95610
93747,95664
93768,95663
93732,95641
93709,95653
93725,95616
93831,95720
93828,95694
93834,95707
93816,95682
93862,95705
93919,95744
93924,95708
93955,95759
93877,95711
93914,95726
93959,95741
93957,95750
93941,95764
93881,95699
93906,95713
93949,95779
93971,95747
93916,95770
93876,95676
93896,95717
93946,95746
93927,95737
93870,95695
93862,95674
93816,95719
93891,95720
93887,95698
93875,95713
93795,95673
93839,95697
93893,95709
93916,95724
93854,95690
93805,95688
93845,95708
93888,95716
93906,95735
93879,95731
93869,95694
93858,95710
93958,95776
93929,95769
93941,95718
93907,95756
93930,95724
94004,95809
93969,95770
94021,95802
93928,95759
94009,95766
94070,95821
94053,95827
94064,95769
94070,95794
94065,95808
94153,95868
94130,95863
94146,95846
94105,95836
94130,95814
94239,95949
94225,95882
94224,95907
94216,95862
94227,95883
94320,95963
94292,95931
94342,95938
94291,95906
94332,95928
94397,95993
94375,95976
94407,95970
94383,95960
94425,95959
94507,96064
94511,96015
94479,96029
94477,95936
94531,96023
94558,96051
94585,96028
94552,96071
94565,95997
94586,96089
94674,96090
94680,96117
94659,96049
94654,96065
94672,96122
94728,96099
94741,96118
94756,96106
94715,96070
94712,96111
94831,96147
94800,96154
94771,96131
94760,96111
94770,96140
94879,96193
94821,96177
94841,96135
94770,96126
94798,96142
94914,96190
94837,96173
94864,96164
94852,96144
94873,96193
94922,96193
94908,96219
94910,96199
94862,96172
94907,96160
94972,96238
94973,96208
94931,96190
94917,96181
94937,96220
95032,96238
94984,96233
94980,96261
94953,96192
95003,96205
95084,96260
95059,96269
95066,96231
95016,96211
95060,96253
95144,96303
95112,96327
95111,96245
95080,96276
95151,96292
95177,96306
95186,96309
95166,96299
95165,96288
95214,96352
95282,96381
95258,96338
95222,96349
95228,96299
95254,96400
95313,96383
95283,96372
95299,96399
95255,96303
95335,96407
95342,96406
95378,96404
95397,96394
95332,96371
95426,96427
95438,96447
95463,96466
95426,96423
95448,96400
95476,96495
95562,96495
95524,96472
95525,96479
95539,96438
95582,96469
95615,96533
95640,96536
95627,96492
95613,96480
95648,96518
95724,96559
95730,96557
95665,96548
95674,96483
95688,96568
95714,96555
95668,96542
95573,96494
95435,96367
95454,96443
95358,96400
95230,96323
95124,96272
95009,96163
94939,96193
94894,96130
94747,96114
94647,96032
94483,95949
94457,95983
94348,95900
94285,95895
94112,95797
93983,95732
94004,95773
93954,95749
93809,95709
93745,95663
93665,95615
93663,95629
93641,95624
93579,95589
93517,95559
93473,95524
93504,95566
93500,95577
93502,95547
93477,95535
93410,95532
93540,95592
93510,95582
93547,95585
93527,95552
93532,95559
93563,95597
93616,95631
93641,95652
93653,95611
93620,95614
93681,95685
93710,95675
93758,95665
93720,95696
93725,95643
93833,95716
93868,95764
93821,95736
93890,95719
93827,95738
93911,95741
93934,95768
93933,95776
93962,95744
93938,95711
93966,95816
94033,95829
94019,95782
94023,95804
94011,95744
94057,95861
94110,95835
94113,95824
94103,95858
94147,95823
94201,95891
94230,95921
94208,95853
94213,95894
94185,95879
94245,95894
94284,95908
94245,95939
94200,95850
94189,95871
94263,95911
94246,95912
94273,95904
94166,95863
94179,95826
94246,95915
94229,95894
94184,95887
94206,95839
94150,95841
94183,95861
94186,95900
94154,95858
94124,95839
94117,95834
94174,95887
94124,95864
94124,95853
94116,95812
94045,95769
94124,95872
94148,95851
94078,95845
94073,95812
94040,95804
94085,95840
94114,95881
94129,95853
94067,95803
94076,95812
94142,95860
94116,95881
94153,95873
94123,95817
94076,95831
94183,95891
94194,95881
94173,95885
94186,95859
94150,95879
94223,95865
94205,95914
94218,95895
94225,95888
94207,95903
94310,95941
94307,95933
94283,95935
94265,95917
94288,95882
94327,95989
94336,95985
94380,95966
94364,95931
94350,95944
94397,96014
94431,95975
94434,96008
94431,95969
94417,95957
94514,96071
94467,96027
94492,96019
94471,96001
94471,96001
94574,96058
94552,96072
94577,96016
94526,96018
94566,96032
94642,96097
94616,96060
94596,96082
94599,96047
94609,96070
94650,96098
94631,96105
94647,96096
94657,96070
94651,96084
94694,96075
94706,96110
94658,96103
94691,96058
94679,96110
94753,96111
94738,96120
94739,96116
94690,96085
94708,96117
94739,96117
94732,96138
94727,96144
94683,96083
94745,96092
94794,96139
94790,96165
94756,96169
94713,96078
94746,96112
94804,96150
94828,96161
94782,96146
94757,96104
94736,96118
94834,96195
94828,96171
94826,96149
94781,96134
94768,96145
94860,96203
94817,96187
94850,96188
94820,96171
94805,96124
94872,96212
94908,96214
94887,96178
94830,96167
94868,96184
94902,96190
94911,96206
94910,96203
94860,96168
94919,96185
94968,96239
94934,96222
94924,96214
94911,96175
94949,96189
95000,96270
94989,96210
94998,96251
94951,96200
95048,96259
95018,96271
95045,96270
95054,96248
95024,96249
95049,96263
95095,96295
95153,96307
95102,96280
95103,96266
95128,96260
95154,96357
95125,96264
95110,96312
95037,96215
95021,96234
94980,96234
94919,96182
94810,96141
94689,96053
94585,96013
94551,96045
94448,95954
94350,95897
94214,95823
94105,95803
94072,95812
93934,95702
93829,95680
93731,95603
93630,95588
93603,95594
93489,95541
93403,95480
93262,95412
93251,95414
93214,95425
93174,95385
93101,95345
93022,95293
93024,95317
93043,95320
92985,95328
92981,95306
92929,95282
92990,95317
93052,95333
92983,95318
92999,95309
92915,95275
93015,95316
93092,95358
93058,95347
93079,95354
93016,95334
93100,95334
93141,95387
93135,95396
93138,95356
93122,95343
93149,95415
93235,95448
93196,95392
93208,95426
93147,95345
93261,95427
93291,95430
93278,95451
93291,95418
93245,95399
93272,95466
93351,95481
93293,95460
93322,95467
93284,95415
93310,95433
93381,95499
93386,95454
93385,95490
93323,95447
93387,95497
93455,95536
93436,95485
93424,95529
93382,95435
93435,95523
93482,95510
93438,95488
93427,95493
93402,95437
93423,95540
93457,95553
93418,95487
93426,95459
93365,95444
93418,95480
93421,95495
93406,95485
93381,95482
93302,95412
93380,95471
93393,95486
93314,95446
93348,95446
93290,95414
93342,95432
93334,95456
93278,95436
93299,95435
93236,95423
93257,95417
93288,95439
93307,95424
93275,95445
93182,95351
93310,95435
93315,95434
93280,95437
93290,95395
93244,95387
93323,95427
93363,95453
93307,95455
93329,95451
93250,95407
93349,95461
93394,95465
93370,95475
93363,95463
93344,95421
93433,95469
93472,95521
93402,95525
93449,95482
93387,95442
93478,95512
93511,95514
93526,95546
93534,95517
93471,95502
93554,95510
93609,95567
93547,95538
93603,95560
93564,95527
93617,95581
93668,95601
93620,95591
93679,95623
93642,95577
93712,95599
93777,95638
93742,95645
93765,95640
93719,95614
93814,95681
93815,95678
93860,95647
93812,95676
93824,95628
93879,95683
93934,95734
93881,95710
93901,95698
93848,95664
93955,95746
93957,95748
93978,95746
93971,95732
93946,95708
93989,95739
94032,95789
93998,95771
94012,95725
93970,95746
94022,95735
94068,95771
94048,95762
94017,95748
94037,95707
94046,95812
94079,95766
94052,95781
94073,95777
94048,95744
94085,95784
94143,95801
94087,95839
94092,95793
94034,95755
94124,95848
94171,95842
94101,95826
94124,95771
94086,95776
94194,95818
94181,95862
94160,95802
94166,95841
94131,95770
94232,95874
94204,95846
94212,95833
94187,95838
94145,95808
94299,95882
94297,95898
94253,95883
94232,95865
94224,95804
94287,95920
94287,95869
94274,95901
94300,95890
94278,95838
94343,95936
94381,95936
94325,95925
94368,95892
94326,95893
94396,95930
94456,95964
94400,95955
94398,95915
94377,95889
94487,95998
94486,95959
94461,95998
94457,95926
94460,95924
94503,95990
94520,96000
94498,95995
94508,95973
94536,96012
94575,95993
94595,96002
94599,96011
94537,96001
94562,95965
94622,96072
94661,96043
94673,96065
94645,96039
94635,96028
94678,96069
94699,96076
94711,96101
94713,96075
94689,96055
94764,96144
94771,96123
94811,96125
94765,96120
94772,96123
94816,96121
94864,96167
94787,96129
94777,96084
94707,96084
94728,96080
94656,96077
94532,95986
94452,95922
94362,95916
94315,95864
94172,95857
94091,95789
93969,95710
93878,95636
93809,95678
93691,95582
93598,95535
93474,95481
93372,95454
93352,95415
93262,95429
93135,95324
93044,95296
92993,95223
93011,95287
92920,95287
92857,95181
92781,95187
92720,95136
92751,95195
92755,95138
92703,95180
92653,95086
92647,95123
92712,95153
92677,95130
92683,95149
92643,95149
92694,95101
92704,95176
92704,95157
92754,95164
92707,95135
92736,95145
92841,95221
92800,95229
92833,95177
92807,95171
92835,95203
92884,95233
92930,95248
92903,95255
92861,95227
92876,95255
92960,95260
93020,95294
92940,95250
92966,95258
92969,95294
93016,95301
93006,95321
93056,95308
93017,95286
93041,95317
93096,95341
93109,95337
93111,95330
93099,95321
93121,95328
93174,95405
93203,95398
93158,95384
93188,95366
93196,95355
93272,95427
93249,95430
93234,95403
93207,95398
93237,95369
93277,95433
93252,95429
93247,95406
93219,95377
93240,95369
93237,95426
93253,95422
93216,95403
93209,95341
93236,95392
93220,95431
93201,95365
93224,95408
93189,95319
93189,95356
93209,95427
93210,95372
93182,95409
93146,95355
93180,95365
93235,95425
93227,95417
93181,95360
93192,95334
93152,95380
93247,95401
93220,95411
93194,95344
93173,95340
93175,95394
93241,95400
93219,95392
93226,95401
93197,95365
93226,95389
93285,95460
93227,95379
93290,95443
93240,95389
93283,95426
93293,95474
93317,95415
93310,95462
93279,95387
93315,95452
93383,95464
93389,95498
93379,95422
93371,95434
93395,95435
93451,95517
93420,95542
93463,95516
93425,95508
93480,95519
93502,95549
93523,95526
93538,95548
93485,95509
93574,95549
93574,95594
93592,95544
93616,95567
93576,95559
93616,95608
93656,95596
93639,95587
93614,95572
93638,95550
93693,95641
93714,95668
93721,95598
93718,95626
93682,95603
93719,95643
93799,95680
93757,95680
93804,95663
93734,95617
93774,95640
93832,95678
93811,95690
93827,95681
93759,95646
93859,95671
93882,95729
93856,95698
93866,95716
93824,95676
93888,95717
93931,95743
93917,95742
93915,95703
93907,95678
93933,95713
94014,95786
93957,95777
93956,95717
93949,95711
93989,95755
94034,95795
93980,95746
94051,95797
93960,95734
94026,95782
94074,95833
94073,95807
94067,95805
94072,95765
94064,95828
94116,95824
94087,95834
94146,95805
94076,95769
94143,95817
94192,95883
94134,95863
94164,95841
94118,95791
94148,95847
94246,95857
94196,95876
94199,95859
94155,95799
94190,95875
94226,95891
94239,95885
94231,95870
94219,95855
94261,95909
94303,95931
94256,95874
94243,95906
94257,95865
94314,95919
94326,95932
94325,95928
94302,95913
94293,95873
94300,95970
94365,95960
94354,95963
94357,95924
94298,95895
94404,95963
94430,95967
94436,95953
94410,95950
94389,95945
94463,96009
94476,96003
94493,96015
94485,95998
94435,95944
94507,96026
94540,96025
94543,96057
94561,96013
94540,96010
94610,96051
94662,96093
94582,96054
94627,96049
94590,96057
94637,96048
94668,96089
94621,96054
94573,96054
94486,95968
94531,96013
94461,95973
94356,95922
94280,95864
94171,95834
94140,95788
94085,95812
93939,95711
93855,95677
93691,95593
93711,95620
93611,95612
93529,95521
93433,95466
93286,95401
93313,95431
93232,95430
93148,95344
93093,95339
93008,95234
92997,95302
93001,95279
92917,95282
92895,95203
92829,95195
92885,95245
92835,95225
92801,95217
92767,95150
92782,95175
92796,95170
92811,95209
92811,95222
92808,95197
92777,95211
92870,95219
92905,95269
92907,95233
92862,95213
92856,95191
92937,95272
92923,95284
92947,95261
92930,95280
92901,95211
93004,95330
93008,95311
93015,95319
92983,95276
92956,95303
93080,95357
93055,95341
93043,95343
93065,95278
93058,95318
93135,95337
93120,95349
93100,95374
93078,95307
93102,95307
93143,95370
93129,95375
93170,95365
93136,95342
93161,95370
93166,95387
93227,95415
93213,95381
93200,95356
93138,95327
93249,95428
93209,95402
93235,95397
93211,95392
93198,95360
93237,95425
93234,95395
93219,95407
93192,95382
93205,95386
93264,95429
93234,95411
93239,95409
93190,95383
93201,95355
93233,95410
93250,95418
93226,95374
93183,95362
93186,95358
93210,95399
93247,95431
93187,95398
93194,95339
93138,95378
93212,95361
93218,95401
93222,95372
93184,95361
93178,95343
93235,95363
93233,95399
93214,95363
93221,95341
93164,95370
93267,95395
93286,95453
93238,95380
93265,95398
93229,95375
93323,95439
93334,95458
93339,95398
93312,95436
93314,95392
93403,95471
93398,95500
93352,95442
93418,95429
93379,95471
93452,95521
93473,95487
93447,95550
93422,95471
93492,95476
93512,95587
93545,95529
93522,95507
93533,95491
93542,95506
93594,95598
93588,95549
93581,95586
93556,95537
93599,95524
93687,95594
93680,95638
93677,95576
93689,95593
93657,95602
93763,95642
93750,95630
93735,95654
93718,95585
93750,95628
93823,95653
93824,95672
93828,95678
93782,95654
93808,95633
93874,95711
93882,95709
93877,95698
93851,95658
93893,95717
93936,95716
93961,95725
93913,95703
93950,95723
93954,95756
93995,95755
94034,95736
94020,95748
93961,95745
94007,95741
94060,95803
94097,95799
94029,95760
94033,95772
94059,95777
94107,95815
94112,95791
94119,95806
94080,95781
94145,95777
94194,95847
94153,95839
94188,95858
94129,95805
94200,95814
94210,95870
94255,95868
94221,95899
94188,95809
94274,95882
94267,95921
94278,95897
94293,95925
94255,95853
94338,95879
94336,95918
94384,95915
94366,95912
94322,95873
94331,95884
94406,95920
94410,95941
94405,95908
94366,95900
94411,95905
94475,95971
94481,95983
94476,95932
94445,95933
94475,95940
94543,95994
94488,95968
94479,95943
94516,95969
94500,95964
94565,96004
94602,96017
94554,96002
94567,95961
94603,95999
94649,96065
94646,96047
94645,96012
94651,96007
94682,96043
94715,96112
94679,96039
94715,96062
94692,96019
94711,96079
94754,96096
94779,96067
94757,96110
94741,96067
94748,96080
94832,96135
94789,96113
94839,96104
94792,96089
94844,96117
94899,96174
94883,96140
94868,96127
94857,96098
94909,96168
94977,96206
94937,96172
94968,96173
94934,96116
94973,96191
95047,96206
95033,96224
95054,96174
94975,96139
95010,96171
95010,96196
95010,96154
94953,96153
94819,96071
94791,96072
94815,96087
94707,96051
94643,95986
94526,95916
94510,95922
94482,95939
94403,95889
94340,95845
94220,95802
94243,95799
94175,95790
94122,95774
94041,95710
93990,95677
93979,95683
93970,95707
93889,95631
93820,95625
93755,95566
93793,95578
93783,95599
93715,95573
93715,95570
93616,95476
93697,95539
93708,95558
93655,95563
93666,95531
93631,95475
93672,95542
93706,95560
93653,95551
93674,95539
93673,95500
93716,95554
93753,95578
93733,95572
93743,95579
93712,95512
93782,95570
93802,95604
93797,95599
93800,95588
93751,95533
93801,95625
93858,95615
93824,95610
93834,95593
93806,95549
93849,95622
93894,95645
93857,95618
93906,95639
93830,95603
93896,95646
93969,95675
93943,95656
93941,95658
93917,95622
93964,95664
93996,95681
94004,95690
93976,95666
93939,95643
94014,95697
94053,95724
94022,95704
94021,95689
93989,95653
94056,95708
94082,95725
94046,95708
94056,95710
94004,95683
94037,95726
94079,95701
94059,95695
94048,95698
94020,95672
94061,95739
94096,95731
94098,95719
94088,95732
94031,95684
94089,95713
94069,95728
94080,95731
94056,95712
94049,95670
94084,95719
94111,95730
94071,95709
94087,95723
94018,95703
94101,95705
94131,95765
94102,95750
94078,95713
94067,95706
94139,95739
94147,95798
94121,95756
94115,95710
94136,95743
94186,95755
94205,95813
94179,95768
94171,95761
94165,95764
94227,95800
94242,95794
94239,95809
94218,95803
94201,95751
94281,95839
94288,95852
94287,95801
94263,95798
94231,95757
94335,95834
94324,95867
94313,95796
94320,95829
94272,95775
94367,95822
94411,95900
94385,95827
94371,95851
94375,95837
94423,95903
94443,95913
94450,95892
94417,95863
94419,95869
94493,95935
94476,95937
94525,95926
94471,95909
94450,95859
94519,95934
94534,95943
94533,95915
94552,95918
94481,95935
94560,95974
94602,95966
94574,95928
94592,95981
94533,95902
94603,95998
94665,95999
94687,95982
94644,95982
94591,95939
94676,96016
94723,96015
94685,95976
94679,95979
94693,95958
94747,96035
94729,96032
94772,96026
94749,96027
94734,95998
94775,96044
94822,96051
94809,96072
94780,96025
94768,96041
94841,96068
94870,96077
94817,96062
94802,96035
94813,96030
94906,96106
94907,96110
94877,96090
94900,96083
94882,96068
94941,96129
94960,96123
94931,96106
94922,96082
94917,96102
94997,96136
94981,96158
94982,96121
95002,96109
94972,96103
95047,96169
95051,96165
95060,96157
95045,96133
95051,96133
95112,96180
95131,96199
95089,96184
95086,96145
95069,96143
95160,96221
95156,96211
95149,96221
95146,96190
95131,96165
95192,96222
95182,96247
95186,96231
95194,96200
95188,96194
95236,96266
95251,96244
95251,96239
95263,96218
95246,96228
95282,96283
95321,96289
95341,96275
95286,96242
95341,96247
95353,96301
95368,96303
95356,96284
95351,96276
95370,96281
95415,96341
95437,96323
95418,96318
95362,96277
95352,96235
95373,96298
95344,96268
95287,96232
95194,96192
95158,96168
95165,96188
95106,96154
95031,96118
94967,96076
94931,96075
94944,96074
94885,96048
94839,96030
94781,95973
94750,95958
94750,95976
94678,95987
94667,95963
94609,95890
94566,95901
94603,95921
94546,95891
94537,95879
94450,95829
94455,95842
94488,95861
94482,95872
94444,95842
94373,95804
94384,95818
94433,95839
94413,95831
94416,95826
94377,95814
94391,95818
94439,95852
94419,95846
94414,95794
94372,95796
94393,95834
94455,95863
94430,95845
94433,95839
94391,95818
94422,95848
94480,95877
94457,95857
94440,95863
94388,95816
94457,95823
94462,95905
94474,95844
94470,95863
94446,95800
94430,95845
94497,95913
94469,95894
94448,95852
94451,95819
94468,95849
94501,95883
94526,95898
94518,95897
94510,95827
94487,95853
94612,95929
94537,95911
94568,95905
94526,95861
94541,95900
94556,95920
94605,95888
94548,95869
94511,95842
94526,95889
94568,95894
94598,95933
94584,95901
94508,95837
94520,95889
94595,95911
94576,95888
94521,95870
94500,95807
94559,95900
94591,95926
94555,95903
94559,95854
94504,95837
94513,95839
94595,95889
94550,95888
94561,95852
94501,95852
94504,95826
94579,95897
94512,95854
94531,95853
94520,95870
94532,95836
94593,95919
94549,95913
94561,95868
94526,95813
94546,95891
94605,95916
94586,95891
94594,95879
94527,95824
94563,95888
94638,95935
94598,95935
94570,95888
94596,95849
94610,95920
94669,95925
94624,95911
94668,95875
94630,95903
94647,95893
94698,95958
94658,95909
94683,95918
94635,95911
94729,95917
94732,95980
94741,95965
94757,95956
94671,95919
94732,95946
94769,95998
94740,95963
94764,95969
94720,95930
94810,95987
94836,96010
94798,95962
94836,95981
94765,95960
94826,96010
94858,95998
94853,96001
94868,96014
94823,95972
94876,96014
94940,96028
94884,96009
94890,96036
94898,95985
94934,96033
94951,96064
94940,96021
94939,96031
94943,96001
94980,96081
95022,96068
95007,96062
95003,96062
94958,96027
94996,96077
95057,96117
95029,96086
95006,96072
95005,96035
95057,96088
95094,96114
95074,96083
95073,96094
95010,96061
95099,96091
95132,96119
95120,96106
95110,96099
95036,96073
95154,96115
95174,96135
95156,96134
95171,96116
95122,96063
95160,96125
95206,96165
95189,96119
95187,96142
95127,96095
95209,96147
95232,96164
95218,96122
95219,96152
95181,96133
95258,96177
95262,96180
95288,96177
95281,96165
95216,96121
95301,96183
95344,96200
95330,96186
95307,96177
95263,96144
95338,96207
95365,96228
95372,96195
95352,96211
95317,96169
95357,96205
95422,96249
95394,96212
95396,96227
95375,96202
95417,96227
95457,96274
95437,96245
95466,96254
95433,96224
95499,96262
95512,96283
95507,96265
95527,96267
95491,96245
95539,96299
95574,96298
95529,96268
95564,96287
95508,96250
95584,96309
95622,96319
95602,96287
95620,96314
95586,96284
95657,96341
95669,96333
95666,96335
95671,96324
95612,96280
95719,96377
95747,96385
95725,96366
95721,96349
95703,96325
95776,96389
95804,96393
95763,96374
95778,96368
95746,96331
95800,96385
95814,96399
95785,96362
95721,96309
95665,96299
95664,96335
95666,96313
95596,96293
95490,96240
95442,96182
95454,96223
95438,96211
95381,96176
95277,96124
95244,96071
95235,96111
95201,96106
95180,96086
95121,96031
95025,95979
95079,96025
95066,96021
95003,95986
94956,95976
94896,95929
94942,95971
94877,95957
94876,95981
94855,95895
94744,95872
94838,95911
94849,95939
94783,95886
94797,95872
94745,95861
94794,95908
94792,95928
94797,95908
94773,95902
94759,95863
94783,95918
94813,95921
94794,95910
94795,95892
94732,95883
94792,95921
94812,95935
94767,95911
94806,95887
94748,95884
94819,95929
94810,95917
94778,95889
94774,95900
94747,95872
94838,95943
94831,95923
94791,95926
94789,95894
94755,95880
94835,95921
94849,95944
94817,95926
94795,95907
94752,95886
94834,95932
94835,95951
94819,95942
94804,95893
94771,95890
94857,95948
94874,95944
94838,95927
94796,95900
94785,95866
94868,95953
94881,95961
94871,95925
94839,95903
94775,95887
94846,95947
94854,95925
94853,95950
94827,95906
94788,95876
94856,95936
94848,95936
94847,95917
94813,95892
94760,95880
94840,95937
94833,95924
94825,95917
94782,95885
94751,95876
94828,95924
94827,95895
94818,95907
94764,95870
94783,95873
94834,95926
94812,95909
94810,95902
94770,95866
94784,95895
94875,95931
94826,95913
94819,95924
94784,95881
94803,95897
94888,95940
94870,95953
94857,95921
94803,95888
94823,95873
94890,95925
94899,95933
94860,95911
94860,95886
94843,95901
94920,95974
94914,95939
94892,95937
94893,95944
94897,95890
94930,95975
94959,95956
94956,95933
94909,95940
94933,95956
94987,95995
94967,95998
95011,95991
94932,95963
94941,95958
95053,96018
95042,95997
95070,95977
95013,95995
95011,95945
95102,96040
95103,96051
95076,96014
95059,95974
95057,95975
95160,96055
95138,96029
95152,96049
95092,96037
95153,96009
95205,96083
95194,96094
95175,96066
95172,96016
95167,96025
95247,96087
95215,96096
95226,96044
95239,96085
95218,96053
95293,96140
95291,96111
95284,96072
95265,96067
95248,96058
95335,96149
95311,96153
95322,96086
95286,96104
95307,96075
95351,96140
95343,96116
95353,96121
95336,96129
95359,96095
95405,96197
95420,96129
95395,96158
95364,96072
95418,96165
95431,96198
95438,96153
95459,96144
95392,96157
95423,96151
95484,96207
95506,96212
95477,96187
95423,96153
95508,96171
95528,96214
95551,96215
95537,96194
95459,96172
95530,96203
95552,96231
95583,96212
95586,96220
95485,96184
95540,96225
95634,96236
95610,96253
95600,96245
95586,96185
95612,96217
95706,96307
95655,96247
95676,96255
95623,96241
95682,96239
95730,96296
95682,96283
95722,96248
95661,96271
95733,96284
95758,96342
95750,96295
95760,96275
95706,96301
95753,96310
95796,96336
95786,96341
95765,96327
95766,96276
95804,96307
95881,96374
95842,96337
95884,96368
95835,96326
95878,96359
95905,96397
95930,96407
95896,96373
95877,96343
95919,96409
95994,96444
95959,96407
96025,96400
95924,96409
96032,96425
96085,96485
96058,96475
96042,96429
96040,96416
96059,96431
96124,96486
96084,96459
96107,96446
96057,96442
96108,96451
96084,96491
96032,96446
96011,96426
95919,96331
95913,96367
95924,96393
95852,96324
95822,96319
95728,96277
95739,96283
95729,96301
95672,96248
95593,96238
95544,96165
95527,96204
95565,96211
95470,96141
95465,96142
95359,96100
95388,96133
95389,96119
95331,96122
95291,96072
95271,95997
95251,96070
95281,96092
95267,96076
95200,96075
95178,95983
95196,96025
95250,96065
95188,96048
95209,96051
95115,96030
95175,96068
95248,96103
95201,96074
95203,96057
95174,96043
95237,96077
95244,96106
95239,96052
95250,96060
95194,96029
95231,96080
95279,96098
95294,96089
95218,96093
95203,96016
95243,96088
95306,96109
95243,96102
95230,96044
95227,96082
95286,96108
95285,96112
95292,96115
95253,96100
95255,96053
95313,96141
95308,96120
95313,96136
95314,96117
95253,96079
95335,96138
95395,96150
95330,96096
95366,96132
95313,96113
95373,96133
95404,96130
95353,96176
95381,96152
95353,96139
95361,96142
95424,96154
95376,96165
95404,96161
95350,96088
95405,96178
95451,96162
95400,96169
95403,96158
95376,96106
95404,96133
95438,96179
95379,96165
95397,96182
95370,96074
95415,96183
95437,96193
95424,96187
95395,96120
95367,96128
95423,96165
95434,96173
95431,96168
95405,96158
95398,96124
95452,96188
95451,96195
95464,96198
95410,96159
95409,96156
95473,96191
95515,96200
95483,96206
95478,96138
95451,96177
95492,96213
95551,96223
95484,96225
95519,96211
95474,96142
95566,96239
95597,96263
95576,96217
95570,96232
95544,96212
95587,96253
95658,96262
95612,96253
95625,96248
95590,96207
95644,96281
95658,96300
95668,96273
95637,96262
95592,96232
95698,96280
95748,96340
95725,96277
95703,96293
95703,96248
95750,96320
95788,96336
95773,96311
95729,96311
95743,96282
95836,96338
95809,96380
95831,96351
95800,96333
95791,96344
95843,96364
95873,96370
95841,96410
95875,96381
95875,96325
95927,96416
95901,96356
95907,96411
95926,96379
95875,96341
95993,96431
95960,96431
95960,96418
95973,96410
95921,96370
95980,96437
96018,96470
96007,96427
95971,96390
95994,96392
96051,96449
96053,96455
96005,96462
96041,96419
95995,96449
96072,96450
96087,96474
96051,96460
96052,96421
96021,96462
96077,96488
96126,96487
96132,96480
96061,96471
96082,96418
96145,96496
96113,96497
96142,96499
96102,96460
96128,96485
96161,96529
96191,96535
96156,96510
96124,96456
96162,96462
96209,96552
96204,96505
96190,96505
96165,96527
96154,96498
96236,96518
96217,96575
96251,96556
96161,96480
96202,96514
96271,96534
96217,96570
96248,96534
96226,96521
96223,96497
96272,96562
96306,96551
96260,96530
96254,96518
96251,96503
96314,96587
96328,96572
96305,96563
96293,96521
96271,96517
96353,96558
96351,96557
96343,96580
96330,96538
96289,96532
96372,96577
96408,96613
96383,96581
96327,96548
96350,96555
96420,96608
96384,96591
96421,96626
96395,96564
96357,96560
96439,96601
96406,96650
96408,96600
96373,96551
96292,96526
96364,96591
96360,96559
96266,96522
96225,96479
96182,96498
96157,96482
96171,96474
96081,96437
96039,96371
95923,96363
96008,96372
95910,96372
95869,96334
95780,96245
95766,96275
95778,96325
95771,96249
95708,96231
95652,96196
95599,96189
95640,96236
95597,96201
95587,96166
95491,96139
95500,96139
95541,96177
95540,96185
95498,96157
95482,96147
95430,96132
95497,96147
95491,96134
95488,96137
95449,96110
95418,96129
95488,96127
95486,96168
95469,96147
95402,96097
95447,96098
95504,96184
95463,96111
95454,96127
95433,96119
95393,96102
95471,96124
95450,96164
95423,96127
95427,96074
95423,96117
95483,96134
95424,96148
95401,96103
95396,96084
95406,96103
95440,96110
95442,96138
95396,96110
95411,96064
95407,96136
95434,96112
95461,96120
95411,96105
95376,96078
95378,96085
95472,96137
95435,96122
95442,96101
95401,96040
95441,96100
95460,96175
95499,96111
95458,96103
95438,96046
95440,96134
95496,96149
95469,96108
95438,96121
95377,96051
95435,96084
95453,96150
95481,96101
95446,96107
95401,96041
95451,96113
95445,96122
95447,96129
95417,96093
95351,96073
95391,96062
95466,96113
95437,96123
95412,96083
95399,96046
95377,96090
95447,96084
95402,96113
95388,96085
95389,96031
95424,96082
95489,96121
95412,96101
95442,96081
95390,96069
95400,96083
95477,96095
95445,96129
95458,96098
95387,96080
95467,96078
95514,96165
95487,96075
95470,96103
95413,96067
95499,96114
95542,96124
95497,96133
95503,96112
95460,96054
95541,96114
95548,96173
95567,96131
95553,96140
95497,96131
95549,96104
95582,96176
95592,96176
95590,96151
95538,96104
95583,96127
95660,96210
95588,96149
95612,96176
95576,96113
95659,96169
95687,96238
95684,96156
95662,96195
95620,96134
95687,96220
95693,96215
95718,96241
95690,96200
95654,96133
95715,96235
95789,96259
95736,96229
95735,96224
95715,96198
95729,96255
95793,96250
95800,96255
95780,96241
95749,96175
95805,96213
95846,96303
95797,96250
95824,96273
95801,96198
95848,96281
95834,96255
95873,96305
95854,96291
95810,96240
95844,96266
95927,96314
95855,96258
95899,96277
95830,96212
95944,96313
95934,96347
95935,96307
95932,96287
95904,96235
95959,96304
95985,96357
95988,96303
95956,96330
95923,96260
95982,96321
96005,96368
95982,96320
96033,96357
95934,96291
95993,96346
96072,96349
96015,96357
96038,96308
95993,96322
96047,96358
96114,96356
96084,96410
96071,96343
96055,96331
96102,96367
96153,96415
96094,96380
96120,96356
96092,96334
96159,96417
96212,96404
96143,96408
96166,96380
96120,96363
96180,96390
96226,96449
96198,96406
96186,96408
96141,96387
96226,96405
96281,96450
96264,96424
96238,96413
96246,96392
96250,96443
96297,96422
96264,96436
96283,96434
96250,96422
96298,96470
96361,96426
96282,96461
96305,96429
96234,96414
96328,96422
96357,96509
96356,96475
96340,96435
96310,96426
96337,96474
96423,96531
96416,96466
96384,96469
96331,96463
96457,96510
96450,96479
96418,96511
96429,96492
96415,96447
96466,96533
96493,96526
96482,96535
96480,96497
96439,96492
96481,96526
96527,96548
96468,96528
96464,96471
96377,96433
96436,96479
96398,96505
96370,96455
96317,96412
96251,96376
96247,96399
96262,96406
96171,96341
96128,96315
96044,96245
96103,96319
96039,96321
95957,96260
95969,96215
95840,96204
95891,96240
95877,96250
95798,96187
95786,96143
95701,96123
95776,96172
95766,96193
95728,96123
95712,96118
95629,96046
95733,96129
95690,96170
95698,96087
95660,96077
95561,96068
95659,96112
95687,96163
95684,96127
95610,96060
95640,96057
95669,96160
95689,96127
95696,96106
95629,96107
95600,96085
95653,96104
95693,96161
95677,96143
95661,96107
95633,96067
95692,96129
95682,96154
95635,96129
95652,96109
95631,96077
95681,96142
95714,96113
95694,96115
95629,96105
95632,96075
95697,96121
95682,96163
95672,96110
95672,96114
95596,96094
95689,96116
95744,96181
95708,96145
95709,96107
95621,96099
95739,96110
95745,96185
95700,96154
95697,96093
95666,96130
95694,96136
95771,96168
95703,96149
95707,96087
95690,96071
