11111,11111
0,0
80158,79668
98379,96393
98385,96390
98340,96383
98354,96433
98411,96399
98420,96428
98420,96356
98387,96406
98436,96449
98456,96433
98454,96405
98446,96444
98448,96424
98532,96454
98484,96428
98490,96485
98506,96435
98498,96430
98545,96458
98551,96419
98524,96474
98559,96480
98548,96450
98616,96489
98611,96507
98631,96502
98659,96493
98624,96454
98687,96541
98684,96512
98721,96516
98719,96489
98683,96521
98727,96555
98782,96543
98769,96563
98760,96535
98754,96542
98785,96514
98775,96581
98818,96554
98800,96532
98808,96547
98838,96528
98837,96584
98849,96562
98830,96551
98877,96582
98865,96581
98914,96608
98915,96584
98886,96581
98941,96603
98955,96624
98943,96631
98998,96596
98956,96598
99003,96663
99035,96619
99053,96663
99050,96620
99023,96671
99059,96665
99055,96687
99101,96657
99065,96707
99105,96702
99116,96678
99151,96665
99111,96669
99138,96728
99138,96687
99132,96694
99164,96704
99169,96710
99214,96754
99173,96693
99187,96745
99204,96732
99237,96757
99257,96719
99238,96722
99238,96770
99264,96724
99305,96791
99327,96789
99322,96739
99277,96792
99334,96789
99298,96753
99343,96786
99354,96789
99357,96790
99378,96815
99425,96818
99395,96821
99389,96824
99419,96816
99424,96827
99433,96852
99475,96837
99448,96818
99481,96854
99504,96862
99505,96827
99502,96863
99533,96883
99498,96846
99548,96893
99537,96864
99527,96870
99499,96835
99562,96894
99581,96901
99552,96877
99558,96833
99487,96873
99522,96850
99495,96811
99469,96812
99438,96822
99340,96782
99369,96784
98365,96335
98432,96362
98426,96390
98610,96461
98557,96436
98608,96441
98689,96494
98709,96457
98679,96474
98672,96476
98806,96546
98859,96563
98835,96572
98863,96527
98884,96583
98951,96560
98947,96578
98954,96596
98934,96608
98965,96586
98994,96656
99035,96627
99025,96639
99037,96641
99030,96624
99043,96645
99072,96671
99097,96661
99115,96645
99102,96649
99091,96653
99159,96683
99160,96658
99140,96643
99169,96679
99210,96699
99222,96704
99197,96682
99193,96702
99236,96724
99264,96731
99270,96728
99296,96769
99293,96693
99263,96726
99312,96762
99340,96729
99332,96731
99338,96742
99328,96744
99350,96754
99384,96779
99389,96773
99358,96766
99367,96794
99435,96794
99440,96793
99451,96799
99418,96804
99419,96789
99501,96848
99471,96813
99495,96817
99478,96841
99478,96786
99541,96840
99543,96842
99533,96841
99511,96862
99541,96837
99539,96820
99580,96885
99579,96848
99541,96873
99609,96872
99631,96888
99617,96847
99627,96898
99611,96899
99661,96902
99706,96897
99675,96952
99718,96892
99730,96934
99744,96956
99723,96956
99772,96945
99757,96890
99761,96964
99813,96966
99853,96983
99844,96970
99853,97035
99891,97008
99877,97008
99917,97023
99897,97042
99906,97003
99915,97015
99947,97020
99956,97028
99972,97026
99962,97013
99975,97056
99989,97050
100040,97052
100007,97075
100019,97050
100004,97066
100055,97056
100105,97121
100042,97074
100082,97111
100065,97082
100122,97086
100124,97097
100119,97074
100125,97126
100152,97119
100148,97118
100186,97142
100206,97106
100225,97128
100176,97151
100231,97128
100249,97162
100268,97159
100296,97177
100229,97138
100313,97210
100356,97176
100332,97205
100350,97212
100354,97169
100330,97191
100383,97211
100342,97158
100336,97176
100257,97156
100262,97153
100246,97131
100188,97078
100142,97114
100055,97054
100047,97031
100013,97023
99922,96995
99837,96970
99758,96945
99734,96907
99685,96908
99623,96861
99549,96832
99490,96791
99444,96807
99435,96789
99354,96757
99287,96724
99231,96694
99244,96717
99237,96667
99151,96668
99124,96654
99112,96637
99070,96638
99051,96660
99050,96618
99040,96641
99005,96605
99010,96593
99022,96601
99000,96625
99023,96608
98999,96595
99020,96614
99006,96613
99001,96620
99047,96653
99008,96603
99027,96648
99042,96642
99014,96592
99053,96650
99052,96599
99037,96626
99081,96627
99071,96647
99081,96632
99021,96599
99068,96652
99105,96631
99069,96662
99071,96625
99035,96653
99083,96639
99089,96621
99062,96662
99084,96625
99049,96642
99094,96658
99089,96644
99090,96640
99118,96693
99120,96650
99176,96657
99183,96672
99184,96693
99188,96694
99147,96650
99207,96683
99196,96722
99237,96701
99251,96700
99219,96702
99278,96729
99263,96735
99270,96717
99261,96701
99215,96715
99283,96698
99291,96699
99208,96702
99259,96715
99225,96693
99241,96715
99276,96735
99268,96697
99247,96694
99216,96707
99252,96711
99260,96730
99254,96683
99217,96665
99217,96699
99240,96708
99226,96709
99266,96703
99219,96666
99171,96720
99224,96702
99249,96692
99210,96714
99215,96698
99233,96689
99219,96684
99255,96703
99220,96688
99234,96691
99230,96718
99252,96675
99269,96713
99268,96707
99262,96747
99264,96704
99291,96707
99289,96736
99309,96708
99316,96700
99300,96729
99340,96736
99348,96762
99318,96703
99354,96758
99325,96766
99377,96749
99403,96782
99381,96733
99348,96765
99362,96753
99392,96749
99397,96754
99390,96797
99400,96783
99381,96751
99430,96764
99451,96771
99405,96758
99434,96736
99398,96794
99445,96755
99449,96743
99416,96795
99430,96754
99409,96747
99444,96816
99503,96801
99451,96754
99472,96766
99444,96772
99485,96780
99491,96786
99451,96751
99458,96795
99459,96779
99516,96769
99481,96782
99539,96807
99511,96761
99519,96809
99510,96795
99508,96813
99548,96837
99513,96781
99497,96766
99512,96801
99521,96808
99530,96801
99508,96794
99499,96776
99560,96802
99549,96788
99525,96788
99539,96781
99505,96816
99585,96825
99551,96768
99529,96805
99571,96826
99545,96799
99536,96834
99572,96836
99559,96768
99540,96811
99542,96802
99593,96824
99588,96815
99592,96815
99548,96846
99603,96830
99632,96833
99594,96842
99630,96812
99597,96810
99591,96872
99629,96830
99632,96820
99608,96820
99563,96848
99631,96825
99610,96799
99621,96837
99601,96831
99612,96796
99614,96832
99649,96850
99663,96809
99656,96855
99636,96806
99628,96827
99686,96846
99651,96849
99673,96841
99654,96823
99709,96858
99754,96858
99681,96830
99751,96896
99725,96809
99730,96878
99741,96862
99746,96860
99749,96874
99719,96862
99734,96871
99732,96863
99683,96836
99632,96841
99579,96799
99578,96762
99515,96768
99455,96731
99393,96690
99322,96684
99274,96633
99226,96630
99118,96590
99068,96559
98974,96532
98921,96493
98899,96489
98817,96455
98757,96412
98653,96402
98587,96373
98558,96342
98492,96334
98472,96286
98392,96251
98369,96266
98378,96251
98288,96216
98292,96249
98260,96233
98232,96227
98258,96227
98242,96202
98242,96187
98184,96167
98222,96189
98219,96208
98202,96190
98185,96185
98154,96211
98218,96220
98238,96206
98226,96189
98230,96229
98200,96217
98217,96227
98259,96240
98215,96211
98199,96244
98193,96215
98233,96231
98192,96200
98205,96237
98223,96198
98157,96170
98187,96230
98184,96197
98200,96247
98166,96180
98166,96193
98195,96209
98176,96219
98142,96226
98176,96197
98135,96172
98156,96207
98140,96241
98165,96190
98143,96237
98157,96209
98191,96198
98175,96227
98161,96202
98157,96195
98120,96194
98157,96205
98177,96214
98113,96180
98158,96221
98129,96212
98147,96190
98164,96180
98101,96218
98149,96179
98126,96198
98135,96189
98147,96202
98104,96158
98067,96205
98076,96181
98106,96190
98092,96154
98044,96171
98050,96159
98005,96143
98052,96145
98020,96132
97999,96112
97953,96140
97929,96118
97993,96115
97953,96072
97967,96136
97935,96107
97917,96100
97962,96094
97965,96077
97929,96099
97948,96100
97915,96076
97969,96098
97978,96103
97971,96103
97937,96116
97974,96129
97980,96110
97989,96145
98018,96124
98028,96110
97994,96104
98072,96166
98025,96162
98065,96147
98050,96141
98011,96124
98076,96177
98098,96146
98066,96150
98056,96151
98096,96141
98100,96148
98074,96180
98123,96165
98082,96192
98091,96169
98137,96180
98160,96187
98123,96208
98164,96199
98175,96187
98188,96186
98199,96229
98233,96189
98184,96210
98232,96230
98256,96235
98269,96230
98272,96199
98222,96205
98276,96248
98296,96219
98329,96253
98281,96241
98259,96251
98329,96242
98302,96224
98288,96283
98328,96242
98337,96258
98336,96282
98407,96287
98320,96244
98379,96297
98348,96285
98386,96287
98373,96270
98418,96264
98381,96305
98399,96286
98394,96285
98452,96320
98447,96263
98409,96324
98420,96325
98446,96301
98480,96332
98503,96337
98482,96274
98453,96310
98496,96368
98537,96327
98522,96341
98527,96341
98490,96343
98508,96339
98530,96351
98504,96361
98538,96336
98492,96349
98543,96350
98561,96365
98563,96341
98550,96377
98551,96332
98588,96383
98617,96388
98621,96353
98614,96411
98611,96392
98640,96410
98669,96413
98697,96418
98648,96423
98641,96430
98687,96430
98719,96438
98720,96420
98709,96445
98713,96435
98734,96396
98724,96446
98744,96425
98717,96423
98656,96405
98685,96421
98670,96407
98606,96376
98573,96353
98479,96325
98461,96302
98354,96257
98337,96266
98280,96208
98135,96160
98117,96162
98056,96142
98000,96081
97893,96039
97802,96027
97785,95998
97735,95999
97656,95958
97574,95948
97540,95934
97505,95899
97464,95894
97444,95876
97375,95850
97324,95810
97312,95877
97337,95834
97303,95848
97292,95840
97229,95852
97269,95798
97247,95801
97255,95828
97244,95834
97229,95812
97258,95808
97233,95808
97222,95842
97263,95829
97228,95814
97220,95831
97230,95843
97214,95817
97196,95849
97188,95820
97202,95838
97203,95804
97179,95804
97194,95767
97108,95777
97143,95801
97147,95772
97114,95757
97091,95771
97093,95745
97059,95758
97074,95767
97067,95753
97038,95751
97021,95702
96994,95763
97048,95751
97008,95717
97040,95727
96989,95750
97066,95750
97070,95731
97067,95742
97106,95790
97107,95747
97131,95770
97126,95801
97143,95778
97139,95758
97122,95795
97176,95801
97190,95778
97179,95818
97207,95783
97130,95770
97174,95809
97198,95789
97199,95793
97143,95760
97102,95802
97171,95792
97171,95777
97183,95794
97181,95794
97106,95740
97172,95802
97167,95781
97147,95784
97152,95789
97154,95776
97156,95825
97186,95787
97144,95777
97195,95794
97140,95801
97172,95808
97201,95785
97204,95829
97221,95799
97217,95821
97212,95837
97222,95842
97250,95849
97228,95784
97213,95856
97268,95830
97299,95855
97263,95876
97302,95855
97292,95824
97297,95875
97354,95879
97326,95856
97351,95884
97377,95859
97372,95903
97401,95874
97396,95888
97366,95880
97433,95917
97408,95874
97399,95927
97464,95945
97436,95922
97473,95930
97501,95926
97486,95928
97511,95961
97501,95915
97527,95929
97537,95962
97591,95965
97558,95986
97587,95962
97576,95943
97653,96028
97629,96002
97672,95998
97627,95991
97652,95998
97720,96059
97702,96021
97724,96040
97712,96040
97718,96042
97737,96033
97762,96089
97762,96076
97761,96072
97779,96075
97798,96071
97797,96049
97840,96109
97798,96050
97824,96085
97816,96100
97869,96114
97805,96069
97813,96100
97823,96087
97874,96104
97888,96130
97864,96057
97876,96101
97894,96120
97919,96123
97918,96118
97909,96122
97937,96109
97915,96153
97984,96130
97972,96123
97947,96151
97933,96145
97975,96117
97987,96174
98025,96185
97994,96149
97977,96152
98023,96145
98042,96202
98054,96198
98057,96162
98039,96185
98060,96199
98094,96219
98091,96180
98110,96238
98128,96172
98113,96211
98140,96224
98165,96226
98143,96230
98166,96211
98143,96211
98162,96256
98219,96260
98227,96246
98159,96264
98241,96240
98207,96238
98256,96232
98244,96263
98230,96268
98269,96253
98273,96284
98226,96285
98300,96249
98271,96266
98327,96265
98321,96263
98299,96308
98348,96315
98329,96322
98358,96323
98391,96317
98400,96342
98423,96329
98404,96319
98390,96335
98427,96334
98375,96313
98379,96298
98301,96276
98276,96267
98244,96244
98186,96229
98102,96182
98020,96157
97951,96116
97866,96100
97798,96052
97711,96004
97612,95997
97566,95971
97516,95944
97426,95908
97336,95867
97249,95863
97183,95835
97170,95817
97084,95776
97038,95746
96944,95709
96927,95726
96907,95702
96863,95690
96829,95682
96792,95656
96773,95647
96768,95657
96753,95635
96719,95619
96691,95602
96730,95621
96754,95649
96702,95623
96673,95612
96672,95603
96701,95610
96680,95624
96690,95609
96689,95629
96640,95614
96677,95641
96682,95631
96661,95630
96660,95612
96640,95601
96651,95624
96671,95642
96657,95602
96620,95604
96613,95587
96592,95570
96573,95610
96595,95609
96586,95597
96571,95599
96553,95585
96584,95601
96586,95564
96554,95565
96544,95539
96622,95616
96652,95599
96604,95579
96603,95606
96602,95592
96661,95597
96650,95628
96661,95640
96656,95614
96655,95619
96724,95637
96742,95652
96751,95656
96748,95667
96760,95678
96756,95642
96766,95706
96794,95689
96818,95682
96763,95682
96828,95700
96830,95646
96822,95689
96809,95685
96833,95724
96875,95689
96854,95682
96849,95695
96833,95693
96789,95718
96852,95683
96799,95700
96821,95687
96831,95682
96777,95657
96804,95662
96786,95675
96784,95666
96752,95649
96737,95631
96750,95682
96762,95661
96766,95628
96762,95606
96720,95673
96766,95640
96790,95631
96774,95641
96760,95647
96774,95662
96846,95707
96874,95660
96867,95702
96884,95682
96894,95697
96914,95690
96939,95712
96956,95736
96950,95724
96954,95735
97027,95746
97028,95730
97033,95779
97007,95744
97031,95799
97055,95741
97112,95792
97095,95778
97093,95793
97119,95821
97147,95775
97141,95830
97179,95836
97178,95825
97199,95853
97226,95833
97221,95825
97257,95862
97242,95861
97304,95908
97289,95851
97296,95871
97324,95882
97329,95876
97330,95890
97378,95885
97382,95880
97387,95901
97385,95906
97383,95935
97427,95914
97455,95961
97467,95932
97416,95923
97452,95977
97483,95924
97518,95974
97530,95987
97507,95946
97522,95988
97588,96016
97602,95968
97592,95993
97598,95983
97578,96022
97646,96021
97670,96001
97669,96019
97654,96034
97700,96049
97682,96004
97697,96076
97732,96064
97680,96057
97757,96077
97757,96037
97762,96032
97781,96072
97753,96078
97775,96109
97835,96109
97839,96121
97821,96089
97823,96086
97835,96087
97901,96145
97895,96116
97898,96127
97882,96134
97937,96186
97966,96147
97977,96157
97977,96148
97932,96157
97991,96168
98028,96175
98012,96151
98038,96183
98039,96210
98083,96206
98083,96230
98125,96266
98125,96235
98129,96250
98162,96245
98222,96245
98210,96258
98219,96283
98191,96286
98243,96291
98250,96294
98298,96296
98266,96287
98242,96278
98271,96322
98327,96326
98317,96306
98347,96331
98341,96324
98359,96348
98368,96379
98412,96383
98401,96370
98363,96344
98400,96392
98485,96392
98465,96353
98476,96428
98435,96364
98496,96420
98529,96427
98508,96432
98562,96419
98532,96393
98597,96432
98582,96453
98589,96459
98633,96466
98594,96422
98584,96477
98633,96441
98574,96434
98562,96412
98493,96397
98509,96384
98420,96342
98340,96307
98281,96275
98177,96230
98089,96245
98039,96197
97945,96134
97844,96111
97726,96083
97693,96044
97563,95977
97474,95955
97460,95954
97315,95902
97274,95870
97218,95866
97150,95791
97080,95819
97058,95768
97029,95764
96975,95761
96950,95755
96896,95725
96854,95700
96875,95738
96855,95731
96848,95701
96838,95711
96792,95687
96846,95707
96805,95692
96828,95703
96793,95682
96769,95708
96840,95703
96797,95675
96759,95696
96800,95688
96784,95686
96815,95691
96832,95674
96809,95664
96764,95701
96755,95690
96791,95682
96798,95692
96788,95689
96772,95689
96755,95671
96746,95682
96766,95694
96722,95687
96749,95644
96724,95633
96713,95677
96746,95657
96717,95659
96766,95688
96733,95632
96744,95705
96786,95698
96793,95679
96758,95680
96790,95664
96812,95715
96861,95755
96850,95708
96865,95696
96840,95720
96915,95743
96922,95717
96875,95709
96875,95711
96881,95715
96880,95716
96901,95714
96885,95751
96905,95726
96885,95696
96919,95731
96917,95736
96935,95734
96876,95681
96863,95747
96923,95739
96905,95722
96921,95716
96903,95690
96877,95675
96894,95721
96932,95747
96910,95724
96916,95707
96893,95756
96961,95734
96960,95709
96961,95730
96970,95724
96985,95751
96971,95752
96982,95769
96977,95750
96957,95737
97011,95756
97001,95763
97003,95763
96994,95777
97048,95751
97018,95739
97033,95768
97038,95778
97088,95790
97043,95752
97039,95793
97100,95815
97091,95805
97124,95797
97061,95755
97093,95820
97167,95849
97174,95804
97174,95824
97181,95827
97192,95837
97242,95867
97248,95868
97285,95874
97291,95856
97301,95864
97335,95889
97340,95899
97375,95942
97381,95905
97426,95939
97436,95960
97404,95969
97456,95964
97444,95925
97477,95953
97523,95952
97529,95969
97537,96013
97520,95944
97547,95986
97576,96022
97608,95995
97595,96015
97589,95999
97604,96032
97660,96027
97661,96016
97645,96052
97637,96016
97645,96058
97706,96066
97713,96007
97688,96066
97679,96065
97709,96062
97739,96074
97733,96076
97743,96045
97727,96058
97778,96070
97807,96087
97789,96080
97813,96083
97795,96101
97827,96134
97833,96113
97858,96122
97864,96118
97854,96127
97884,96147
97939,96143
97920,96132
97962,96151
97904,96128
97964,96164
97956,96171
97932,96165
97983,96174
97960,96155
97974,96201
98001,96193
98020,96165
98018,96168
98007,96171
98040,96215
98095,96236
98079,96194
98073,96205
98071,96204
98076,96233
98174,96248
98143,96206
98157,96232
98141,96216
98176,96251
98219,96260
98200,96269
98202,96271
98175,96268
98241,96307
98265,96297
98311,96316
98280,96277
98221,96283
98291,96335
98277,96293
98306,96320
98318,96310
98301,96332
98335,96372
98388,96314
98351,96326
98395,96347
98394,96368
98409,96347
98401,96349
98409,96382
98453,96374
98404,96402
98469,96410
98490,96407
98504,96391
98481,96415
98511,96426
98535,96402
98547,96415
98535,96406
98561,96446
98554,96401
98602,96425
98641,96434
98597,96420
98604,96486
98640,96457
98663,96468
98682,96475
98698,96472
98659,96490
98664,96482
98711,96490
98720,96504
98718,96452
98709,96457
98683,96455
98671,96475
98679,96455
98595,96412
98511,96428
98465,96352
98421,96349
98359,96335
98262,96301
98178,96228
98076,96227
98018,96188
97975,96156
97872,96099
97750,96056
97667,96068
97645,96022
97562,95992
97438,95947
97374,95886
97303,95931
97325,95912
97240,95858
97180,95835
97141,95818
97094,95822
97080,95791
97066,95762
97004,95773
97008,95763
96939,95755
96952,95777
96956,95753
96933,95729
96956,95774
96923,95748
96918,95753
96957,95746
96922,95708
96934,95771
96947,95745
96950,95768
96951,95749
96941,95737
96921,95718
96949,95785
96992,95778
96956,95744
96966,95749
96958,95771
96925,95752
96991,95760
96920,95739
96944,95761
96928,95750
96884,95768
96919,95727
96915,95725
96884,95780
96903,95739
96890,95728
96884,95711
96883,95752
96913,95757
96878,95694
96888,95742
96910,95735
96925,95730
96935,95732
96892,95734
96923,95781
96961,95760
96952,95754
96976,95772
96944,95751
96934,95767
96982,95791
96999,95777
96975,95755
97001,95798
97014,95750
97003,95748
96970,95796
97003,95765
96992,95757
96997,95744
96983,95803
97040,95759
97008,95731
97001,95746
97025,95760
96996,95792
97043,95776
97050,95752
96987,95747
97002,95733
97046,95787
97024,95775
97047,95792
97010,95737
97020,95775
97040,95772
97040,95775
97040,95761
96994,95784
97039,95782
97074,95751
97057,95786
97093,95795
97032,95729
97065,95785
97106,95825
97111,95802
97114,95795
97113,95800
97181,95804
97183,95790
97147,95869
97201,95836
97218,95822
97244,95842
97267,95853
97293,95892
97324,95909
97291,95865
97338,95896
97349,95893
97350,95908
97355,95910
97355,95895
97365,95943
97410,95920
97425,95917
97431,95933
97459,95935
97462,95929
97459,95957
97483,95943
97497,95967
97453,95976
97529,96015
97569,95979
97540,95979
97562,95977
97562,95997
97594,96035
97670,96021
97648,95998
97645,96036
97656,96025
97681,96058
97732,96057
97750,96043
97730,96090
97747,96042
97760,96074
97806,96118
97790,96083
97822,96116
97779,96052
97824,96088
97824,96116
97820,96135
97894,96104
97832,96108
97844,96161
97886,96143
97888,96116
97887,96142
97892,96114
97900,96133
97963,96197
97974,96146
97962,96171
97974,96180
97982,96162
98030,96184
98013,96185
97995,96184
97995,96242
98066,96240
98080,96206
98119,96226
98090,96202
98081,96243
98127,96262
98160,96249
98140,96245
98170,96284
98120,96215
98170,96256
98214,96269
98228,96297
98213,96244
98155,96282
98203,96320
98249,96288
98231,96296
98265,96286
98215,96272
98270,96304
98253,96315
98293,96324
98300,96307
98281,96331
98304,96289
98296,96365
98342,96319
98352,96308
98306,96319
98327,96325
98404,96389
98411,96346
98411,96322
98383,96379
98427,96393
98457,96363
98442,96388
98480,96398
98464,96356
98487,96400
98507,96396
98560,96391
98496,96435
98494,96406
98531,96413
98586,96439
98576,96454
98528,96458
98565,96435
98600,96431
98593,96455
98606,96458
98608,96432
98624,96458
98612,96423
98652,96499
98669,96499
98666,96461
98624,96458
98660,96471
98712,96518
98718,96473
98686,96458
98678,96478
98718,96477
98720,96521
98776,96502
98739,96522
98771,96540
98802,96556
98816,96550
98844,96555
98825,96519
98799,96563
98873,96586
98870,96571
98877,96565
98862,96531
98793,96566
98869,96576
98817,96500
98766,96526
98706,96465
98668,96464
98631,96428
98516,96354
98444,96403
98392,96341
98266,96319
98224,96248
98135,96262
98084,96221
97947,96126
97882,96120
97801,96088
97707,96054
97625,96033
97579,96028
97499,95947
97437,95949
97396,95957
97333,95929
97250,95892
97188,95867
97201,95853
97173,95860
97114,95779
97061,95816
97043,95804
97072,95775
97007,95776
97041,95764
97023,95786
97039,95775
96985,95765
97001,95810
97017,95805
96996,95769
96992,95743
97018,95801
97010,95793
97031,95789
96986,95783
97013,95798
97031,95792
97015,95777
97008,95750
97003,95792
96997,95758
97017,95785
96993,95774
97013,95808
96971,95735
96949,95734
96939,95782
96954,95743
96960,95757
96946,95742
96920,95738
96951,95767
96926,95719
96917,95717
96903,95725
96916,95741
96937,95753
96919,95724
96960,95756
96919,95749
96974,95742
96986,95757
96978,95764
96992,95774
96968,95765
96990,95766
97017,95773
97022,95774
97030,95767
97041,95768
97024,95782
97073,95796
97060,95792
97042,95808
97016,95749
97047,95789
97067,95800
97058,95768
97044,95781
97058,95785
97052,95768
97069,95783
97058,95770
97048,95791
97049,95758
97044,95738
97072,95783
97057,95774
97042,95783
97023,95739
97060,95800
97106,95817
97084,95788
97072,95799
97107,95812
97086,95818
97139,95831
97177,95835
97173,95837
97125,95787
97159,95851
97197,95838
97191,95836
97233,95856
97206,95835
97221,95875
97262,95848
97257,95875
97261,95873
97244,95860
97296,95849
97318,95907
97320,95897
97312,95874
97306,95914
97358,95930
97385,95929
97382,95900
97422,95946
97387,95916
97437,95939
97480,95967
97479,95961
97517,95979
97495,95941
97561,95967
97559,95982
97570,95993
97540,95991
97599,96020
97625,95999
97608,96022
97629,96021
97635,96017
97643,96028
97695,96045
97691,96051
97689,96047
97743,96078
97691,96029
97721,96069
97764,96094
97792,96095
97791,96089
97762,96061
97798,96105
97805,96110
97836,96102
97849,96128
97801,96081
97848,96110
97902,96143
97890,96130
97899,96160
97899,96122
97937,96136
97951,96155
97947,96152
97925,96160
97953,96194
97994,96154
97970,96176
98003,96177
98007,96161
97952,96196
98042,96236
98060,96198
98034,96187
98039,96217
98051,96214
98095,96214
98094,96193
98073,96233
98097,96222
98073,96212
98118,96205
98116,96252
98140,96230
98145,96230
98126,96250
98131,96242
98181,96253
98188,96226
98159,96284
98178,96256
98233,96254
98246,96270
98262,96311
98261,96268
98205,96273
98263,96324
98300,96327
98289,96294
98277,96345
98327,96322
98374,96302
98368,96339
98372,96348
98382,96364
98400,96309
98417,96354
98407,96382
98421,96371
98439,96366
98424,96374
98479,96384
98448,96382
98505,96406
98484,96377
98487,96388
98532,96372
98509,96393
98518,96436
98561,96404
98516,96398
98553,96386
98562,96424
98589,96416
98555,96421
98551,96457
98614,96444
98621,96461
98608,96430
98599,96474
98645,96453
98687,96437
98689,96463
98673,96473
98677,96461
98676,96524
98709,96517
98767,96504
98765,96515
98735,96511
98735,96524
98820,96518
98792,96530
98740,96538
98754,96502
98723,96487
98701,96474
98687,96491
98626,96421
98525,96369
98444,96368
98401,96330
98339,96328
98246,96287
98128,96199
98049,96222
97999,96164
97919,96154
97789,96115
97743,96054
97640,96017
97585,95976
97499,95987
97433,95965
97395,95910
97315,95879
97293,95868
97201,95846
97184,95839
97100,95785
97096,95803
97066,95792
97000,95803
96983,95792
96975,95759
96952,95763
96951,95753
96937,95770
96927,95754
96942,95725
96942,95743
96946,95753
96934,95741
96954,95753
96920,95717
96901,95739
96961,95760
96948,95744
96943,95757
96930,95734
96933,95703
96938,95732
96920,95742
96945,95742
96901,95749
96955,95742
96956,95710
96881,95726
96891,95739
96875,95706
96876,95733
96915,95726
96871,95698
96836,95712
96835,95720
96872,95718
96875,95687
96839,95670
96847,95714
96873,95738
96853,95699
96891,95721
96898,95736
96904,95721
96915,95730
96929,95710
96931,95729
96921,95758
96943,95742
96893,95732
96950,95750
96950,95712
96955,95761
96973,95771
96939,95728
96953,95770
96994,95719
96919,95748
96934,95745
96944,95723
96907,95731
96952,95748
96921,95691
96899,95685
96884,95691
96880,95705
96916,95723
96888,95718
96909,95678
96860,95721
96882,95734
96910,95710
96932,95716
96931,95693
96879,95717
96931,95742
96941,95743
96940,95707
96927,95732
96924,95715
96989,95701
96956,95698
96946,95722
96952,95737
96958,95754
97002,95735
97025,95706
96946,95731
96979,95763
96979,95729
96996,95755
97030,95759
96984,95740
97010,95737
96997,95756
97041,95764
97039,95799
97075,95747
97056,95727
97052,95790
97124,95786
97125,95798
97156,95792
97135,95773
97129,95835
97230,95858
97203,95839
97251,95865
97261,95828
97208,95844
97303,95895
97327,95903
97303,95871
97364,95911
97353,95913
97420,95894
97390,95903
97423,95937
97402,95914
97438,95925
97445,95909
97523,95967
97524,95945
97514,95952
97494,95960
97523,95966
97545,96004
97582,95975
97573,95956
97545,95996
97604,95975
97612,95993
97631,96006
97612,95988
97591,96039
97653,96031
97685,96036
97649,96007
97640,96050
97676,96013
97718,96017
97740,96034
97740,96061
97724,96052
97744,96042
97734,96051
97739,96031
97760,96069
97737,96070
97781,96090
97802,96111
97800,96050
97779,96084
97810,96118
97824,96097
97853,96093
97858,96119
97900,96143
97909,96112
97872,96102
97926,96167
97952,96156
97983,96168
98005,96128
97966,96190
98012,96196
98070,96187
98029,96191
98039,96193
98065,96243
98086,96227
98099,96184
98109,96235
98104,96235
98109,96219
98116,96260
98154,96236
98142,96221
98132,96226
98161,96251
98190,96265
98195,96235
98184,96231
98211,96267
98205,96264
98254,96276
98246,96243
98257,96298
98298,96317
98309,96281
98344,96348
98345,96323
98320,96328
98345,96314
98347,96359
98414,96335
98386,96366
98411,96388
98403,96351
98423,96375
98456,96380
98459,96375
98460,96393
98481,96381
98509,96387
98526,96413
98526,96385
98534,96398
98539,96401
98531,96406
98591,96421
98577,96437
98570,96411
98560,96423
98568,96434
98618,96442
98630,96437
98644,96443
98611,96431
98631,96464
98668,96473
98679,96457
98658,96477
98691,96480
98668,96495
98747,96490
98741,96521
98751,96528
98739,96503
98795,96536
98828,96572
98821,96542
98840,96562
98829,96538
98836,96566
98865,96582
98872,96546
98842,96512
98808,96535
98789,96494
98734,96498
98679,96450
98635,96435
98543,96391
98429,96389
98362,96348
98315,96312
98190,96268
98124,96215
98037,96187
97966,96148
97855,96116
97818,96085
97649,96005
97596,96025
97562,95997
97482,95965
97360,95943
97308,95891
97248,95848
97216,95832
97171,95856
97138,95804
97085,95832
97083,95794
97047,95784
96998,95770
97031,95757
96970,95766
96965,95764
96994,95760
96956,95763
96936,95751
96965,95764
96966,95752
96971,95792
96959,95755
96946,95771
96977,95767
96958,95775
97024,95806
97011,95743
96982,95752
96995,95767
97006,95771
97017,95752
97006,95817
96999,95803
96985,95775
96971,95788
97052,95775
97008,95788
96982,95780
96996,95748
97011,95799
96993,95743
96962,95779
96948,95778
96962,95753
96972,95774
97033,95788
96993,95726
96983,95762
96942,95763
96991,95773
97017,95748
97011,95804
97023,95796
97030,95748
97058,95772
97082,95780
97055,95779
97029,95771
97009,95819
97097,95834
97086,95794
97069,95799
97056,95782
97011,95779
97054,95801
97080,95782
97032,95791
97000,95807
97010,95774
97046,95785
97059,95761
97017,95736
97034,95738
97025,95764
97052,95785
97054,95767
97004,95784
96990,95809
96988,95774
97035,95788
97021,95776
97072,95813
97060,95775
97022,95760
97047,95792
97065,95799
97070,95810
97079,95814
97074,95795
97122,95793
97119,95818
97123,95801
97100,95767
97126,95838
97179,95844
97175,95816
97144,95806
97160,95845
97190,95872
97242,95835
97243,95848
97214,95881
97216,95853
97246,95848
97279,95899
97362,95917
97315,95879
97315,95877
97333,95903
97372,95916
97405,95904
97396,95919
97406,95955
97386,95951
97470,95944
97472,95948
97476,96000
97527,95967
97489,95920
97517,96013
97580,96019
97565,95993
97559,96021
97623,95996
97638,96000
97632,96049
97641,96048
97690,96039
97672,96051
97747,96107
97779,96068
97737,96070
97770,96099
97774,96092
97801,96103
97825,96138
97834,96103
97874,96125
97845,96133
97905,96143
97922,96153
97898,96136
97898,96134
97952,96171
97960,96193
97968,96188
97958,96167
97980,96154
97958,96180
98022,96217
98019,96184
98031,96186
97986,96159
98032,96225
98081,96238
98087,96216
98058,96206
98076,96213
98082,96189
98074,96178
98091,96239
98137,96244
98116,96249
98105,96230
98152,96252
98177,96252
98150,96251
98162,96279
98182,96237
98199,96279
98231,96280
98241,96319
98259,96310
98243,96283
98248,96307
98292,96311
98280,96331
98304,96343
98330,96295
98332,96341
98335,96344
98347,96320
98297,96362
98389,96342
98382,96322
98373,96345
98396,96364
98406,96372
98439,96387
98448,96400
98439,96375
98467,96424
98484,96397
98477,96417
98519,96410
98522,96450
98568,96481
98562,96438
98558,96454
98603,96456
98635,96489
98632,96440
98616,96443
98663,96497
98705,96471
98690,96491
98721,96510
98692,96461
98717,96538
98787,96549
98769,96535
98778,96533
98783,96554
98825,96577
98870,96583
98870,96556
98837,96606
98826,96564
98886,96575
98888,96642
98948,96608
98934,96616
98914,96594
98940,96634
98959,96651
99009,96650
99009,96627
98998,96634
99002,96652
99047,96671
99045,96669
99031,96605
98969,96619
98916,96602
98901,96572
98840,96529
98715,96516
98658,96449
98614,96447
98526,96414
98406,96353
98293,96318
98212,96287
98111,96251
98031,96248
97962,96175
97853,96116
97750,96102
97675,96090
97641,96071
97523,95993
97465,95999
97378,95958
97350,95924
97315,95930
97277,95905
97248,95864
97182,95861
97175,95884
97159,95865
97148,95870
97137,95867
97101,95846
97115,95859
97126,95856
97116,95861
97116,95857
97090,95811
97107,95850
97124,95874
97123,95849
97124,95872
97099,95811
97136,95875
97154,95895
97173,95847
97122,95848
97126,95857
97169,95894
97190,95898
97188,95826
97174,95865
97162,95881
97168,95883
97174,95887
97190,95846
97181,95850
97176,95867
97190,95862
97198,95887
97148,95873
97137,95873
97142,95882
97200,95859
97181,95864
97207,95885
97168,95900
97197,95887
97216,95850
97248,95888
97254,95897
97286,95918
97233,95868
97253,95938
97283,95946
97298,95931
97320,95932
97284,95907
97329,95955
97365,95955
97376,95941
97344,95938
97350,95934
97363,95961
97388,95951
97374,95970
97390,95984
97362,95949
97386,95989
97379,95976
97407,95946
97417,95926
97349,95966
97431,95955
97430,95952
97391,95977
97433,95991
97389,95928
97403,95997
97436,95997
97442,95974
97463,95970
97397,95983
97424,95996
97469,95997
97473,95994
97475,95979
97469,95997
97518,96002
97505,96057
97542,96017
97550,96039
97541,96032
97596,96062
97597,96027
97585,96099
97618,96094
97611,96088
97641,96069
97700,96103
97712,96094
97697,96098
97692,96082
97741,96124
97761,96138
97768,96120
97784,96134
97798,96153
97798,96167
97856,96173
97876,96153
97869,96196
97859,96170
97915,96201
97916,96226
97935,96198
97918,96211
97929,96198
97985,96224
98029,96222
98006,96248
98024,96219
97997,96263
98063,96258
98100,96236
98062,96265
98041,96261
98060,96269
98118,96252
98129,96309
98159,96289
98147,96266
98136,96312
98171,96311
98178,96284
98133,96340
98112,96318
98165,96321
98199,96308
98202,96323
98198,96326
98163,96324
98234,96329
98238,96304
98249,96350
98233,96316
98214,96305
98284,96362
98307,96349
98281,96354
98285,96372
98273,96338
98333,96397
98335,96406
98343,96376
98313,96388
98373,96398
98340,96400
98398,96423
98361,96385
98370,96391
98369,96383
98368,96397
98399,96431
98381,96378
98369,96417
98359,96407
98388,96378
98406,96391
98429,96412
98407,96431
98369,96412
98423,96433
98397,96459
98461,96442
98452,96456
98444,96445
98455,96422
98515,96489
98493,96408
98468,96469
98490,96451
98471,96463
98540,96453
98516,96445
98505,96481
98519,96477
98536,96464
98542,96496
98569,96491
98574,96509
98548,96465
98571,96502
98594,96521
98603,96478
98583,96476
98593,96504
98607,96523
98642,96534
98624,96530
98656,96530
98626,96525
98652,96524
98694,96537
98688,96520
98714,96571
98682,96552
98709,96569
98757,96541
98686,96517
98683,96543
98627,96498
98635,96524
98589,96508
98544,96470
98465,96427
98378,96366
98299,96368
98248,96327
98112,96272
98053,96284
97937,96248
97908,96179
97762,96146
97688,96103
97605,96073
97522,96058
97471,95983
97393,95985
97288,95956
97219,95920
97130,95836
97124,95907
97103,95891
97032,95845
96988,95808
96927,95807
96889,95793
96904,95753
96834,95732
96820,95764
96811,95735
96803,95737
96782,95753
96810,95733
96765,95705
96731,95691
96775,95718
96793,95750
96798,95718
96761,95730
96719,95736
96795,95769
96814,95741
96786,95739
96784,95731
96728,95743
96801,95745
96808,95725
96788,95733
96718,95717
96722,95717
96765,95756
96751,95681
96722,95738
96720,95707
96727,95691
96729,95684
96707,95669
96674,95719
96690,95710
96644,95672
96682,95697
96672,95690
96666,95706
96690,95708
96668,95676
96659,95699
96687,95707
96718,95721
96700,95697
96669,95671
96709,95740
96754,95714
96715,95716
96702,95699
96697,95712
96721,95710
96769,95749
96727,95727
96723,95736
96758,95702
96755,95707
96732,95722
96735,95715
96747,95716
96692,95674
96744,95755
96783,95739
96770,95701
96764,95712
96737,95716
96771,95729
96809,95753
96761,95693
96728,95702
96733,95725
96763,95725
96787,95757
96740,95681
96739,95735
96742,95716
96780,95736
96766,95731
96777,95745
96776,95711
96760,95689
96754,95696
96790,95740
96779,95717
96791,95713
96744,95771
96821,95783
96843,95743
96821,95765
96862,95758
96864,95786
96893,95771
96923,95755
96889,95765
96917,95800
96919,95793
96951,95832
96992,95840
96997,95790
96973,95794
96980,95806
97043,95853
97039,95847
97062,95854
97070,95871
97091,95829
97111,95892
97129,95904
97123,95876
97156,95863
97138,95859
97193,95915
97229,95916
97212,95919
97211,95893
97214,95943
97308,95984
97322,95927
97291,95947
97272,95943
97313,95928
97335,95939
97344,95982
97389,95999
97359,95970
97393,95997
97433,96008
97420,96024
97420,95974
97387,95967
97456,96005
97475,95984
97493,96017
97473,96035
97489,95988
97529,96069
97557,96056
97557,96050
97547,96051
97576,96081
97586,96035
97597,96068
97605,96082
97612,96057
97586,96089
97590,96125
97668,96096
97681,96085
97681,96097
97642,96091
97680,96106
97693,96128
97730,96158
97731,96085
97732,96123
97724,96131
97772,96160
97774,96120
97746,96162
97747,96165
97775,96149
97816,96155
97803,96137
97800,96198
97810,96181
97853,96161
97830,96188
97879,96186
97868,96191
97842,96196
97887,96225
97931,96227
97933,96212
97934,96223
97940,96218
97960,96241
97996,96238
97961,96272
98011,96245
97985,96253
98039,96299
98085,96328
98110,96301
98087,96289
98101,96286
98116,96319
98153,96308
98168,96353
98203,96329
98172,96302
98219,96369
98203,96361
98271,96396
98287,96333
98257,96338
98243,96402
98257,96379
98298,96404
98299,96389
98332,96384
98343,96403
98353,96420
98366,96404
98397,96427
98353,96388
98428,96468
98478,96488
98501,96455
98462,96459
98489,96443
98514,96468
98564,96463
98552,96475
98561,96541
98526,96523
98614,96529
98613,96561
98667,96538
98658,96518
98646,96519
98686,96562
98736,96553
98702,96576
98743,96593
98702,96558
98676,96510
98624,96490
98557,96500
98520,96464
98422,96426
98322,96410
98271,96384
98195,96323
98090,96286
97959,96273
97920,96216
97872,96168
97732,96130
97679,96119
97580,96083
97527,96033
97443,95967
97321,95999
97279,95976
97170,95907
97175,95899
97117,95905
97108,95911
97065,95840
96994,95829
96966,95840
96962,95850
96937,95800
96932,95860
96924,95776
96912,95817
96873,95820
96907,95807
96889,95824
96899,95832
96903,95767
96887,95810
96911,95808
96868,95819
96903,95814
96895,95785
96896,95791
96930,95825
96882,95812
96900,95805
96919,95821
96911,95800
96871,95813
96904,95846
96857,95818
96905,95795
96900,95821
96890,95794
96838,95784
96815,95777
96831,95791
96847,95794
96809,95786
96812,95762
96785,95743
96815,95787
96787,95762
96813,95762
96783,95766
96757,95757
96802,95750
96830,95772
96803,95755
96827,95781
96809,95795
96850,95788
96856,95785
96869,95814
96864,95782
96845,95784
96879,95820
96873,95810
96875,95793
96859,95791
96859,95819
96887,95814
96917,95770
96865,95814
96859,95774
96866,95792
96878,95819
96866,95826
96877,95803
96878,95798
96878,95805
96890,95779
96885,95787
96869,95796
96856,95767
96847,95777
96826,95825
96859,95810
96863,95789
96836,95770
96818,95802
96892,95795
96882,95802
96879,95793
96857,95754
96841,95820
96918,95813
96928,95804
96902,95817
96904,95815
96916,95825
96964,95831
96973,95824
96959,95839
96990,95816
96978,95830
97030,95849
97042,95828
97026,95869
97006,95845
97045,95910
97076,95887
97092,95858
97115,95894
97133,95925
97118,95865
97141,95906
97199,95914
97203,95919
97185,95924
97201,95919
97204,95960
97248,95958
97261,95967
97274,95963
97284,95949
97263,96022
97292,95983
97340,96001
97347,95983
97327,95973
97378,96016
97409,96016
97403,96013
97452,96005
97458,96062
97475,96035
97507,96058
97482,96054
97506,96047
97476,96080
97546,96090
97549,96080
97539,96097
97539,96063
97551,96117
97596,96096
97601,96091
97583,96111
97580,96113
97616,96086
97617,96088
97621,96108
97639,96115
97604,96119
97693,96115
97679,96122
97669,96117
97646,96172
97654,96135
97722,96165
97734,96159
97775,96187
97749,96149
97730,96141
97770,96191
97784,96196
97799,96183
97821,96206
97797,96167
97802,96216
97878,96227
97854,96209
97857,96208
97846,96237
97917,96219
97912,96232
97911,96241
97918,96247
97878,96266
97939,96261
97946,96250
97958,96220
97968,96272
97961,96244
97993,96286
98038,96272
98060,96263
98018,96303
97995,96276
98048,96310
98069,96305
98088,96309
98079,96325
98089,96326
98087,96321
98128,96351
98129,96340
98144,96332
98097,96301
98156,96370
98170,96349
98176,96375
98189,96367
98151,96390
98240,96379
98230,96346
98257,96398
98247,96383
98253,96340
98239,96410
98264,96434
98295,96424
98294,96389
98255,96415
98274,96429
98325,96450
98326,96414
98315,96408
98322,96404
98332,96408
98357,96409
98386,96455
98408,96428
98378,96420
98427,96458
98427,96488
98495,96480
98470,96441
98437,96462
98446,96536
98533,96507
98523,96503
98529,96513
98555,96506
98547,96499
98565,96535
98589,96540
98600,96537
98595,96520
98609,96542
98591,96553
98598,96543
98585,96512
98521,96492
98511,96498
98463,96428
98376,96401
98273,96400
98200,96360
98128,96308
98047,96237
97905,96244
97857,96214
97762,96149
97650,96122
97560,96052
97435,96024
97329,96000
97225,95955
97186,95914
97084,95877
96976,95846
96959,95805
96870,95765
96822,95812
96776,95762
96741,95735
96709,95708
96612,95702
96609,95710
96604,95720
96591,95659
96543,95643
96533,95660
96577,95650
96537,95625
96507,95622
96469,95659
96492,95631
96511,95630
96520,95622
96478,95619
96431,95648
96425,95634
96482,95619
96445,95622
96453,95590
96417,95626
96417,95639
96442,95598
96459,95617
96424,95603
96370,95590
96360,95574
96399,95597
96353,95562
96345,95583
96315,95538
96287,95578
96341,95581
96339,95544
96292,95526
96273,95531
96238,95550
96282,95569
96290,95573
96303,95533
96257,95518
96272,95556
96324,95574
96333,95595
96327,95554
96309,95540
96340,95585
96388,95586
96371,95595
96392,95593
96410,95616
96371,95559
96396,95628
96428,95634
96420,95598
96405,95607
96440,95632
96462,95598
96458,95596
96466,95586
96443,95586
96416,95588
96471,95638
96501,95644
96482,95618
96447,95616
96402,95609
96461,95637
96469,95625
96474,95586
96411,95579
96450,95598
96430,95618
96438,95597
96455,95609
96426,95633
96458,95631
96461,95646
96493,95619
96463,95623
96397,95603
96462,95603
96468,95603
96478,95603
96468,95619
96472,95609
96469,95589
96482,95632
96536,95645
96519,95644
96544,95659
96535,95618
96564,95680
96576,95697
96611,95671
96617,95663
96642,95697
96696,95720
96703,95725
96698,95711
96724,95735
96738,95736
96786,95784
96800,95771
96815,95736
96785,95735
96807,95758
96825,95779
96852,95790
96885,95773
96877,95797
96941,95813
96938,95794
96941,95797
96970,95829
96952,95816
97024,95883
97058,95856
97052,95834
97064,95857
97029,95872
97126,95868
97137,95867
97148,95881
97137,95908
97147,95904
97184,95922
97220,95906
97236,95903
97207,95892
97220,95925
97246,95944
97272,95937
97292,95941
97268,95917
97255,95973
97307,95986
97337,95977
97304,95935
97305,96008
97290,95981
97359,95994
97379,96016
97338,96006
97382,95996
97382,95993
97401,96008
97460,96052
97414,96025
97412,96004
97411,96008
97440,96028
97454,96013
97475,96003
97489,96036
97460,96031
97485,96014
97502,96050
97503,96082
97564,96073
97512,96033
97564,96089
97590,96082
97586,96039
97577,96106
97557,96093
97632,96099
97640,96120
97628,96120
97660,96153
97641,96123
97710,96104
97728,96101
97694,96123
97706,96146
97687,96142
97744,96162
97728,96184
97743,96166
97802,96186
97786,96165
97816,96167
97843,96175
97833,96148
97847,96210
97870,96201
97863,96197
97926,96217
97905,96219
97909,96219
97919,96236
97958,96236
97994,96244
97991,96260
98004,96270
97992,96284
98033,96280
98038,96297
98054,96278
98068,96276
98081,96295
98115,96319
98136,96332
98139,96315
98152,96313
98147,96316
98172,96346
98189,96343
98232,96352
98209,96355
98215,96341
98262,96353
98298,96346
98239,96381
98266,96367
98251,96390
98318,96399
98338,96384
98316,96386
98360,96435
98359,96432
98388,96452
98410,96419
98422,96449
98428,96432
98425,96462
98468,96486
98461,96442
98473,96484
98489,96462
98495,96470
98480,96459
98453,96450
98425,96433
98368,96418
98292,96371
98241,96369
98197,96332
98104,96292
98006,96238
97924,96201
97833,96172
97728,96125
97622,96082
97527,96045
97399,95976
97353,95946
97280,95932
97184,95906
97062,95846
96980,95808
96969,95807
96873,95787
96788,95715
96699,95690
96647,95720
96615,95678
96649,95672
96557,95607
96483,95662
96479,95632
96491,95610
96514,95609
96439,95569
96418,95615
96410,95604
96465,95607
96396,95594
96461,95584
96421,95587
96412,95558
96456,95603
96436,95627
96441,95590
96454,95601
96420,95573
96474,95596
96465,95585
96423,95580
96419,95585
96431,95583
96418,95608
96398,95588
96400,95589
96399,95546
96385,95585
96407,95566
96393,95571
96367,95581
96346,95565
96350,95563
96341,95564
96328,95515
96330,95558
96319,95527
96294,95573
96341,95557
96351,95544
96323,95542
96348,95553
96360,95560
96364,95546
96393,95579
96399,95562
96364,95562
96381,95594
96453,95592
96438,95591
96442,95592
96409,95589
96452,95610
96480,95602
96448,95602
96438,95596
96448,95594
96496,95604
96496,95635
96528,95640
96488,95623
96469,95592
96477,95619
96545,95622
96534,95631
96530,95618
96525,95636
96548,95636
96540,95652
96534,95618
96557,95635
96519,95613
96530,95651
96544,95632
96579,95632
96553,95640
96512,95615
96543,95637
96591,95641
96601,95649
96607,95671
96595,95651
96645,95664
96652,95682
96646,95672
96669,95681
96649,95697
96691,95715
96725,95721
96730,95693
96740,95722
96747,95710
96763,95731
96782,95727
96804,95743
96825,95750
96794,95754
96831,95748
96840,95777
96899,95777
96903,95764
96878,95751
96949,95798
96970,95796
96974,95805
96987,95809
97004,95809
97032,95826
97076,95847
97089,95859
97090,95873
97082,95851
97114,95856
97160,95884
97183,95886
97196,95895
97167,95879
97236,95895
97258,95925
97256,95915
97285,95945
97274,95951
97292,95946
97298,95956
97313,95964
97382,95957
97373,95955
97405,95984
97409,95993
97425,95974
97431,96005
97451,96019
97495,96009
97505,96046
97471,96019
97506,96029
97486,96015
97537,96032
97564,96062
97574,96049
97574,96060
97579,96076
97598,96087
97624,96066
97616,96077
97625,96078
97629,96089
97669,96101
97661,96091
97684,96097
97682,96110
97656,96108
97711,96121
97752,96137
97720,96123
97730,96097
97737,96142
97768,96142
97783,96149
97789,96137
97798,96159
97773,96135
97805,96157
97831,96165
97865,96180
97858,96194
97863,96190
97897,96188
97947,96218
97914,96219
97909,96207
97922,96228
97978,96233
98001,96244
98003,96213
97987,96260
97999,96275
98020,96269
98057,96270
98049,96290
98032,96256
98047,96288
98117,96288
98128,96301
98116,96295
98126,96323
98122,96325
98145,96309
98199,96323
98181,96327
98195,96327
98207,96350
98245,96357
98216,96378
98250,96358
98237,96357
98243,96351
98289,96377
98328,96362
98308,96389
98319,96391
98326,96388
98345,96414
98361,96429
98342,96395
98389,96399
98392,96413
98386,96396
98414,96444
98419,96439
98405,96424
98396,96432
98459,96444
98494,96443
98491,96480
98464,96430
98512,96489
98532,96476
98519,96480
98542,96482
98542,96486
98573,96486
98588,96508
98623,96511
98603,96522
98612,96516
98622,96525
98665,96536
98669,96546
98680,96556
98639,96566
98665,96529
98707,96576
98661,96542
98651,96540
98577,96493
98558,96462
98519,96445
98387,96403
98296,96362
98186,96303
98126,96263
98025,96239
97923,96218
97842,96151
97689,96097
97590,96082
97544,96039
97437,95984
97339,95982
97265,95877
97173,95901
97094,95869
97077,95843
96987,95774
96898,95762
96852,95764
96841,95752
96760,95710
96769,95719
96712,95667
96696,95663
96674,95688
96661,95699
96644,95677
96624,95651
96628,95677
96642,95687
96657,95677
96628,95679
96638,95681
96649,95680
96688,95679
96658,95700
96701,95682
96670,95667
96677,95680
96704,95705
96749,95700
96712,95697
96655,95699
96701,95703
96749,95701
96707,95684
96729,95718
96732,95689
96753,95670
96719,95695
96699,95722
96748,95715
96707,95683
96696,95674
96716,95679
96735,95710
96731,95685
96711,95667
96735,95705
96751,95709
96778,95697
96717,95682
96728,95724
96765,95736
96794,95729
96788,95699
96781,95755
96781,95732
96823,95758
96819,95742
96853,95747
96825,95745
96817,95719
96860,95738
96836,95723
96809,95722
96814,95749
96828,95730
96816,95723
96839,95747
96874,95730
96862,95720
96800,95719
96850,95752
96871,95763
96847,95742
96842,95766
96842,95756
96867,95746
96888,95755
96884,95740
96861,95738
96794,95779
96860,95732
96880,95770
96900,95782
96873,95724
96823,95773
96885,95753
96929,95777
96892,95784
96922,95748
96889,95746
96900,95784
96947,95780
96933,95788
96936,95767
96909,95812
96976,95802
97024,95827
96979,95840
97041,95805
97003,95784
97056,95818
97080,95833
97101,95855
97092,95815
97081,95802
97163,95880
97154,95883
97185,95858
97202,95865
97171,95866
97225,95903
97262,95925
97279,95900
97277,95907
97288,95950
97295,95946
97382,95945
97354,95952
97382,95934
97377,95944
97405,95964
97455,95978
97448,95971
97433,96002
97437,96009
97496,96017
97490,96007
97493,96003
97544,96037
97550,96034
97582,96028
97568,96039
97550,96069
97582,96019
97586,96017
97601,96035
97597,96069
97621,96029
97597,96077
97598,96089
97651,96086
97663,96070
97656,96076
97674,96063
97643,96061
97678,96099
97707,96101
97656,96110
97702,96091
97696,96073
97730,96095
97733,96089
97716,96126
97742,96134
97763,96095
97781,96124
97786,96126
97794,96097
97755,96151
97767,96151
97803,96143
97867,96161
97847,96147
97847,96130
97862,96127
97872,96176
97901,96161
97843,96180
97930,96178
97900,96188
97907,96177
97949,96199
97907,96180
97915,96173
97931,96162
97936,96180
97982,96216
97940,96174
97966,96226
97982,96204
98013,96205
98034,96236
98001,96217
97995,96249
98065,96271
98063,96254
98072,96269
98086,96286
98054,96235
98107,96230
98129,96260
98150,96267
98146,96269
98092,96299
98161,96311
98169,96312
98212,96318
98189,96288
98166,96288
98168,96308
98244,96319
98253,96322
98241,96355
98232,96335
98285,96361
98332,96342
98345,96367
98332,96382
98361,96400
98388,96381
98406,96397
98424,96404
98415,96443
98415,96422
98452,96441
98468,96435
98508,96444
98506,96426
98499,96440
98512,96416
98502,96421
98500,96433
98431,96378
98362,96380
98329,96378
98282,96322
98201,96268
98117,96256
98004,96180
97931,96147
97853,96134
97711,96056
97622,96053
97524,95956
97458,95939
97355,95922
97287,95904
97207,95829
97040,95777
97002,95787
96974,95748
96883,95712
96849,95694
96734,95644
96727,95671
96706,95633
96678,95606
96613,95580
96595,95603
96615,95620
96586,95605
96580,95596
96551,95568
96463,95600
96492,95598
96563,95600
96546,95572
96545,95581
96501,95608
96538,95605
96564,95585
96562,95559
96543,95624
96540,95586
96553,95617
96605,95594
96602,95615
96590,95583
96571,95596
96607,95608
96599,95650
96642,95630
96628,95609
96589,95577
96602,95578
96616,95624
96644,95625
96606,95593
96568,95591
96618,95633
96632,95589
96623,95623
96589,95594
96597,95597
96620,95599
96624,95556
96599,95614
96617,95599
96632,95605
96653,95634
96673,95626
96659,95631
96657,95650
96650,95605
96709,95592
96713,95670
96724,95638
96694,95637
96699,95645
96714,95654
96743,95649
96736,95649
96740,95642
96714,95623
96765,95639
96779,95636
96740,95637
96764,95646
96743,95633
96748,95653
96745,95660
96734,95632
96755,95646
96713,95645
96753,95670
96746,95658
96736,95650
96767,95648
96734,95631
96765,95645
96754,95645
96751,95619
96749,95661
96726,95609
96781,95671
96800,95700
96812,95701
96816,95674
96769,95666
96852,95707
96848,95689
96873,95678
96845,95681
96808,95684
96857,95725
96940,95730
96910,95724
96946,95708
96940,95694
96970,95733
96978,95738
96988,95742
96980,95773
97024,95776
97062,95783
97080,95772
97077,95804
97088,95779
97061,95806
97100,95810
97150,95820
97125,95827
97181,95833
97131,95828
97201,95851
97246,95872
97202,95850
97265,95884
97289,95847
97316,95882
97347,95918
97321,95924
97380,95875
97371,95875
97411,95909
97434,95939
97447,95934
97427,95924
97419,95955
97459,95962
97492,95973
97488,95948
97537,95990
97542,95964
97563,95973
97566,95994
97581,95984
97595,96004
97590,95966
97615,96012
97638,96010
97668,95985
97641,96012
97613,96051
97667,96040
97675,96026
97655,96062
97708,96061
97682,96034
97718,96066
97708,96053
97732,96049
97707,96041
97679,96068
97759,96073
97774,96083
97768,96060
97727,96071
97760,96064
97757,96105
97803,96123
97813,96099
97810,96079
97819,96073
97831,96106
97883,96147
97880,96123
97847,96092
97880,96096
97881,96137
97927,96163
97933,96157
97899,96129
97939,96170
97946,96165
97922,96149
97937,96135
97964,96127
97938,96175
97970,96170
97946,96171
97990,96198
98008,96143
97990,96159
97993,96168
98024,96147
97990,96180
98026,96194
98042,96175
98047,96195
98061,96216
98092,96196
98039,96183
98046,96191
98084,96228
98125,96228
98095,96232
98121,96223
98144,96228
98131,96229
98132,96243
98171,96227
98164,96232
98181,96236
98184,96257
98188,96258
98205,96267
98160,96211
98211,96250
98247,96277
98241,96279
98277,96240
98219,96282
98244,96327
98288,96310
98289,96305
98340,96286
98297,96288
98302,96320
98351,96351
98361,96317
98344,96358
98343,96309
98359,96295
98361,96322
98308,96283
98225,96270
98153,96216
98103,96196
98006,96171
97947,96146
97851,96086
97723,96018
97614,95953
97555,95976
97451,95875
97336,95856
97207,95806
97141,95761
97037,95699
96909,95698
96822,95667
96736,95617
96687,95564
96654,95570
96587,95506
96507,95499
96419,95475
96420,95436
96375,95436
96317,95423
96301,95429
96265,95417
96264,95414
96241,95388
96229,95411
96235,95407
96202,95359
96223,95363
96218,95379
96219,95367
96194,95398
96186,95345
96190,95333
96210,95379
96195,95388
96206,95375
96170,95327
96208,95366
96200,95358
96220,95397
96205,95357
96151,95316
96154,95334
96183,95359
96171,95359
96156,95346
96125,95323
96141,95334
96127,95344
96101,95333
96127,95324
96071,95324
96086,95341
96129,95310
96102,95285
96090,95288
96037,95301
96065,95319
96109,95351
96099,95311
96098,95298
96073,95299
96078,95291
96107,95353
96125,95343
96122,95310
96133,95329
96126,95337
96159,95336
96129,95340
96134,95331
96123,95338
96166,95364
96169,95368
96143,95324
96175,95370
96146,95304
96172,95321
96183,95329
96192,95345
96139,95297
96115,95342
96148,95368
96182,95351
96133,95312
96145,95331
96161,95339
96203,95330
96193,95345
96168,95356
96185,95319
96153,95349
96206,95343
96194,95351
96178,95350
96168,95324
96181,95328
96178,95321
96222,95374
96209,95381
96237,95353
96177,95347
96241,95395
96238,95385
96246,95399
96249,95379
96230,95354
96282,95408
96339,95386
96285,95362
96313,95389
96310,95403
96395,95422
96369,95372
96349,95409
96376,95405
96366,95425
96376,95413
96424,95445
96434,95459
96414,95439
96425,95468
96443,95469
96543,95481
96480,95464
96497,95426
96528,95485
96581,95503
96598,95491
96606,95485
96571,95529
96620,95548
96667,95546
96672,95546
96670,95529
96659,95553
96689,95588
96710,95561
96741,95542
96727,95603
96732,95543
96743,95544
96771,95575
96749,95597
96816,95583
96780,95605
96808,95617
96834,95610
96815,95626
96819,95614
96839,95613
96867,95621
96903,95611
96877,95630
96887,95653
96900,95632
96925,95639
96922,95673
96957,95690
96961,95685
96930,95645
96970,95677
97012,95687
97030,95706
97022,95698
96993,95691
97034,95720
97074,95705
97080,95696
97093,95734
97063,95700
97068,95747
97126,95744
97130,95742
97114,95737
97099,95745
97150,95778
97175,95772
97173,95750
97171,95787
97170,95738
97187,95736
97220,95776
97242,95779
97241,95753
97179,95792
97223,95794
97267,95795
97255,95778
97291,95800
97255,95797
97314,95811
97326,95807
97316,95810
97324,95804
97300,95810
97344,95839
97380,95847
97388,95857
97363,95836
97360,95838
97366,95838
97433,95862
97431,95872
97440,95897
97443,95858
97464,95886
97477,95889
97491,95875
97480,95891
97483,95899
97529,95915
97511,95922
97548,95924
97580,95927
97535,95887
97567,95934
97616,95934
97612,95962
97608,95951
97624,95937
97626,95954
97651,95972
97615,95954
97658,95965
97653,95954
97662,95994
97713,96008
97704,95982
97726,96005
97665,95977
97759,96013
97784,96006
97747,95984
97771,96012
97765,96012
97814,96039
97820,96039
97827,96069
97863,96090
97818,96036
97893,96055
97851,96075
97898,96081
97900,96076
97884,96050
97877,96069
97874,96027
97797,96012
97749,95970
97647,95974
97634,95940
97531,95882
97391,95862
97298,95818
97217,95733
97082,95679
96987,95676
96873,95575
96773,95560
96661,95478
96580,95485
96508,95412
96386,95345
96297,95348
96195,95312
96114,95321
96100,95251
95987,95210
95949,95187
95835,95154
95833,95167
95827,95162
95794,95109
95751,95086
95663,95073
95717,95095
95691,95058
95639,95031
95625,95048
95598,95040
95619,95031
95650,95046
95615,95013
95594,95043
95564,95015
95619,95023
95565,95051
95570,95010
95580,95022
95532,95031
95538,95031
95518,95005
95464,95025
95473,94993
95452,94971
95472,94992
95442,94963
95405,94979
95360,94952
95334,94938
95324,94982
95334,94934
95307,94897
95262,94889
95215,94878
95206,94874
95233,94917
95217,94893
95194,94860
95173,94851
95211,94897
95211,94896
95218,94901
95204,94869
95199,94871
95261,94910
95255,94877
95266,94922
95236,94909
95236,94889
95278,94929
95314,94943
95324,94915
95291,94904
95290,94923
95285,94906
95336,94945
95324,94922
95294,94912
95312,94908
95348,94948
95348,94910
95339,94894
95332,94911
95315,94934
95343,94961
95350,94929
95371,94903
95328,94904
95328,94927
95358,94942
95362,94928
95344,94910
95344,94936
95307,94928
95366,94934
95373,94937
95338,94948
95338,94927
95331,94924
95377,94929
95352,94906
95356,94943
95363,94909
95354,94939
95412,94925
95385,94963
95360,94951
95353,94964
95385,94949
95455,94962
95450,94957
95437,94946
95436,94917
95451,94985
95514,94997
95528,95002
95565,95005
95547,95003
95543,94971
95594,95027
95609,95030
95616,95060
95644,95054
95657,95072
95727,95064
95686,95053
95713,95047
95716,95106
95754,95092
95765,95099
95784,95139
95797,95139
95800,95144
95832,95147
95871,95118
95850,95132
95873,95159
95877,95158
95897,95149
95933,95156
95934,95200
95954,95203
95938,95170
95996,95215
96030,95185
95994,95211
96023,95244
96084,95216
96076,95225
96095,95237
96111,95229
96130,95263
96145,95214
96132,95255
96165,95270
96200,95300
96233,95280
96222,95276
96226,95290
96270,95289
96262,95336
96257,95352
96268,95310
96318,95355
96339,95317
96334,95318
96327,95340
96343,95342
96360,95339
96383,95362
96418,95387
96427,95365
96396,95340
96432,95394
96454,95390
96443,95423
96458,95427
96485,95427
96510,95389
96539,95408
96518,95426
96514,95441
96535,95434
96572,95425
96594,95424
96561,95416
96570,95441
96581,95460
96615,95450
96639,95436
96639,95495
96645,95503
96624,95483
96701,95503
96713,95522
96687,95484
96699,95507
96711,95524
96780,95533
96785,95550
96789,95519
96791,95530
96746,95560
96810,95554
96837,95555
96871,95565
96854,95560
96796,95577
96832,95594
96864,95596
96880,95582
96905,95610
96918,95619
96951,95587
96993,95607
96971,95608
96994,95582
96961,95608
96997,95637
97014,95656
97025,95650
97057,95678
97013,95666
97089,95658
97101,95687
97117,95678
97142,95668
97112,95676
97122,95729
97149,95707
97170,95732
97177,95687
97146,95698
97208,95744
97230,95741
97222,95734
97226,95753
97248,95723
97284,95723
97309,95774
97252,95751
97300,95746
97286,95777
97305,95763
97272,95756
97256,95761
97215,95758
97152,95696
97159,95654
97072,95663
97022,95642
96935,95579
96786,95504
96723,95504
96654,95440
96507,95371
96389,95316
96283,95307
96211,95263
96116,95222
96018,95188
95931,95131
95809,95061
95748,95065
95657,95035
95616,94987
95516,94952
95465,94933
95452,94885
95347,94896
95307,94847
95290,94845
95190,94803
95184,94815
95141,94844
95139,94787
95095,94785
95091,94783
95069,94756
95043,94808
95064,94776
95024,94752
95012,94769
94970,94770
95005,94779
94988,94730
94973,94708
94922,94716
94921,94731
94883,94739
94868,94703
94804,94688
94782,94662
94774,94652
94755,94651
94685,94637
94650,94641
94661,94626
94669,94616
94598,94588
94580,94585
94548,94574
94568,94570
94540,94561
94555,94572
94509,94551
94526,94570
94516,94555
94536,94521
94556,94581
94549,94587
94544,94543
94540,94529
94587,94542
94570,94523
94570,94575
94586,94569
94594,94587
94638,94572
94642,94610
94672,94575
94652,94551
94646,94593
94709,94606
94718,94621
94753,94633
94718,94578
94710,94622
94763,94669
94788,94646
94779,94638
94743,94648
94812,94678
94829,94677
94839,94618
94821,94660
94804,94666
94801,94669
94846,94695
94845,94639
94822,94648
94822,94661
94833,94661
94858,94676
94874,94674
94874,94664
94829,94646
94877,94676
94901,94685
94897,94676
94916,94696
94932,94688
94935,94726
94959,94722
94975,94705
95002,94709
94966,94715
95016,94738
95048,94740
95064,94751
95099,94773
95046,94749
95111,94767
95114,94769
95122,94775
95149,94813
95132,94783
95178,94808
95217,94843
95218,94832
95244,94839
95244,94815
95286,94841
95322,94864
95294,94884
95345,94877
95312,94883
95398,94913
95437,94926
95420,94910
95457,94933
95442,94928
95465,94897
95508,94947
95522,94963
95550,94981
95518,94923
95522,94956
95570,94971
95591,94998
95640,94980
95574,94985
95611,95004
95646,94996
95634,95013
95634,95020
95638,95006
95680,95017
95684,95047
95708,95052
95721,95041
95700,95036
95728,95058
95777,95037
95765,95030
95770,95056
95753,95068
95784,95069
95823,95054
95810,95092
95802,95107
95801,95095
95885,95105
95908,95107
95903,95102
95889,95111
95879,95091
95950,95125
95956,95136
95927,95125
95960,95131
95941,95162
95988,95157
96028,95164
96012,95157
96008,95166
96003,95144
96061,95180
96053,95214
96096,95240
96094,95215
96113,95186
96122,95187
96144,95202
96165,95258
96180,95270
96189,95247
96220,95221
96240,95248
96203,95262
