11111,11111
0,0
1143,1238
1124,1236
1120,1236
1142,1242
1131,1231
1162,1270
1128,1238
1116,1235
1136,1243
1113,1240
1147,1240
1145,1277
1131,1230
1145,1232
1126,1241
1148,1215
1146,1260
1121,1242
1153,1217
1155,1230
1167,1267
1135,1253
1163,1263
1148,1268
1167,1253
1181,1263
1161,1277
1165,1275
1184,1252
1196,1290
1180,1276
1222,1300
1196,1365
1232,1349
1291,1415
1318,1418
1392,1494
1456,1532
1481,1586
1593,1670
1597,1748
1646,1749
1764,1853
1781,1903
1854,1999
1899,2044
2006,2080
2048,2220
2130,2271
2212,2339
2331,2456
2449,2556
2569,2687
2694,2791
2838,2875
2989,3036
3136,3119
3288,3154
3423,3221
3567,3245
3689,3261
3750,3156
3767,3070
3681,2853
3588,2655
3442,2433
3324,2239
3201,2030
3073,1913
2895,1781
2805,1695
2738,1625
2606,1511
2527,1482
2407,1420
2334,1402
2256,1347
2200,1344
2110,1359
2071,1330
2000,1307
1994,1279
1968,1302
1906,1269
1871,1276
1842,1260
1766,1220
1725,1273
1639,1224
1658,1237
1613,1231
1555,1242
1531,1211
1502,1214
1483,1220
1476,1222
1440,1239
1378,1193
1388,1205
1342,1234
1350,1219
1302,1247
1282,1215
1300,1223
1221,1242
1231,1198
1252,1232
1177,1222
1164,1241
1197,1215
1214,1217
1191,1225
1185,1223
1186,1207
1198,1218
1222,1233
1216,1219
1231,1255
1224,1242
1249,1212
1229,1257
1265,1220
1224,1274
1283,1237
1675,1583
1459,1480
1444,1467
1128,1237
1131,1233
1148,1239
1101,1234
1112,1212
1135,1237
1095,1236
1146,1267
1133,1224
1124,1239
1132,1220
1149,1266
1116,1278
1142,1235
1151,1249
1129,1279
1127,1241
1155,1220
1126,1257
1131,1257
1150,1276
1146,1259
1111,1252
1154,1272
1105,1266
1142,1232
1126,1240
1142,1219
1137,1268
1092,1244
1110,1227
1136,1225
1087,1246
1092,1244
1117,1216
1099,1281
1093,1242
1101,1216
1115,1249
1089,1232
1095,1211
1118,1234
1073,1244
1083,1197
1086,1241
1059,1220
1125,1215
1093,1211
1100,1227
1074,1235
1076,1194
1082,1242
1069,1220
1106,1203
1098,1226
1051,1201
1096,1222
1052,1217
1063,1175
1082,1216
1060,1201
1052,1192
1096,1187
1062,1186
1069,1224
1045,1157
1054,1193
1087,1171
1060,1194
1079,1204
1062,1208
1074,1188
1031,1174
1068,1216
1040,1205
1038,1161
1051,1209
1024,1182
1072,1199
1027,1198
1070,1203
1064,1193
1049,1199
1054,1195
1039,1180
1029,1189
1048,1175
1026,1153
1057,1196
1051,1179
1033,1206
1028,1188
1033,1174
1046,1200
1028,1189
1067,1186
1038,1189
1024,1170
1055,1187
1001,1195
1068,1147
1063,1181
1032,1204
1022,1178
1046,1187
1066,1172
1044,1175
1059,1206
1036,1183
1010,1155
1051,1176
1039,1179
1027,1170
1049,1158
1070,1192
1042,1191
1040,1185
1046,1186
1058,1174
1051,1173
1045,1159
1086,1200
1046,1201
1058,1163
1057,1180
1057,1174
1093,1209
1033,1180
1052,1186
1060,1178
1079,1190
1080,1213
1059,1167
1079,1227
1056,1178
1052,1201
1066,1214
1061,1205
1073,1175
1101,1207
1072,1214
1058,1205
1089,1204
1045,1214
1069,1205
1065,1211
1070,1205
1090,1193
1086,1208
1073,1210
1102,1203
1086,1239
1079,1207
1084,1207
1102,1200
1115,1218
1087,1238
1082,1192
1110,1217
1098,1225
1089,1247
1065,1217
1102,1220
1074,1214
1068,1211
1093,1240
1072,1221
1112,1208
1095,1241
1100,1221
1068,1220
1084,1225
1072,1235
1076,1219
1100,1190
1084,1255
1077,1215
1090,1218
1087,1215
1097,1195
1093,1248
1078,1227
1089,1226
1079,1210
1111,1228
1068,1214
1088,1197
1107,1254
1072,1223
1109,1221
1106,1217
1121,1233
1079,1238
1107,1222
1131,1218
1100,1223
1092,1223
1113,1230
1126,1245
1084,1234
1099,1223
1102,1247
1101,1250
1090,1214
1124,1226
1094,1264
1089,1225
1120,1226
1120,1219
1119,1239
1098,1211
1127,1213
1117,1240
1129,1228
1141,1215
1097,1251
1095,1222
1134,1196
1083,1246
1129,1220
1069,1247
1086,1242
1109,1231
1116,1261
1102,1232
1124,1213
1106,1223
1137,1224
1104,1217
1123,1262
1116,1234
1116,1235
1111,1254
1119,1244
1094,1205
1129,1238
1130,1228
1086,1222
1123,1266
1082,1201
1131,1235
1084,1249
1114,1223
1122,1232
1091,1229
1118,1228
1097,1226
1112,1210
1103,1229
1135,1224
1110,1230
1082,1234
1109,1195
1120,1215
1109,1219
1128,1242
1102,1241
1102,1221
1087,1209
1113,1220
1098,1220
1114,1199
1077,1204
1111,1211
1122,1219
1093,1222
1094,1222
1112,1210
1077,1229
1120,1212
1106,1187
1116,1207
1100,1240
1076,1217
1074,1213
1065,1198
1122,1232
1077,1199
1083,1220
1070,1214
1076,1237
1075,1190
1124,1227
1072,1210
1101,1211
1101,1195
1110,1223
1073,1207
1096,1205
1116,1217
1088,1237
1119,1221
1084,1206
1111,1214
1106,1232
1107,1217
1111,1244
1114,1215
1093,1213
1126,1232
1083,1206
1099,1195
1093,1200
1101,1231
1109,1194
1172,1226
1100,1259
1107,1192
1110,1218
1108,1227
1081,1224
1120,1198
1100,1254
1091,1221
1127,1230
1115,1239
1125,1244
1121,1226
1110,1230
1123,1266
1131,1225
1130,1264
1126,1257
1132,1249
1123,1208
1135,1251
1134,1220
1111,1247
1096,1212
1143,1268
1089,1237
1095,1226
1116,1242
1105,1244
1112,1252
1101,1236
1138,1233
1094,1258
1127,1231
1132,1230
1115,1221
1135,1244
1113,1259
1129,1237
1124,1254
1130,1249
1101,1243
1114,1226
1083,1264
1131,1222
1132,1254
1100,1236
1125,1272
1103,1228
1144,1235
1106,1260
1140,1260
1080,1250
1106,1234
1117,1271
1123,1221
1117,1246
1102,1229
1130,1240
1108,1232
1124,1236
1119,1260
1105,1203
1094,1226
1130,1224
1117,1242
1117,1228
1116,1259
1121,1252
1159,1265
1169,1293
1175,1344
1200,1333
1277,1368
1292,1451
1360,1481
1369,1528
1448,1622
1482,1673
1623,1794
1734,1951
1908,2144
2074,2381
2383,2665
2662,3073
2970,3397
3270,3718
3500,4012
3722,4249
3929,4450
4071,4628
4251,4745
4343,4881
4428,4971
4555,5053
4623,5156
4686,5229
4759,5290
4776,5352
4811,5387
4802,5412
4817,5448
4812,5484
4832,5540
4866,5607
4852,5680
4909,5789
4945,5860
5017,5965
5116,6102
5195,6237
5286,6372
5312,6466
5428,6617
5505,6720
5550,6839
5701,7014
5804,7192
5973,7366
6091,7559
6169,7705
6323,7871
6388,7951
6487,8046
6514,8122
6605,8232
6663,8366
6748,8428
6793,8499
6857,8632
6944,8710
7020,8781
7051,8884
7112,8940
7136,8913
7064,8882
7023,8805
6917,8634
6763,8472
6616,8285
6438,8021
6231,7730
6031,7449
5858,7191
5611,6940
5437,6655
5280,6439
5115,6195
4957,5979
4742,5769
4582,5580
4386,5346
4263,5182
4106,5003
3935,4799
3845,4684
3776,4606
3702,4546
3642,4478
3636,4467
3627,4427
3608,4420
3636,4452
3682,4509
3680,4532
3723,4577
3768,4643
3813,4721
3913,4850
3946,4903
4001,5005
4057,5090
4133,5131
4186,5253
4206,5332
4312,5463
4443,5602
4535,5792
4653,5956
4813,6193
4933,6370
5089,6559
5180,6670
5313,6865
5436,6984
5569,7158
5665,7306
5746,7473
5864,7632
6007,7793
6091,7950
6217,8107
6346,8287
6476,8444
6585,8630
6670,8750
6750,8848
6849,8968
6899,9087
6934,9152
7044,9245
7097,9358
7157,9461
7197,9560
7248,9541
7250,9602
7225,9595
7191,9587
7164,9526
7176,9542
7162,9521
7220,9583
7273,9718
7349,9843
7490,9963
7605,10175
7752,10369
7870,10554
8035,10729
8166,10946
8288,11114
8405,11319
8585,11527
8715,11749
8893,11983
9121,12314
9376,12648
9622,13034
9977,13506
10331,14004
10731,14582
11223,15271
11755,15977
12258,16751
12921,17633
13579,18558
14280,19537
15041,20604
15840,21720
16747,22997
17643,24323
18708,25739
19728,27202
20818,28768
21926,30296
23058,31923
24157,33490
25195,34968
26310,36483
27394,38052
28589,39639
29808,41288
31138,43122
32517,45056
34119,47141
35816,49442
37738,51921
40121,55093
43034,59001
46666,63729
50904,69093
55720,75275
60807,81607
65958,87537
70327,92479
72920,94320
74247,94589
76489,95821
77496,95544
77555,94441
77100,92916
76752,91539
77079,91519
78055,92562
78808,93374
79233,93768
79672,94215
80095,94594
80443,94868
80683,95078
80937,95198
81241,95501
81538,95728
81819,95895
81826,96056
81974,96180
82401,96518
82814,96813
83261,97104
83553,97309
83857,97481
84237,97755
84586,98019
84903,98219
85101,98221
85295,98256
85607,98507
85863,98692
86147,98845
86277,98942
86454,98997
86723,99172
87034,99404
87313,99604
87488,99696
87658,99731
87991,99976
88270,100232
88500,100347
88735,100503
88948,100557
89249,100787
89620,101030
89885,101266
90169,101356
90397,101472
90805,101729
91143,102012
91492,102175
91810,102374
92040,102431
92423,102743
92808,102952
93188,103176
93567,103376
93910,103566
94385,103868
94822,104123
95175,104326
95492,104426
95752,104518
96040,104763
96323,104918
96474,104997
96648,105073
96732,105073
96965,105204
97080,105361
97173,105383
97242,105382
97295,105338
97464,105467
97589,105565
97681,105624
97710,105622
97758,105597
97956,105738
98096,105856
98172,105894
98257,105911
98147,105909
98327,106030
98474,106131
98587,106167
98653,106195
98691,106175
98891,106288
99056,106431
99161,106482
99225,106510
99255,106472
99464,106651
99593,106725
99677,106759
99686,106759
99715,106744
99860,106861
99938,106904
99994,106922
100011,106918
100051,106887
100145,107016
100260,107040
100358,107090
100416,107075
100415,107081
100609,107216
100753,107296
100817,107277
100860,107321
100921,107308
101060,107438
101140,107491
101244,107505
101215,107499
101256,107472
101392,107610
101475,107675
101495,107669
101537,107655
101564,107649
101713,107770
101762,107805
101852,107854
101825,107795
101915,107801
101982,107896
102125,107962
102117,107982
102151,107940
102199,107962
102283,108042
102365,108067
102403,108094
102367,108016
102467,108053
102510,108123
102592,108141
102565,108161
102505,108049
102508,108039
102576,108107
102568,108128
102523,108036
102409,108021
102357,107935
102379,107970
102316,107997
102235,107915
102109,107802
102050,107774
102024,107796
102003,107775
101934,107754
101828,107668
101763,107631
101796,107710
101751,107668
101698,107637
101642,107580
101647,107557
101718,107646
101666,107669
101683,107628
101649,107582
101625,107604
101745,107674
101776,107715
101768,107642
101736,107647
101806,107642
101831,107712
101935,107769
101911,107764
101857,107694
101937,107697
101994,107807
102053,107825
102052,107800
102046,107751
102108,107822
102168,107863
102245,107929
102255,107894
102222,107874
102261,107849
102321,107975
102366,107970
102400,107918
102375,107904
102400,107969
102474,107986
102505,107993
102539,108019
102514,107980
102553,107985
102645,108058
102682,108089
102716,108106
102662,108034
102718,108035
102769,108127
102880,108146
102805,108134
102826,108078
102860,108127
102910,108156
102947,108199
102929,108143
102916,108107
102917,108122
102976,108171
103010,108176
102975,108166
102960,108093
103018,108190
103099,108182
103103,108220
103089,108214
103067,108151
103106,108215
103164,108239
103212,108275
103227,108257
103173,108211
103266,108258
103317,108332
103333,108324
103372,108298
103274,108282
103340,108316
103416,108377
103444,108362
103433,108365
103375,108310
103452,108349
103488,108385
103532,108391
103503,108364
103491,108336
103515,108412
103588,108431
103612,108448
103601,108444
103549,108391
103632,108442
103675,108506
103718,108496
103694,108459
103682,108428
103735,108482
103819,108521
103847,108558
103815,108512
103794,108497
103859,108517
103968,108582
103972,108632
103958,108558
103944,108563
103997,108612
104053,108655
104059,108620
104045,108648
103998,108578
104094,108633
104146,108683
104178,108670
104128,108643
104106,108606
104202,108667
104248,108696
104244,108731
104226,108691
104192,108628
104273,108739
104308,108757
104355,108746
104290,108754
104266,108695
104363,108751
104402,108791
104376,108792
104397,108756
104340,108732
104428,108794
104435,108812
104496,108795
104459,108797
104443,108746
104500,108801
104546,108829
104602,108868
104516,108799
104521,108791
104585,108848
104651,108925
104636,108882
104640,108862
104577,108863
104642,108854
104677,108925
104732,108913
104649,108873
104633,108854
104681,108885
104698,108920
104670,108859
104563,108807
104534,108764
104524,108818
104504,108808
104478,108764
104380,108720
104282,108641
104335,108702
104250,108720
104217,108636
104111,108619
104026,108531
104022,108558
104010,108576
103912,108530
103868,108491
103758,108420
103830,108441
103790,108457
103685,108419
103652,108377
103569,108342
103588,108321
103614,108374
103531,108334
103470,108272
103412,108292
103462,108268
103454,108337
103388,108292
103377,108261
103285,108239
103357,108287
103346,108261
103333,108259
103260,108205
103246,108184
103289,108251
103279,108271
103247,108267
103210,108151
103226,108176
103225,108254
103228,108253
103251,108241
103207,108166
103152,108141
103237,108223
103261,108257
103243,108234
103193,108179
103202,108164
103250,108232
103292,108269
103300,108255
103248,108216
103245,108199
103330,108268
103325,108297
103345,108250
103282,108228
103270,108217
103379,108319
103400,108318
103353,108287
103282,108228
103323,108239
103364,108294
103395,108327
103334,108290
103306,108199
103292,108230
103342,108250
103375,108283
103323,108252
103255,108205
103215,108166
103267,108238
103273,108245
103289,108216
103195,108201
103172,108149
103277,108229
103250,108220
103226,108202
103140,108155
103174,108172
103208,108189
103239,108206
103179,108156
103143,108129
103138,108166
103159,108155
103188,108211
103137,108169
103092,108099
103154,108136
103153,108202
103180,108203
103161,108161
103095,108098
103131,108125
103159,108160
103195,108208
103196,108181
103083,108118
103126,108127
103226,108220
103202,108227
103170,108167
103176,108141
103169,108144
103265,108213
103256,108221
103240,108166
103179,108178
103209,108175
103288,108228
103288,108244
103259,108213
103185,108164
103241,108153
103303,108260
103298,108273
103276,108214
103263,108175
103280,108208
103363,108252
103349,108280
103341,108242
103306,108187
103346,108206
103423,108294
103436,108287
103409,108245
103393,108228
103412,108262
103474,108296
103522,108309
103471,108293
103422,108248
103464,108239
103514,108331
103562,108328
103531,108318
103457,108258
103523,108278
103549,108342
103602,108342
103545,108329
103499,108224
103615,108312
103613,108328
103652,108356
103632,108349
103566,108279
103613,108333
103694,108395
103662,108380
103673,108309
103621,108312
103654,108333
103671,108348
103688,108358
103600,108333
103519,108246
103566,108289
103553,108277
103537,108265
103458,108195
103378,108149
103308,108164
103316,108157
103253,108128
103133,108076
103009,107940
103046,108010
102974,107986
102939,107972
102827,107885
102722,107813
102692,107861
102644,107841
102644,107812
102485,107785
102430,107711
102412,107708
102415,107724
102349,107716
102267,107621
102195,107601
102232,107616
102190,107620
102178,107625
102151,107601
102017,107532
102085,107551
102108,107601
102097,107581
102052,107583
101981,107514
102066,107527
102084,107601
102119,107592
102060,107558
102043,107545
102085,107560
102163,107669
102158,107634
102125,107598
102103,107558
102236,107649
102261,107695
102300,107697
102224,107639
102228,107639
102285,107688
102347,107713
102425,107745
102351,107676
102368,107671
102426,107750
102478,107771
102500,107804
102459,107728
102492,107726
102532,107793
102575,107824
102601,107843
102536,107782
102556,107733
102611,107843
102668,107831
102620,107838
102617,107793
102561,107778
102668,107816
102661,107818
102659,107841
102571,107795
102581,107738
102621,107836
102637,107811
102663,107815
102561,107751
102571,107734
102608,107791
102598,107843
102570,107758
102556,107742
102468,107700
102567,107754
102561,107819
102512,107739
102500,107733
102437,107699
102544,107756
102527,107787
102557,107750
102488,107749
102420,107672
102533,107746
102538,107756
102502,107730
102467,107681
102408,107696
102511,107718
102517,107766
102491,107696
102442,107646
102443,107666
102486,107720
102510,107749
102510,107708
102445,107692
102419,107672
102510,107731
102561,107757
102540,107779
102530,107685
102517,107707
102581,107754
102633,107793
102619,107766
102541,107700
102610,107718
102656,107782
102688,107829
102719,107797
102689,107776
102703,107791
102764,107823
102806,107876
102788,107815
102811,107826
102773,107805
102852,107870
102901,107872
102911,107880
102863,107818
102919,107841
102977,107940
102989,107935
103042,107917
102984,107922
102995,107912
103090,108011
103131,107981
103162,107989
103073,107969
103120,107956
103201,108030
103219,108055
103219,108061
103212,107993
103221,108026
103290,108063
103322,108127
103308,108068
103253,108032
103283,108029
103369,108090
103392,108122
103375,108083
103282,108020
103319,108034
103318,108120
103319,108078
103265,108029
103175,107967
103113,107934
103149,107956
103115,107958
103000,107907
102912,107795
102882,107820
102797,107808
102773,107784
102644,107699
102566,107634
102500,107605
102433,107619
102393,107618
102316,107505
102175,107459
102116,107419
102114,107469
102060,107465
101930,107396
101819,107281
101838,107305
101778,107324
101740,107310
101680,107262
101609,107185
101590,107224
101590,107217
101602,107260
101532,107189
101444,107106
101493,107179
101509,107199
101562,107192
101478,107181
101466,107153
101498,107175
101539,107229
101537,107239
101538,107177
101528,107197
101575,107217
101618,107257
101627,107270
101677,107227
101615,107238
101676,107254
101784,107317
101810,107341
101794,107345
101758,107286
101844,107317
101924,107412
101959,107414
101944,107404
101939,107383
101974,107409
102049,107470
102046,107475
102057,107433
102059,107423
102090,107449
102127,107458
102178,107496
102138,107490
102089,107394
102165,107466
102187,107491
102233,107504
102144,107505
102109,107418
102158,107458
102212,107498
102167,107479
102127,107487
102057,107370
102095,107430
102105,107444
102122,107451
102048,107428
101969,107347
102084,107393
102067,107440
102068,107417
102047,107393
101964,107347
102000,107412
102087,107386
102030,107445
102022,107401
101943,107315
101980,107386
102046,107423
102028,107408
101961,107326
101926,107359
101990,107375
102012,107411
102007,107383
101975,107379
101973,107292
101989,107385
102074,107421
102027,107418
102010,107352
102018,107363
102049,107396
102087,107449
102078,107440
102094,107411
102082,107373
102145,107426
102154,107508
102159,107442
102175,107441
102140,107402
102206,107476
102289,107490
102279,107500
102245,107470
102243,107430
102282,107523
102352,107527
102358,107567
102322,107506
102349,107522
102431,107568
102476,107606
102436,107598
102453,107544
102430,107551
102528,107626
102573,107629
102528,107647
102543,107618
102512,107566
102649,107660
102629,107677
102653,107667
102631,107635
102614,107654
102657,107657
102762,107724
102731,107677
102702,107678
102675,107628
102794,107705
102789,107755
102780,107710
102782,107682
102755,107689
102857,107709
102872,107796
102819,107736
102791,107700
102781,107681
102791,107713
102807,107735
102779,107699
102685,107615
102604,107611
102621,107607
102542,107647
102430,107548
102368,107441
102258,107449
102221,107410
102166,107434
102066,107332
101967,107263
101873,107194
101830,107249
101792,107210
101654,107170
101561,107056
101452,107051
101450,107025
101378,107073
101304,106992
101196,106926
101139,106904
101148,106917
101134,106925
101079,106875
101001,106827
100951,106796
101018,106868
101028,106882
100989,106850
100934,106797
100937,106808
100987,106849
100993,106864
101009,106872
100972,106818
100995,106839
101104,106919
101117,106941
101158,106936
101119,106892
101145,106884
101254,107003
101327,107016
101292,107006
101281,106958
101324,106978
101425,107061
101459,107105
101448,107101
101434,107035
101501,107073
101583,107151
101609,107175
101621,107121
101614,107139
101657,107141
101771,107187
101809,107262
101748,107207
101731,107148
101802,107201
101852,107255
101892,107313
101854,107240
101850,107212
101895,107234
101901,107290
101923,107289
101920,107217
101831,107238
101849,107248
101907,107314
101930,107283
101911,107271
101846,107201
101851,107202
101924,107273
101913,107261
101877,107243
101801,107162
101841,107198
101862,107268
101883,107268
101807,107202
101756,107175
101792,107143
101855,107246
101847,107206
101796,107216
101767,107137
101778,107177
101818,107190
101820,107232
101814,107183
101708,107129
101787,107167
101813,107181
101841,107235
101811,107193
101759,107151
101819,107169
101838,107259
101888,107238
101799,107197
101812,107169
101841,107210
101908,107219
101892,107258
101906,107225
101805,107172
101905,107210
101960,107275
101971,107276
101979,107270
101900,107209
102003,107262
102023,107290
102036,107326
102041,107285
101975,107248
102069,107295
102156,107373
102169,107370
102140,107343
102083,107303
102126,107343
102220,107365
102233,107417
102229,107387
102164,107325
102263,107362
102319,107441
102327,107420
102327,107421
102258,107401
102322,107424
102416,107475
102393,107487
102402,107442
102356,107404
102420,107471
102438,107497
102460,107479
102451,107476
102390,107426
102447,107477
102477,107495
102435,107512
102401,107405
102334,107421
102330,107412
102318,107400
102283,107387
102198,107327
102045,107250
102093,107247
102036,107281
101950,107229
101806,107153
101697,107040
101734,107076
101632,107098
101530,107035
101438,106949
101326,106842
101316,106914
101224,106873
101189,106856
101080,106799
100971,106698
100966,106737
100954,106761
100873,106721
100806,106678
100759,106610
100776,106664
100781,106713
100714,106660
100675,106615
100659,106591
100703,106632
100748,106689
100739,106661
100741,106635
100698,106622
100804,106673
100823,106723
100855,106714
100833,106704
100833,106632
100984,106736
100936,106780
100960,106753
100980,106762
100999,106780
101057,106811
101173,106889
101120,106864
101119,106834
101172,106842
101259,106909
101327,106944
101303,106951
101314,106887
101350,106904
101438,106972
101486,107027
101472,106989
101496,106969
101446,106965
101552,107014
101598,107082
101594,107028
101536,107020
101540,106962
101613,107075
101581,107102
101572,107049
101552,107029
101506,106972
101557,107025
101601,107092
101577,107028
101510,106998
101473,106956
101548,106987
101510,107044
101487,106974
101446,106961
101412,106908
101458,106991
101437,106992
101420,106934
101359,106913
101336,106902
101413,106950
101393,106950
101391,106949
101290,106910
101292,106858
101364,106942
101379,106956
101325,106923
101315,106893
101275,106865
101372,106898
101361,106948
101360,106925
101290,106875
101284,106884
101378,106934
101409,106948
101358,106939
101306,106871
101352,106901
101430,106991
101472,106966
101420,106991
101393,106906
101407,106903
101444,106971
101511,107013
101445,107000
101423,106913
101437,106926
101530,107002
101527,107016
101555,106993
101468,106982
101522,106963
101597,107056
101602,107064
101593,107042
101584,107000
101620,107071
101675,107095
101707,107111
101728,107081
101665,107063
101705,107085
101813,107146
101807,107191
101794,107140
101767,107081
101828,107122
101865,107162
101945,107219
101884,107193
101839,107108
101920,107176
101974,107204
101963,107255
101943,107169
101888,107156
101905,107155
101919,107228
101910,107164
101781,107145
101721,107037
101654,107027
101664,107082
101622,107035
101478,106979
101378,106830
101299,106904
101244,106849
101199,106795
101065,106772
100886,106648
100854,106600
100797,106649
100686,106593
100579,106488
100412,106437
100365,106387
100327,106406
100221,106376
100174,106305
100014,106256
100009,106260
100016,106265
99974,106282
99939,106221
99841,106153
99891,106198
99967,106246
99949,106281
99920,106202
99886,106153
99950,106254
100035,106310
100013,106286
100049,106282
99978,106238
100085,106289
100143,106348
100139,106347
100179,106337
100130,106249
100268,106370
100289,106434
100320,106434
100327,106395
100321,106385
100388,106411
100503,106496
100511,106536
100506,106492
100521,106469
100616,106522
100686,106589
100679,106596
100718,106602
100663,106528
100748,106611
100811,106662
100879,106654
100816,106640
100753,106567
100901,106665
100911,106687
100947,106719
100916,106656
100896,106641
100907,106684
101009,106701
100960,106748
100939,106676
100885,106654
100941,106665
101034,106754
100993,106709
100933,106693
100899,106662
100950,106678
100971,106691
100992,106703
100915,106675
100858,106613
100934,106660
100946,106683
100965,106707
100880,106661
100868,106606
100909,106665
100960,106708
100915,106695
100900,106636
100845,106658
100919,106683
100944,106731
100943,106682
100945,106662
100878,106664
100956,106698
101001,106731
100977,106725
100988,106707
100938,106679
101034,106715
101064,106751
101084,106781
101058,106732
100995,106680
101121,106755
101142,106813
101140,106816
101120,106772
101139,106723
101198,106819
101224,106863
101255,106839
101271,106835
101235,106787
101321,106887
101379,106905
101399,106910
101351,106890
101335,106826
101407,106933
101471,106966
101484,106958
101460,106879
101399,106910
101488,106951
101563,106999
101547,106999
101519,106927
101540,106943
101618,107043
101628,107013
101658,107035
101638,106990
101643,106992
101695,107058
101759,107067
101714,107076
101645,107014
101680,106984
101736,107054
101666,107084
101621,107007
101605,106948
101517,106928
101548,106961
101481,106918
101431,106893
101314,106803
101206,106766
101243,106787
101148,106781
101029,106709
100922,106585
100812,106596
100795,106589
100773,106598
100653,106500
100515,106426
100482,106413
100414,106450
100392,106415
100297,106383
100226,106277
100126,106238
100210,106312
100132,106312
100081,106251
100046,106203
99978,106194
100052,106259
100037,106263
100001,106225
99934,106156
99977,106204
100042,106241
100067,106269
100015,106255
100018,106178
100051,106244
100141,106291
100145,106317
100157,106300
100162,106242
100180,106314
100261,106348
100346,106398
100356,106367
100310,106319
100398,106384
100452,106476
100488,106454
100526,106482
100474,106423
100544,106472
100569,106532
100675,106540
100658,106545
100614,106496
100684,106521
100745,106607
100772,106596
100801,106598
100713,106541
100784,106582
100827,106617
100867,106666
100849,106610
100857,106583
100839,106615
100938,106648
100972,106686
100929,106644
100868,106595
100930,106647
100963,106662
100993,106704
100950,106664
100870,106582
100935,106637
100975,106671
100934,106675
100938,106647
100889,106582
100919,106618
100959,106664
100987,106675
100961,106646
100896,106582
100959,106640
100995,106672
100979,106685
100978,106662
100934,106582
100949,106647
100961,106681
101027,106687
100992,106649
100968,106615
100992,106656
101034,106715
101070,106722
101059,106712
101025,106644
101060,106713
101156,106749
101185,106782
101127,106766
101126,106688
101171,106756
101260,106811
101236,106822
101240,106784
101242,106750
101257,106786
101346,106855
101349,106862
101371,106861
101294,106774
101364,106874
101437,106899
101454,106900
101467,106874
101396,106837
101486,106879
101545,106954
101547,106930
101543,106918
101493,106876
101588,106939
101644,106984
101649,107003
101654,106961
101615,106948
101727,107020
101749,107028
101773,107060
101724,107006
101700,106993
101798,107034
101816,107073
101849,107061
101828,107020
101813,106997
101840,107041
101886,107089
101892,107061
101827,107053
101781,107001
101791,106998
101758,107014
101744,107018
101623,106936
101567,106852
101566,106895
101514,106891
101422,106848
101311,106773
101235,106710
101208,106707
101129,106712
101067,106650
100961,106568
100854,106535
100827,106557
100753,106548
100709,106484
100628,106451
100521,106339
100508,106388
100513,106388
100438,106377
100382,106351
100336,106259
100353,106302
100376,106345
100345,106321
100319,106291
100245,106251
100330,106307
100310,106348
100332,106307
100333,106310
100275,106245
100382,106344
100414,106353
100429,106341
100387,106351
100401,106292
100515,106396
100542,106397
100518,106412
100528,106373
100500,106395
100590,106413
100645,106466
100621,106465
100582,106424
100631,106400
100717,106516
100727,106495
100779,106532
100748,106452
100776,106457
100845,106569
100843,106537
100914,106587
100844,106545
100878,106507
100936,106591
101010,106625
100960,106623
100925,106561
100978,106594
101013,106621
101078,106646
101046,106670
100994,106593
101025,106569
101060,106665
101112,106668
101062,106661
101038,106580
101014,106606
101055,106619
101125,106665
101061,106644
101018,106612
101038,106581
101108,106660
101046,106630
101086,106641
101035,106614
101011,106580
101076,106643
101066,106650
101076,106609
101028,106624
101012,106597
101090,106627
101108,106657
101107,106638
101045,106635
101055,106582
101146,106643
101145,106681
101132,106631
101148,106642
101097,106620
101194,106688
101236,106698
101227,106702
101156,106669
101228,106658
101258,106749
101284,106729
101314,106740
101269,106688
101282,106695
101342,106784
101395,106782
101360,106781
101367,106763
101371,106716
101435,106791
101494,106843
101437,106787
101423,106755
101448,106749
101530,106840
101557,106855
101546,106874
101498,106786
101547,106834
101622,106885
101632,106907
101625,106900
101591,106839
101626,106900
101709,106930
101738,106960
101718,106936
101671,106865
101726,106937
101781,106964
101827,106968
101810,106959
101790,106926
101798,106947
101896,106994
101898,107057
101865,106991
101874,106963
101887,107024
101906,107019
101971,107069
101920,107031
101871,106978
101965,107007
101969,107040
101968,107059
101879,106985
101822,106882
101816,106938
101838,106945
101785,106943
101655,106864
101599,106791
101545,106820
101507,106821
101489,106753
101342,106716
101268,106644
101207,106626
101198,106611
101111,106619
101036,106548
100925,106467
100917,106456
100902,106472
100839,106494
100790,106436
100697,106337
100708,106366
100698,106426
100647,106379
100616,106378
100531,106273
100589,106344
100575,106369
100582,106323
100566,106334
100469,106314
100559,106317
100589,106359
100579,106355
100588,106342
100528,106278
100601,106358
100621,106389
100662,106392
100657,106374
100644,106364
100692,106338
100733,106441
100737,106405
100732,106416
100723,106381
100746,106407
100835,106469
100818,106486
100810,106427
100816,106429
100883,106473
100956,106518
100910,106504
100937,106497
100911,106472
100958,106479
101024,106571
101008,106555
101038,106529
101013,106495
101064,106562
101102,106599
101114,106619
101066,106571
101056,106510
101152,106613
101143,106613
101177,106639
101116,106602
101089,106530
101171,106640
101161,106635
101202,106633
101143,106587
101168,106566
101187,106625
101172,106612
101231,106648
101115,106586
101137,106569
101175,106603
101219,106612
101183,106604
101177,106597
101150,106555
101160,106580
101224,106633
101200,106597
101178,106614
101098,106540
101175,106604
101242,106640
101227,106654
101197,106602
101194,106540
101242,106661
101271,106649
101294,106658
101254,106634
101229,106602
101343,106666
101349,106708
101339,106673
101337,106653
101280,106645
101395,106715
101398,106707
101413,106746
101396,106684
101366,106675
101447,106743
101457,106720
101516,106755
101440,106711
101424,106705
101555,106779
101580,106806
101546,106806
101538,106733
101560,106731
101609,106799
101690,106840
101665,106814
101642,106803
101609,106780
101714,106847
101741,106876
101752,106856
101695,106830
101722,106787
101762,106876
101840,106921
101832,106893
101752,106854
101785,106871
101831,106879
101914,106928
101856,106940
101808,106877
101876,106900
101915,106936
101945,106979
101965,106997
101878,106920
101926,106904
101982,106980
102025,107022
102020,106966
101977,106951
101957,106936
102052,106984
102050,107002
102065,107032
101970,106968
102040,106935
102065,106992
102113,107037
102079,107025
102030,106969
102074,106976
102101,107024
102112,107019
102055,106995
101994,106953
101979,106892
102035,106977
101973,106983
101905,106874
101824,106860
101784,106825
101748,106841
101713,106813
101670,106764
101515,106678
101509,106664
101450,106676
101446,106683
101318,106586
101231,106530
101187,106548
101173,106536
101121,106531
101032,106470
100950,106386
100904,106423
100926,106412
100937,106405
100819,106421
100745,106316
100775,106310
100793,106392
100742,106346
100754,106328
100710,106279
100736,106304
100750,106370
100738,106327
100755,106345
100712,106279
100715,106318
100812,106349
100749,106393
100771,106335
100748,106310
100758,106325
100793,106361
100858,106404
100803,106374
100789,106306
100810,106379
100882,106424
100932,106429
100845,106395
100859,106341
100913,106402
100964,106435
101002,106472
100960,106455
100971,106394
100983,106462
101042,106467
101092,106518
101034,106479
101026,106458
101078,106502
101142,106505
101166,106556
101124,106490
101073,106471
101144,106495
101175,106531
101223,106532
101186,106568
101104,106472
101176,106514
101229,106539
101239,106567
101185,106532
101116,106460
101176,106521
101236,106557
101185,106544
101191,106532
101126,106494
101186,106484
101221,106563
101214,106558
101155,106518
101128,106434
101175,106551
101228,106544
101221,106566
101155,106536
101154,106493
101212,106501
101211,106574
101281,106577
101249,106533
101209,106514
101261,106552
101263,106566
101299,106601
101295,106558
101234,106519
101282,106560
101374,106609
101391,106622
101350,106600
101314,106564
101398,106616
101459,106652
101435,106668
101440,106630
101418,106603
101436,106635
101529,106701
101504,106710
101512,106681
101485,106609
101546,106669
101561,106706
101585,106720
101526,106728
101544,106651
101614,106733
101632,106766
101673,106729
101639,106753
101638,106723
101708,106738
101719,106774
101728,106817
101732,106744
101683,106746
101734,106801
101825,106823
101794,106837
101766,106778
101759,106766
101840,106828
101871,106850
101869,106887
101859,106824
101816,106798
101887,106886
101924,106897
101919,106879
101946,106880
101912,106842
101971,106911
101987,106893
101994,106908
101978,106897
101957,106884
102032,106895
102086,106934
102035,106963
102014,106885
101997,106876
102074,106971
102083,106954
102130,106933
102071,106902
102092,106908
102119,106948
102168,106975
102158,107025
102157,106938
102106,106945
102199,106985
102211,107009
102227,107008
102177,106964
102157,106944
102276,107012
102279,107030
102269,107027
102240,107011
102202,106976
102332,107057
102316,107075
102318,107062
102254,107012
102306,106974
102331,107094
102374,107075
102331,107050
102258,106990
102313,107021
102283,107012
102308,107059
102270,106995
102183,106960
102123,106899
102197,106954
102135,106946
102058,106897
101942,106833
101879,106810
101899,106803
101876,106808
101784,106749
101702,106704
101603,106652
101659,106690
101586,106672
101531,106636
101410,106553
101386,106539
101361,106588
101352,106552
101300,106538
101182,106458
101205,106452
101207,106502
101166,106485
101155,106439
101066,106407
101077,106407
101077,106458
101117,106458
101044,106418
101019,106372
101012,106363
101018,106433
101051,106430
101044,106392
100968,106375
100970,106343
101055,106426
101071,106475
101080,106417
101017,106412
101004,106386
101119,106435
101129,106488
101093,106455
101072,106420
101119,106420
101158,106500
101199,106495
101199,106491
101185,106442
101188,106490
101238,106513
101283,106559
101287,106519
101272,106504
101304,106522
101367,106619
101354,106598
101377,106577
101346,106555
101343,106548
101436,106603
101414,106635
101409,106618
101349,106532
101431,106552
101449,106608
101506,106625
101410,106605
101385,106534
101447,106615
101448,106619
101453,106643
101430,106595
101401,106536
101435,106617
101451,106590
101508,106608
101424,106608
101380,106554
101434,106583
101450,106638
101454,106610
101455,106625
101397,106550
101406,106576
101460,106659
101466,106627
101430,106597
101375,106534
101417,106574
101442,106633
101503,106621
101424,106587
101387,106523
101446,106597
101490,106629
101485,106641
101446,106591
101475,106575
101450,106627
101513,106633
101545,106632
101488,106639
101475,106574
101535,106628
101552,106674
101563,106648
101538,106677
101486,106609
101562,106625
101636,106701
101584,106717
101583,106641
101548,106613
101625,106666
101669,106713
101657,106739
101633,106658
101622,106671
101650,106711
101699,106742
101701,106724
101702,106740
101627,106666
101731,106705
101729,106774
101721,106763
101752,106735
101663,106685
101784,106762
101769,106770
101798,106769
101756,106750
101748,106718
101788,106761
101844,106788
101831,106782
101834,106751
101797,106733
101880,106779
101862,106850
101866,106799
101875,106792
101822,106718
101900,106816
101917,106829
101913,106813
101857,106751
101886,106754
101910,106828
101974,106842
101924,106848
101933,106806
101911,106797
101941,106832
101995,106890
101990,106853
101917,106834
101951,106785
102020,106883
102014,106870
101994,106901
102018,106861
101949,106826
102069,106866
102053,106923
102040,106861
102045,106875
102002,106855
102042,106870
102089,106902
102092,106905
102033,106854
102006,106863
102087,106915
102092,106896
102064,106887
102066,106830
101971,106829
102007,106853
102000,106870
101958,106817
101901,106783
101800,106757
101849,106749
101820,106777
101777,106735
101659,106650
101592,106601
101600,106672
101557,106618
101496,106605
101362,106548
101312,106437
101350,106531
101265,106493
101211,106457
101087,106381
101071,106348
101096,106357
101052,106385
100989,106346
100894,106297
100838,106269
100863,106265
100864,106320
100756,106260
100741,106216
100741,106202
100774,106228
100761,106251
100757,106264
100666,106187
100688,106166
100769,106272
100774,106236
100783,106256
100735,106191
100804,106227
100828,106315
100883,106294
100873,106300
100806,106290
100840,106237
100920,106347
100928,106312
100934,106351
100902,106324
100916,106307
101028,106364
101059,106418
101066,106365
100999,106372
101058,106358
101119,106442
101163,106462
101197,106421
101120,106412
101176,106398
101222,106465
101229,106495
101245,106499
101207,106440
101225,106433
101273,106510
101269,106513
101312,106523
101216,106447
101234,106450
101300,106547
101321,106501
101262,106475
101251,106470
101244,106450
101300,106502
101309,106514
101257,106459
101213,106432
101242,106452
101255,106474
101291,106489
101272,106487
101210,106417
101263,106460
101255,106476
101312,106532
101259,106482
101245,106439
101267,106461
101288,106537
101290,106526
101314,106495
101254,106478
101257,106465
101357,106533
101356,106543
101328,106543
101283,106453
101339,106532
101399,106521
101423,106576
101420,106564
101342,106461
101415,106528
101448,106548
101463,106580
101444,106606
101446,106564
101460,106559
101509,106628
101519,106597
101513,106612
101471,106535
101553,106579
101555,106662
101570,106639
101633,106650
101519,106565
101596,106622
101651,106692
101647,106687
101673,106673
101576,106614
101661,106685
101699,106692
101720,106713
101721,106668
101705,106659
101725,106741
101799,106706
101788,106764
101772,106730
101688,106657
101815,106707
101806,106782
101821,106726
101833,106752
101796,106696
101861,106745
101864,106770
101922,106800
101859,106778
101845,106729
101886,106753
101941,106794
101948,106814
101895,106743
101858,106734
101952,106781
101933,106822
101960,106821
101958,106780
101913,106773
102006,106775
102017,106850
102039,106835
102039,106805
101934,106796
102009,106799
102092,106881
102057,106854
102063,106837
102013,106827
102032,106818
102084,106895
102050,106872
102058,106826
102020,106810
102045,106821
102049,106877
101999,106839
101970,106758
101887,106718
101877,106732
101859,106748
101839,106728
101706,106658
101669,106578
101641,106608
101614,106640
101542,106576
101460,106485
101393,106492
101322,106500
101312,106519
101270,106463
101172,106410
101101,106319
101121,106396
101064,106371
101001,106340
100943,106290
100902,106256
100901,106311
100891,106293
100883,106287
100791,106239
100785,106213
100804,106253
100799,106254
100790,106252
100746,106204
100723,106174
100752,106228
100812,106255
100764,106253
100746,106194
100728,106190
100778,106246
100821,106256
100816,106266
100769,106198
100763,106204
100830,106270
100878,106296
100812,106275
100846,106249
100856,106246
100869,106286
100925,106342
100936,106327
100899,106262
100934,106282
101002,106327
101027,106376
101008,106363
101035,106340
101056,106321
101096,106391
101122,106413
101104,106358
101118,106375
101068,106335
101161,106422
101150,106431
101153,106400
101140,106393
101115,106350
101184,106401
101237,106447
101172,106441
101135,106355
101160,106370
101228,106406
101219,106466
101161,106397
101114,106402
101123,106384
101190,106419
101205,106464
101184,106404
101093,106407
101096,106372
101145,106423
101184,106408
101159,106408
101077,106361
101077,106349
101195,106435
101144,106435
101123,106387
101125,106386
101118,106385
101140,106420
101196,106436
101192,106443
101111,106342
101168,106388
101191,106455
101182,106447
101226,106431
101136,106438
101181,106410
101222,106475
101251,106489
101240,106486
101205,106408
101246,106413
101295,106510
101298,106511
101299,106482
101309,106496
101313,106491
101387,106527
101405,106545
101415,106530
101386,106509
101444,106536
101489,106597
101472,106556
101498,106578
101409,106545
101496,106545
101547,106621
101567,106644
101556,106658
101546,106547
101575,106613
101626,106639
101640,106657
101637,106651
101625,106612
101630,106612
101685,106688
101738,106711
101708,106662
101673,106650
101728,106662
101755,106725
101798,106756
101783,106726
101713,106651
101778,106698
101826,106730
101823,106764
101827,106737
101771,106667
101857,106750
101907,106784
101876,106802
101904,106765
101865,106716
101896,106732
101938,106812
101936,106797
101946,106822
101884,106701
101941,106762
101993,106838
101989,106820
101969,106774
101930,106793
101977,106816
102038,106864
102051,106844
101995,106852
101978,106786
102012,106818
102073,106872
102112,106887
102091,106828
101992,106821
102068,106837
102108,106898
102119,106873
102118,106867
102021,106791
102060,106829
102071,106843
102000,106823
101970,106770
101858,106697
101847,106707
101817,106710
101790,106697
101692,106658
101564,106539
101543,106574
101503,106582
101415,106525
101373,106450
101224,106388
101207,106399
101179,106394
101069,106380
100972,106268
100875,106261
100868,106253
100848,106258
100791,106201
100727,106167
100610,106090
100652,106130
100605,106179
100592,106155
100499,106110
100494,106056
100471,106075
100524,106136
100508,106101
100439,106074
100420,106043
100463,106057
100492,106129
100502,106115
100458,106084
100464,106030
100550,106136
100538,106131
100558,106131
100532,106150
100540,106068
100598,106174
100621,106159
100632,106178
100621,106157
100605,106114
100661,106186
100735,106243
100714,106260
100699,106169
100691,106170
100777,106227
100801,106285
100811,106231
100835,106233
100794,106214
100903,106289
100939,106298
100943,106298
100889,106277
100916,106260
101003,106338
101015,106371
101014,106332
100977,106338
100937,106249
101059,106333
101060,106386
101021,106360
100985,106311
100987,106321
101019,106369
101033,106353
101019,106372
101024,106282
100984,106300
101002,106350
101055,106353
101001,106339
100992,106282
100953,106237
101044,106347
101002,106319
101012,106327
100963,106275
100935,106276
101020,106330
100994,106325
101017,106313
100927,106308
100943,106272
101019,106320
101006,106370
101018,106324
101007,106306
101025,106281
101059,106359
101102,106372
101087,106344
101051,106369
101051,106310
101135,106379
101163,106406
101137,106404
101076,106372
101099,106335
101200,106458
101223,106427
101228,106419
101192,106395
101217,106389
101286,106499
101317,106493
101317,106482
101272,106451
101316,106445
101364,106504
101405,106573
101372,106521
101361,106473
101390,106498
101470,106561
101465,106592
101443,106579
101428,106496
101473,106564
101503,106584
101548,106638
101519,106615
101514,106533
101563,106576
101578,106640
101627,106648
101596,106623
101538,106565
101582,106586
101716,106673
101653,106681
101654,106626
101644,106626
101692,106663
101698,106691
101773,106705
101738,106691
101701,106644
101727,106680
101786,106705
101789,106727
101769,106729
101734,106648
101777,106692
101825,106717
101863,106783
101804,106716
101765,106686
101815,106693
101908,106744
101864,106786
101879,106759
101839,106697
101885,106742
101918,106763
101961,106805
101912,106745
101892,106708
101933,106768
101914,106776
102004,106798
101954,106781
101914,106722
101946,106748
101996,106791
101990,106803
101994,106782
101906,106732
101922,106757
101935,106776
101938,106749
101885,106749
101780,106606
101758,106672
101771,106660
101714,106649
101620,106595
101465,106487
101488,106486
101441,106496
101343,106450
101268,106404
101130,106306
101060,106289
101003,106278
100921,106269
100834,106193
100706,106115
100706,106117
100621,106120
100566,106126
100489,106059
100370,105953
100343,105977
100384,106012
100307,105990
100232,105903
100170,105896
100168,105926
100193,105931
100183,105900
100126,105891
100054,105874
100096,105879
100162,105956
100145,105928
100095,105914
100080,105843
100148,105920
100167,105936
100162,105936
100127,105903
100128,105871
100187,105905
100229,105957
100247,105970
100217,105941
100207,105914
100262,105973
100330,106007
100329,106044
100301,106013
100301,105981
100409,106026
100423,106080
100487,106079
100459,106082
100449,106036
100545,106113
100593,106150
100614,106174
100571,106092
100572,106104
100676,106160
100665,106210
100699,106186
100681,106179
100667,106116
100722,106219
100730,106210
100755,106222
100728,106173
100672,106159
100779,106197
100730,106218
100773,106214
100696,106203
100699,106143
100764,106229
100762,106230
100783,106223
100731,106176
100713,106155
100720,106187
100777,106236
100713,106176
100681,106149
100622,106129
100668,106166
100718,106195
100649,106170
100628,106112
100587,106149
100666,106180
100673,106191
100666,106186
100617,106148
100588,106080
100696,106186
100715,106215
100692,106175
100655,106159
100660,106133
100726,106193
100720,106226
100751,106185
100715,106180
100724,106152
100824,106270
100804,106244
100811,106273
100772,106219
100816,106208
100910,106310
100884,106313
100929,106301
100866,106279
100883,106237
100995,106338
100997,106384
101020,106348
100978,106336
101033,106316
101056,106399
101119,106398
101133,106379
101097,106392
101114,106354
101220,106455
101241,106459
101229,106436
101210,106416
101161,106421
101261,106452
101341,106537
101313,106513
101270,106436
101318,106469
101350,106546
101397,106524
101409,106555
101354,106486
101399,106508
101467,106584
101506,106598
101462,106568
101485,106545
101469,106536
101514,106594
101578,106631
101589,106597
101511,106564
101584,106589
101630,106640
101644,106654
101663,106647
101600,106605
101634,106611
101730,106681
101721,106679
101709,106672
101699,106660
101710,106667
101752,106695
101797,106709
101777,106677
101716,106651
101772,106672
101830,106727
101836,106755
101820,106717
101758,106662
101783,106677
101820,106723
101795,106697
101759,106679
101656,106612
101653,106596
101677,106642
101590,106591
101495,106553
101441,106464
101354,106468
101383,106468
101275,106472
101165,106379
101100,106301
100993,106291
100984,106285
100911,106262
100825,106172
100703,106109
100646,106135
100635,106098
100551,106120
100458,106050
100342,105983
100316,105946
100339,105980
100284,106001
100214,105941
100165,105881
100119,105916
100155,105905
100141,105960
100113,105903
100070,105852
100095,105874
100143,105958
100128,105905
100155,105912
100073,105894
100131,105900
100153,105929
100226,105980
100207,105938
100155,105911
100168,105960
100248,105994
100280,106014
100230,105981
100243,105928
100330,106006
100371,106079
100396,106043
100397,106053
100365,105986
100461,106080
100517,106156
100552,106113
100545,106122
100554,106086
100612,106153
100652,106222
100715,106186
100704,106199
100665,106171
100728,106238
100757,106240
100822,106290
100772,106226
100727,106157
100827,106251
100854,106268
100819,106266
100839,106238
100805,106210
100827,106260
100862,106275
100840,106288
100834,106240
100759,106202
100855,106229
100878,106285
100858,106246
100828,106243
100763,106186
100820,106193
100822,106252
100801,106236
100779,106234
100740,106158
100767,106207
100783,106237
100778,106249
100736,106173
100705,106181
100745,106222
100816,106267
100795,106232
100769,106209
100690,106169
100807,106221
100820,106275
100790,106204
100783,106217
100756,106183
100838,106270
100846,106264
100814,106237
100826,106216
100820,106222
100883,106297
100916,106281
100937,106324
100890,106280
100896,106252
100992,106300
101036,106376
101011,106313
101022,106340
101011,106304
101117,106391
101137,106368
101133,106415
101100,106371
101122,106352
101180,106425
101227,106454
101246,106446
101224,106432
101173,106378
101307,106483
101312,106478
101330,106497
101235,106453
101288,106437
101373,106519
101415,106526
101382,106528
101417,106528
101427,106504
101467,106568
101500,106552
101520,106594
101472,106543
101496,106543
101581,106612
101631,106651
101584,106621
101599,106587
101583,106587
101662,106638
101695,106708
101689,106631
101702,106646
101686,106608
101754,106701
101778,106725
101801,106696
101761,106683
101743,106640
101842,106718
101842,106758
101894,106723
101818,106700
101778,106654
101885,106744
101855,106704
101828,106735
101761,106661
101698,106600
101791,106667
101680,106687
101612,106601
101519,106550
101475,106487
101410,106522
101379,106446
101279,106442
101135,106363
101055,106288
101017,106318
100976,106248
100813,106221
100696,106104
100648,106108
100616,106087
100548,106086
100410,105991
100309,105921
100243,105922
100244,105900
100185,105930
100116,105869
100007,105814
99990,105780
100036,105837
100007,105834
99960,105767
99848,105742
99886,105760
99943,105807
99921,105815
99919,105775
99867,105759
99916,105793
99927,105825
99996,105810
99965,105838
99912,105761
99986,105779
100034,105856
100074,105846
100057,105870
99992,105817
100062,105850
100142,105905
100207,105961
100160,105914
100154,105867
100211,105962
100301,105956
100304,106006
100307,106000
100291,105952
100367,106004
100411,106041
100457,106079
100437,106053
100389,106014
100447,106024
100567,106073
100530,106119
100548,106097
100503,106034
100559,106112
100600,106119
100671,106121
100613,106157
100607,106084
100624,106131
100651,106140
100708,106137
100657,106163
100568,106044
100660,106117
100650,106164
100701,106126
100627,106101
100585,106078
100610,106057
100609,106118
100642,106116
100616,106126
100529,106012
100582,106090
100586,106103
100599,106103
100583,106072
100514,106029
100563,106050
100650,106121
100576,106096
100592,106123
100544,106026
100580,106082
100606,106102
100659,106148
100598,106085
100550,106060
100642,106088
100681,106161
100646,106122
100636,106117
100643,106061
100667,106128
100735,106138
100713,106184
100699,106129
100703,106106
100746,106170
100820,106229
100838,106227
100795,106191
100809,106151
100842,106236
100904,106240
100916,106263
100918,106222
100867,106214
100972,106247
101037,106306
100995,106287
101008,106274
101019,106299
101032,106313
101099,106330
101112,106370
101139,106332
101127,106330
101181,106380
101211,106426
101272,106412
101265,106409
101234,106367
101306,106440
101360,106486
101365,106503
101340,106456
101357,106413
101424,106500
101462,106523
101469,106482
101489,106501
101440,106504
101503,106495
101567,106578
101553,106585
101532,106531
101534,106512
101598,106569
101634,106582
101623,106620
101642,106574
101607,106533
101672,106585
101687,106617
101630,106559
101629,106557
101570,106511
101623,106536
101552,106526
101544,106523
101384,106421
101350,106366
101341,106424
101286,106379
101180,106332
101044,106249
100945,106176
100902,106223
100836,106165
100768,106096
100629,106042
100473,105944
100464,105994
100369,105965
100332,105916
100194,105812
100102,105767
100085,105808
100051,105772
99966,105766
99868,105695
99821,105652
99854,105667
99827,105706
99765,105662
99755,105622
99714,105600
99741,105678
99714,105645
99752,105679
99672,105625
99681,105602
99743,105667
99786,105681
99754,105663
99768,105640
99744,105684
99833,105693
99905,105730
99837,105749
99888,105720
99896,105693
99967,105810
100002,105801
100012,105785
100023,105781
100040,105797
100063,105863
100131,105834
100149,105876
100153,105831
100181,105850
100239,105918
100267,105942
100308,105934
100296,105908
100320,105955
100393,106010
100420,105999
100466,106038
100405,105970
100439,105971
100493,106032
100517,106051
100508,106030
100483,105991
100514,106001
100559,106033
100527,106086
100563,106033
100509,105990
100517,105992
100536,106069
100551,106056
100496,105986
100488,105957
100442,105953
100531,106019
100510,106068
100452,105983
100395,105946
100470,105958
100468,106002
100456,105989
100457,105983
100358,105921
100398,105969
100418,105996
100439,105964
100370,105976
100358,105920
100384,105927
100439,105969
100406,106019
100379,105967
100326,105896
100391,105960
100435,106000
100438,105995
100408,106003
100387,105940
100470,106009
100460,106032
100489,106018
100500,106035
100445,105975
100527,106007
100558,106076
100559,106054
100592,106064
100539,106020
100597,106061
100622,106080
100667,106105
100649,106058
100637,106059
100660,106089
100751,106163
100783,106171
100735,106142
100728,106117
100804,106161
100816,106197
100881,106223
100870,106193
100870,106177
100908,106220
100965,106260
100982,106288
100988,106261
100938,106225
101052,106289
101102,106318
101085,106325
101110,106327
101080,106271
101121,106320
101204,106385
101245,106367
101234,106371
101212,106346
101253,106397
101351,106432
101323,106412
101371,106447
101314,106396
101363,106440
101443,106460
101465,106494
101434,106435
101396,106453
101433,106467
101509,106536
101469,106470
101415,106477
101394,106415
101417,106415
101396,106432
101343,106371
101252,106336
101179,106279
101096,106307
101033,106238
100965,106190
100804,106129
100691,106068
100655,106041
100555,106013
100441,105957
100309,105842
100154,105780
100099,105792
100000,105761
99899,105695
99788,105613
99613,105540
99604,105533
99538,105507
99457,105499
99345,105440
99255,105369
99247,105365
99255,105402
99157,105357
99121,105319
99073,105296
99126,105312
99137,105354
99088,105342
99062,105292
99089,105263
99078,105326
99171,105385
99166,105344
99109,105335
99129,105332
99205,105375
99216,105387
99221,105395
99210,105371
99232,105365
99308,105423
99348,105433
99373,105443
99386,105457
99375,105451
99484,105493
99493,105533
99545,105548
99562,105531
99517,105515
99657,105589
99699,105643
99740,105635
99700,105622
99767,105628
99829,105682
99917,105719
99867,105694
99855,105684
99881,105668
99988,105777
99984,105754
100003,105725
99952,105713
100025,105728
100049,105804
100064,105751
100086,105765
100025,105748
100021,105732
100070,105779
100071,105758
100097,105790
100064,105740
100015,105737
100097,105758
100092,105810
100071,105733
100020,105706
100021,105727
100044,105723
100049,105790
100047,105745
99990,105700
100003,105717
100050,105726
100068,105744
100044,105793
99978,105710
100013,105695
100089,105788
100073,105790
100070,105758
99999,105740
100054,105743
100071,105787
100131,105783
100108,105811
100092,105742
100114,105747
100121,105839
100163,105810
100204,105828
100161,105794
100171,105772
100246,105850
100235,105879
100279,105868
100243,105817
100253,105863
100300,105876
100342,105920
100331,105877
100320,105858
100308,105906
100396,105912
100430,105955
100421,105934
100399,105924
100432,105913
100499,106027
100499,106004
100518,106031
100456,105940
100565,105950
100582,106022
100626,106049
100618,106015
100554,105980
100615,106011
100672,106049
100693,106058
100644,106070
100660,106034
100671,106040
100789,106091
100785,106116
100729,106055
100751,106031
100799,106053
100870,106152
100848,106138
100870,106118
100867,106099
100870,106119
100966,106186
100990,106174
100977,106215
100930,106150
100999,106169
101042,106235
101058,106215
101014,106224
100986,106174
101011,106185
101055,106220
101022,106216
100996,106131
100873,106081
100857,106100
100828,106073
100741,106052
100642,105975
100497,105891
100393,105877
100382,105863
100285,105775
100127,105718
99981,105623
99941,105605
99828,105574
99744,105538
99596,105460
99515,105401
99450,105373
99408,105358
99339,105363
99259,105307
99147,105220
99160,105265
99139,105255
99127,105272
99096,105243
99020,105201
99097,105248
99122,105281
99117,105292
99107,105276
99119,105252
99168,105303
99221,105324
99234,105370
99255,105333
99250,105317
99312,105376
99384,105429
99413,105407
99399,105395
99416,105411
99506,105446
99569,105535
99585,105516
99573,105497
99609,105515
99724,105547
99724,105590
99777,105598
99762,105590
99807,105600
99870,105636
99913,105689
99968,105701
99958,105674
99968,105657
100069,105740
100106,105759
100156,105785
100124,105755
100172,105763
100235,105807
100288,105857
100302,105854
100292,105813
100273,105838
100369,105874
100385,105907
100423,105925
100410,105891
100330,105843
100442,105945
100463,105936
100423,105913
100433,105904
100418,105867
100441,105911
100464,105937
100439,105917
100425,105888
100379,105860
100403,105894
100460,105922
100408,105908
100370,105857
100362,105842
100397,105905
100439,105913
100378,105885
100374,105886
100352,105866
100392,105898
100461,105914
100400,105901
100399,105871
100395,105857
100418,105917
100492,105966
100492,105952
100478,105913
100454,105890
100519,105960
100533,105995
100550,105994
100547,105967
100522,105942
100586,106005
100661,106019
100607,106019
100598,105996
100630,105983
100697,106070
100745,106068
100710,106073
100703,106035
100732,106048
100844,106094
100831,106162
100835,106134
100860,106129
100849,106108
100929,106150
100977,106192
100924,106192
100973,106155
100964,106176
101029,106185
101093,106259
101041,106258
101021,106182
101066,106182
101138,106243
101191,106284
101145,106275
101138,106235
101181,106264
101205,106293
101273,106324
101213,106341
101200,106272
101263,106281
101269,106351
101299,106355
101359,106378
101298,106335
101359,106354
101411,106391
101428,106435
101448,106401
101413,106354
101424,106380
101497,106452
101483,106458
101463,106400
101426,106369
101426,106394
101512,106433
101443,106454
101422,106327
101320,106320
101330,106310
101283,106302
101235,106282
101121,106261
101049,106154
100963,106103
100897,106124
100844,106073
100691,106024
100551,105911
100461,105873
100349,105845
100269,105808
100157,105720
99989,105600
99905,105610
99797,105556
99728,105546
99621,105454
99493,105379
99457,105349
99398,105415
99365,105364
99281,105327
99191,105235
99192,105301
99215,105253
99185,105311
99127,105259
99102,105226
99155,105266
99159,105313
99178,105299
99213,105275
99171,105261
99217,105289
99261,105345
99304,105372
99345,105372
99325,105335
99368,105379
99458,105457
99486,105436
99487,105428
99450,105410
99565,105450
99628,105528
99661,105547
99646,105526
99677,105478
99706,105556
99807,105632
99862,105597
99833,105610
99841,105607
99920,105638
99985,105681
100008,105726
100001,105693
100013,105691
100093,105722
100129,105753
100182,105756
100180,105756
100114,105709
100226,105757
100255,105792
100248,105804
100242,105786
100199,105744
100234,105790
100298,105811
100280,105814
100249,105782
100184,105742
100227,105791
100287,105797
100237,105794
100238,105769
100178,105715
100219,105782
100283,105826
100277,105795
100214,105759
100201,105742
100219,105757
100231,105786
100256,105791
100194,105760
100168,105724
100201,105758
100239,105802
100223,105757
100180,105733
100153,105706
100211,105753
100211,105797
100228,105767
100170,105739
100179,105698
100242,105771
100240,105794
100271,105803
100264,105751
100214,105767
100274,105787
100346,105837
100321,105811
100313,105788
100293,105791
100370,105850
100403,105889
100404,105874
100410,105851
100396,105843
100480,105890
100527,105935
100525,105927
100511,105900
100546,105889
100610,105947
100609,105968
100643,105962
100658,105946
100589,105939
100721,106007
100726,106017
100746,106018
100707,105985
100721,105992
100774,106033
100830,106064
100821,106045
100819,106021
100790,106003
100853,106100
100915,106079
100877,106073
100907,106076
100885,106047
100939,106097
101007,106149
101006,106116
101026,106125
101015,106104
101064,106172
101097,106165
101129,106185
101057,106157
101079,106143
101160,106220
101147,106218
101145,106194
101150,106202
101101,106163
101179,106175
101156,106208
101087,106146
101032,106110
100994,106106
100995,106082
100898,106065
100826,105998
100739,105943
100601,105877
100574,105882
100496,105859
100374,105768
100227,105694
100137,105641
100119,105656
100003,105559
99865,105555
99721,105428
99670,105394
99609,105436
99534,105362
99453,105318
99332,105254
99245,105220
99265,105208
99208,105223
99153,105189
99065,105118
99089,105137
99084,105171
99066,105178
99085,105148
99050,105112
99059,105127
99081,105153
99123,105183
99122,105166
99071,105164
99128,105153
99178,105205
99222,105259
99257,105227
99217,105209
99276,105218
99326,105315
99404,105316
99352,105325
99391,105276
99430,105354
99497,105351
99566,105407
99552,105399
99548,105354
99621,105388
99657,105467
99744,105491
99757,105487
99733,105478
99790,105510
99860,105506
99909,105607
99918,105565
99912,105550
99923,105543
100017,105621
100048,105627
100005,105607
100027,105571
100063,105616
100128,105679
100153,105646
100142,105675
100093,105590
100138,105647
100168,105656
100173,105668
100161,105683
100070,105601
100135,105620
100132,105716
100166,105663
100145,105654
100066,105583
100114,105600
100091,105665
100086,105661
100088,105646
100003,105555
100036,105576
100102,105656
100100,105618
100046,105589
100027,105569
100026,105593
100095,105642
100091,105647
100048,105605
100056,105579
100073,105616
100123,105652
100096,105664
100065,105614
100079,105612
100091,105654
100157,105660
100162,105660
100121,105666
100086,105628
100140,105668
100186,105691
100230,105709
100167,105677
100202,105661
100213,105700
100283,105705
100293,105725
100294,105710
100219,105686
100309,105709
100351,105786
100387,105790
100348,105765
100357,105721
100420,105828
100492,105797
100483,105811
100453,105819
100446,105753
100557,105844
100591,105822
100579,105834
100626,105869
100563,105841
100656,105941
100703,105941
100702,105952
100710,105924
100694,105872
100804,105965
100798,105995
100852,106029
100839,105984
100854,105960
100898,106042
100908,106022
100954,106024
100923,106051
100916,105989
101010,106034
101006,106106
101002,106081
101043,106055
100992,106034
101036,106094
101059,106078
101020,106074
100951,106003
100880,105961
100864,105975
100876,106015
100777,105935
100648,105876
100572,105740
100534,105787
100452,105737
100349,105676
100203,105626
100058,105523
100028,105489
99956,105515
99838,105453
99694,105396
99597,105279
99601,105313
99502,105256
99438,105241
99331,105186
99233,105137
99307,105167
99240,105178
99199,105129
99131,105103
99092,105084
99115,105097
99168,105136
99108,105114
99086,105090
99048,105065
99133,105119
99184,105193
99159,105155
99174,105128
99224,105125
99303,105222
99314,105234
99347,105241
99307,105210
99364,105203
99487,105305
99507,105290
99538,105342
99538,105324
99505,105300
99614,105344
99687,105436
99706,105396
99699,105407
99733,105397
99850,105502
99870,105499
99905,105494
99878,105471
99937,105491
100032,105581
100069,105572
100094,105582
100041,105599
100079,105547
100166,105617
100187,105682
100177,105634
100167,105593
100193,105616
100220,105655
100234,105656
100254,105666
100240,105615
100206,105659
100237,105669
100301,105697
100245,105666
100213,105580
100214,105616
100243,105652
100237,105681
100217,105625
100177,105603
100193,105595
100197,105651
100247,105662
100168,105643
100129,105542
100130,105546
100179,105632
100155,105620
100155,105567
100104,105579
100132,105563
100178,105624
100155,105606
100175,105617
100096,105551
100126,105589
100236,105639
100253,105666
100197,105641
100180,105580
100234,105598
100239,105678
100304,105694
100275,105649
100222,105632
100275,105659
100361,105693
100340,105695
100364,105701
100346,105655
100363,105707
100429,105742
100430,105754
100441,105735
100420,105697
100466,105759
100535,105780
100543,105800
100543,105786
100516,105766
100583,105799
100617,105848
100660,105870
100668,105849
100639,105802
100685,105854
100719,105884
100785,105917
100746,105872
100725,105875
100770,105906
100841,105914
100846,105969
100857,105935
100826,105933
100860,105952
100931,105957
100927,105992
100937,105956
100897,105952
100960,105978
101013,106037
101029,105986
101024,106030
100988,105992
101029,105994
101100,106072
101066,106043
101054,106019
100978,105954
100987,105982
100978,106012
100947,105990
100864,105905
100765,105847
100734,105856
100692,105805
100578,105789
100505,105716
100339,105636
100260,105589
100203,105566
100082,105517
99948,105425
99806,105347
99719,105315
99680,105267
99529,105239
99404,105166
99289,105081
99236,105095
