11111,11111
0,0
1488,1434
1502,1450
1538,1491
1568,1503
1633,1587
1648,1614
1685,1657
1779,1737
1802,1780
1859,1829
1898,1901
1965,1926
2022,2049
2099,2127
2172,2222
2255,2293
2387,2439
2445,2507
2607,2640
2748,2797
2845,2898
2979,2979
3075,3090
3188,3143
3295,3213
3395,3284
3515,3360
3627,3411
3737,3472
3904,3640
4111,3809
4390,4071
4852,4550
5394,5206
6226,6264
7312,7667
8662,9535
10082,11578
11261,13268
12232,14587
13168,15919
14197,17300
15506,19052
17050,21117
18823,23482
20671,25953
22594,28452
24472,30995
26241,33377
27988,35739
29584,38023
30936,39972
31826,41323
32259,42013
32195,42037
31608,41412
30690,40342
29677,39170
28774,38189
28193,37452
27770,37063
27512,36789
27261,36508
27006,36265
26756,35992
26579,35828
26484,35759
26469,35764
26671,36052
26907,36457
27312,37003
27659,37498
27927,37849
28177,38149
28309,38386
28508,38664
28828,39120
29224,39647
29754,40386
30465,41326
31333,42492
32426,43910
33577,45367
34831,46959
36063,48622
37434,50324
39054,52432
40801,54639
42672,57015
44606,59478
46649,62010
48768,64597
50898,67135
53291,70011
55818,73021
58359,75991
60794,78754
63078,81351
65214,83380
66908,85417
68437,86908
69594,87976
70474,88761
71358,89506
72249,90248
73036,90868
73696,91474
74330,91868
74837,92100
75247,92046
75475,91646
75565,90927
75349,89641
74769,87750
73870,85556
75883,87583
79439,91142
81754,93621
82825,94846
83682,95706
84350,96396
84981,97050
85530,97558
86057,98031
91352,101612
97422,104926
98007,105231
107239,110352
107486,110487
107708,110597
110835,111891
110927,111994
111022,112008
111109,112029
112245,112518
112268,112504
112363,112525
112417,112550
112507,112632
112522,112597
112631,112684
112662,112691
112739,112692
112789,112729
112827,112783
112891,112749
112931,112797
112955,112809
113007,112807
113043,112855
113063,112861
113139,112875
113119,112870
113170,112912
113184,112912
113225,112924
113281,112974
113239,112941
113256,112972
113300,112968
113259,112965
113214,112924
113221,112942
113127,112891
113029,112848
112883,112769
112766,112716
112666,112679
112520,112607
112386,112521
112309,112499
112158,112405
112003,112347
111898,112299
111760,112204
111608,112194
111505,112108
111391,112044
111278,112003
111215,111958
111063,111913
110998,111868
110908,111829
110816,111801
110750,111776
110672,111710
110635,111719
110606,111685
110539,111675
110463,111649
110467,111633
110422,111636
110378,111635
110352,111587
110359,111605
110333,111593
110333,111577
110299,111600
110276,111591
110311,111602
110287,111565
110324,111575
110349,111615
110365,111584
110353,111627
110370,111601
110384,111590
110407,111644
110452,111629
110500,111663
110477,111669
110523,111662
110626,111708
110621,111705
110691,111709
110698,111747
110721,111767
110826,111803
110850,111799
110894,111826
110909,111823
110978,111857
111069,111888
111107,111906
111181,111945
111214,111953
111267,111986
111370,111976
111432,112055
111480,112078
111518,112071
111577,112080
111670,112108
111720,112158
111777,112170
111787,112206
111859,112181
111939,112229
111991,112257
112055,112269
112097,112260
112152,112332
112183,112289
112229,112362
112276,112345
112267,112355
112292,112384
112373,112375
112338,112399
112379,112392
112404,112418
112426,112395
112414,112420
112357,112397
112391,112348
112373,112395
112388,112395
112351,112407
112348,112360
112362,112381
112321,112366
112358,112370
112314,112324
112365,112364
112352,112393
112303,112359
112344,112338
112363,112370
112332,112369
112358,112366
112380,112366
112356,112344
112362,112355
112377,112376
112377,112384
112349,112407
112381,112363
112385,112410
112387,112392
112391,112395
112403,112407
112404,112411
112394,112378
112458,112420
112425,112430
112431,112405
112460,112425
112492,112423
112515,112454
112471,112452
112531,112436
112554,112453
112564,112497
112585,112473
112613,112499
112657,112482
112693,112490
112742,112510
112756,112532
112771,112575
112769,112558
112801,112521
112834,112596
112873,112576
112863,112583
112917,112595
112946,112625
112938,112620
113011,112615
113012,112659
113046,112659
113106,112663
113099,112650
113159,112664
113159,112732
113182,112703
113240,112738
113248,112735
113287,112715
113313,112778
113366,112755
113402,112758
113393,112803
113466,112816
113478,112815
113539,112805
113566,112880
113636,112855
113622,112891
113692,112871
113726,112870
113716,112927
113728,112886
113750,112898
113718,112913
113690,112897
113648,112848
113599,112817
113489,112764
113411,112710
113309,112670
113192,112587
113074,112512
112969,112491
112822,112400
112763,112360
112639,112342
112534,112269
112449,112245
112399,112226
112281,112178
112233,112152
112185,112132
112151,112086
112065,112058
112055,112073
112019,112007
112013,112012
111990,112007
111990,112013
111952,112040
111935,111955
111999,112028
111957,111986
112009,111989
111955,111987
112031,112024
112006,112003
112051,112018
112037,112034
112078,112051
112128,112067
112084,112068
112130,112119
112177,112069
112209,112064
112256,112143
112254,112130
112275,112141
112296,112160
112318,112143
112381,112202
112435,112197
112430,112201
112441,112226
112479,112215
112541,112253
112551,112260
112614,112299
112624,112312
112653,112318
112720,112345
112731,112314
112807,112383
112832,112374
112875,112413
112932,112401
112941,112450
113029,112440
113062,112485
113131,112506
113178,112564
113184,112554
113251,112537
113305,112600
113365,112599
113357,112628
113421,112648
113440,112649
113462,112675
113501,112705
113503,112690
113537,112708
113565,112706
113537,112698
113541,112695
113536,112697
113523,112678
113471,112666
113469,112694
113462,112676
113424,112666
113394,112639
113386,112656
113336,112619
113287,112623
113286,112622
113260,112594
113205,112555
113192,112562
113172,112573
113129,112561
113119,112505
113152,112520
113067,112533
113097,112505
113068,112484
113056,112508
113025,112499
113042,112502
113010,112505
113045,112480
113038,112478
113064,112501
113044,112476
113093,112513
113067,112531
113085,112529
113101,112539
113090,112536
113128,112525
113138,112580
113153,112549
113160,112568
113149,112549
113178,112559
113166,112594
113181,112562
113225,112575
113210,112579
113222,112589
113167,112597
113213,112601
113251,112593
113234,112612
113274,112630
113236,112588
113283,112597
113299,112626
113282,112651
113300,112603
113305,112629
113341,112658
113360,112662
113371,112647
113390,112655
113442,112693
113474,112655
113514,112703
113505,112702
113590,112700
113622,112763
113687,112752
113709,112757
113795,112771
113839,112836
113813,112803
113848,112855
113933,112871
113950,112852
113998,112914
114001,112874
114060,112922
114050,112939
114073,112934
114091,112935
114159,112979
114168,112977
114205,112995
114189,112983
114258,113005
114264,112976
114283,113032
114279,113013
114278,113012
114292,113009
114307,113006
114256,113009
114247,112975
114166,112938
114113,112890
114013,112854
113877,112797
113755,112736
113586,112666
113456,112589
113319,112514
113191,112464
113052,112407
112900,112338
112817,112277
112731,112234
112590,112205
112521,112140
112465,112123
112370,112047
112305,112081
112231,112014
112182,111990
112111,111946
112099,111928
112031,111895
112033,111911
112007,111871
112010,111905
111931,111873
111952,111906
111923,111874
111944,111873
111935,111908
111889,111826
111952,111894
111924,111856
111919,111847
111953,111848
111927,111896
111932,111830
111959,111861
111931,111885
111978,111869
111967,111910
111967,111875
112009,111911
112017,111947
112038,111910
112029,111953
112046,111923
112094,111942
112052,111970
112075,111954
112134,111966
112132,111960
112148,111992
112162,112022
112156,112020
112178,111982
112196,112034
112237,112028
112229,112063
112252,112049
112316,112044
112291,112083
112327,112069
112379,112087
112401,112140
112385,112114
112474,112153
112477,112136
112516,112149
112515,112181
112533,112154
112565,112218
112564,112211
112590,112227
112596,112222
112629,112192
112621,112256
112637,112232
112622,112236
112654,112225
112669,112250
112643,112247
112614,112231
112639,112224
112607,112239
112552,112207
112601,112201
112525,112199
112535,112193
112541,112206
112484,112144
112512,112191
112435,112185
112453,112185
112423,112157
112414,112127
112398,112157
112419,112135
112402,112138
112363,112120
112383,112134
112342,112101
112352,112107
112323,112122
112349,112111
112308,112109
112340,112146
112306,112120
112311,112095
112315,112084
112286,112118
112278,112125
112320,112119
112284,112113
112336,112100
112294,112121
112322,112146
112331,112126
112313,112161
112349,112159
112352,112155
112360,112170
112384,112180
112367,112137
112392,112145
112379,112147
112391,112202
112358,112183
112378,112181
112379,112188
112377,112136
112334,112191
112305,112141
112348,112169
112334,112155
112299,112152
112324,112113
112287,112153
112318,112156
112302,112148
112299,112167
112292,112121
112270,112148
112294,112160
112266,112154
112284,112126
112260,112137
112286,112144
112265,112111
112338,112151
112274,112158
112286,112113
112282,112125
112322,112123
112270,112140
112324,112158
112253,112133
112275,112108
112309,112145
112280,112146
112262,112133
112256,112159
112285,112124
112303,112151
112312,112154
112286,112144
112278,112123
112300,112119
112265,112142
112222,112106
112224,112118
112206,112101
112132,112056
112060,112017
111982,111993
111928,111931
111828,111906
111730,111842
111648,111812
111527,111729
111447,111737
111328,111634
111229,111612
111117,111551
111053,111511
110911,111479
110810,111428
110706,111370
110639,111340
110560,111275
110461,111231
110417,111213
110357,111220
110249,111143
110215,111151
110178,111119
110098,111093
110103,111082
110036,111093
110002,111030
110026,111049
109985,111021
109934,111046
109957,111061
109912,111035
109950,110998
109895,111006
109916,111012
109901,111033
109880,111026
109908,111021
109886,111008
109917,111025
109886,111032
109920,111028
109880,111042
109963,111045
109972,111076
109971,111075
109986,111071
110020,111093
110027,111085
110083,111091
110082,111133
110107,111152
110146,111166
110179,111170
110159,111162
110232,111156
110245,111198
110265,111170
110299,111205
110348,111233
110349,111220
110431,111254
110430,111280
110458,111285
110504,111298
110477,111284
110554,111348
110570,111294
110615,111358
110614,111349
110668,111353
110649,111382
110685,111362
110721,111356
110708,111410
110749,111384
110749,111405
110738,111407
110727,111353
110827,111441
110772,111376
110807,111443
110799,111415
110831,111407
110835,111439
110807,111389
110866,111395
110831,111391
110837,111399
110846,111408
110836,111408
110860,111391
110838,111424
110866,111389
110861,111431
110866,111384
110883,111408
110894,111422
110899,111398
110860,111420
110921,111413
110907,111420
110906,111456
110914,111413
110963,111435
110975,111432
110962,111460
111010,111452
111016,111491
110981,111413
111060,111488
111026,111443
111064,111494
111047,111510
111051,111465
111097,111520
111098,111515
111134,111524
111137,111538
111198,111534
111196,111567
111199,111554
111253,111576
111254,111554
111276,111572
111244,111575
111295,111568
111303,111631
111290,111588
111332,111615
111305,111617
111300,111624
111363,111612
111320,111667
111324,111617
111342,111652
111336,111634
111352,111644
111374,111639
111328,111648
111371,111656
111375,111642
111413,111662
111385,111654
111410,111658
111403,111680
111416,111659
111443,111654
111458,111685
111448,111673
111493,111681
111463,111721
111475,111687
111479,111699
111498,111706
111478,111711
111475,111690
111506,111738
111498,111687
111479,111706
111476,111680
111472,111665
111406,111668
111401,111634
111334,111634
111255,111611
111210,111561
111156,111506
111041,111480
110983,111441
110859,111367
110760,111364
110654,111269
110579,111189
110475,111204
110353,111159
110290,111077
110194,111028
110145,111019
110060,110999
109967,110965
109899,110888
109838,110887
109813,110853
109694,110860
109676,110805
109696,110822
109620,110760
109603,110769
109615,110779
109588,110777
109613,110758
109593,110761
109629,110798
109606,110782
109618,110802
109669,110792
109653,110800
109680,110814
109741,110864
109738,110829
109777,110849
109818,110848
109867,110913
109856,110896
109921,110941
109945,110926
109958,110932
110008,110961
110017,110957
110057,110972
110098,111027
110110,111003
110137,110999
110172,111034
110167,111030
110201,111091
110216,111035
110263,111103
110295,111063
110296,111095
110314,111131
110355,111131
110394,111165
110401,111141
110425,111171
110452,111171
110416,111188
110465,111188
110468,111219
110492,111200
110496,111206
110519,111222
110511,111210
110550,111217
110532,111230
110554,111222
110542,111195
110578,111219
110562,111243
110575,111209
110529,111199
110592,111234
110539,111220
110555,111228
110551,111189
110546,111220
110558,111213
110533,111220
110509,111191
110481,111182
110477,111178
110449,111170
110442,111171
110402,111152
110412,111155
110380,111144
110362,111127
110370,111132
110357,111140
110348,111095
110329,111111
110357,111087
110292,111113
110356,111120
110344,111118
110352,111119
110369,111110
110364,111091
110360,111154
110381,111126
110385,111105
110429,111135
110401,111135
110485,111117
110504,111148
110507,111184
110526,111148
110558,111175
110626,111221
110611,111221
110598,111202
110691,111250
110673,111256
110677,111252
110685,111277
110713,111267
110722,111267
110757,111274
110781,111287
110787,111285
110782,111289
110846,111304
110854,111329
110847,111292
110869,111329
110874,111329
110930,111346
110921,111373
110905,111325
110943,111346
110962,111385
110954,111374
110984,111347
111036,111407
111017,111393
111074,111413
111030,111426
111106,111421
111111,111395
111140,111428
111144,111438
111169,111480
111172,111463
111203,111490
111193,111462
111207,111496
111234,111454
111294,111495
111262,111521
111325,111520
111324,111526
111307,111546
111324,111522
111345,111568
111313,111535
111312,111524
111330,111508
111301,111527
111228,111457
111205,111460
111120,111443
111075,111412
110961,111365
110951,111332
110833,111271
110755,111207
110630,111181
110508,111132
110440,111062
110291,111014
110183,110972
110104,110907
110037,110851
109890,110827
109831,110766
109702,110758
109613,110702
109568,110639
109469,110661
109438,110611
109374,110575
109330,110545
109275,110570
109188,110486
109181,110518
109094,110465
109070,110475
109069,110448
109015,110445
108963,110430
108967,110408
108919,110397
108913,110411
108922,110393
108900,110383
108864,110388
108906,110380
108923,110410
108883,110356
108911,110396
108899,110398
108916,110411
108885,110388
108913,110427
108887,110402
108937,110404
108947,110414
108970,110455
108974,110431
108977,110423
108952,110421
109011,110425
108987,110470
108982,110432
109043,110457
109038,110480
109043,110471
109044,110480
109070,110504
109034,110506
109090,110469
109105,110480
109141,110531
109113,110482
109163,110542
109179,110507
109159,110567
109182,110511
109198,110561
109175,110550
109200,110576
109211,110546
109245,110576
109226,110586
109235,110565
109224,110550
109249,110550
109273,110588
109243,110524
109249,110571
109197,110549
109207,110510
109188,110525
109201,110498
109150,110484
109169,110484
109173,110503
109122,110514
109107,110473
109145,110481
109088,110498
109121,110462
109089,110466
109104,110452
109080,110470
109073,110443
109065,110477
109078,110479
109032,110457
109050,110488
109020,110422
109048,110449
109022,110444
109039,110428
109046,110444
109024,110433
109047,110449
109028,110458
109050,110457
109084,110476
109079,110477
109117,110464
109086,110458
109138,110475
109132,110518
109156,110471
109199,110483
109202,110510
109212,110526
109224,110508
109245,110558
109254,110538
109299,110550
109318,110585
109300,110567
109355,110578
109366,110605
109376,110594
109367,110636
109401,110587
109416,110642
109445,110612
109448,110662
109488,110624
109484,110666
109479,110649
109482,110649
109546,110676
109514,110688
109537,110651
109529,110706
109531,110686
109567,110673
109560,110729
109562,110697
109605,110724
109579,110711
109584,110702
109607,110695
109586,110726
109596,110704
109620,110713
109598,110731
109617,110695
109645,110742
109595,110695
109629,110748
109684,110732
109648,110757
109646,110766
109684,110766
109672,110739
109731,110763
109709,110762
109772,110782
109759,110793
109769,110735
109845,110786
109791,110754
109801,110759
109770,110786
109727,110717
109699,110741
109609,110646
109593,110642
109524,110592
109434,110552
109353,110532
109233,110465
109154,110402
109070,110402
108963,110328
108849,110260
108793,110248
108681,110192
108609,110143
108500,110112
108427,110055
108304,110028
108254,109974
108191,109989
108116,109942
108079,109911
108019,109895
107985,109900
107934,109819
107913,109841
107844,109836
107874,109829
107820,109828
107784,109806
107776,109785
107768,109806
107742,109784
107754,109774
107727,109799
107736,109777
107710,109795
107720,109791
107706,109783
107734,109767
107740,109817
107739,109768
107757,109778
107787,109774
107793,109827
107805,109824
107784,109797
107801,109816
107810,109842
107843,109817
107910,109830
107857,109848
107888,109846
107896,109877
107933,109862
107988,109914
107981,109854
107982,109917
108019,109895
108064,109920
108089,109958
108086,109957
108134,109977
108202,109976
108203,110010
108263,110019
108225,110031
108313,110025
108326,110074
108333,110050
108380,110094
108391,110070
108395,110099
108484,110118
108438,110115
108482,110131
108469,110111
108488,110118
108506,110130
108471,110121
108481,110100
108485,110111
108453,110109
108459,110126
108411,110079
108406,110063
108410,110107
108366,110069
108371,110049
108353,110039
108299,110046
108317,109995
108293,110035
108266,109986
108247,109978
108236,110002
108251,110003
108219,110001
108192,109952
108196,109967
108163,109965
108170,109962
108175,109973
108155,109971
108162,109924
108155,109964
108130,109947
108141,109948
108142,109911
108118,109967
108108,109938
108128,109947
108123,109958
108132,109935
108179,109967
108148,109936
108187,109977
108218,109974
108192,109974
108262,110003
108279,109973
108257,109985
108317,109987
108328,110026
108377,110037
108391,110055
108406,110041
108423,110045
108478,110089
108511,110090
108495,110099
108553,110157
108546,110114
108611,110144
108608,110152
108652,110147
108647,110166
108727,110204
108728,110211
108738,110206
108783,110211
108798,110225
108841,110241
108861,110278
108880,110259
108902,110273
108947,110276
108985,110279
108956,110302
109004,110305
109046,110317
109037,110328
109063,110345
109053,110356
109102,110382
109078,110360
109127,110370
109116,110364
109127,110379
109127,110375
109172,110423
109157,110393
109194,110373
109157,110380
109138,110385
109152,110373
109112,110375
109085,110328
109101,110355
109028,110308
108973,110298
108888,110231
108841,110191
108733,110188
108659,110117
108517,110061
108441,110018
108311,109952
108198,109928
108091,109859
107953,109787
107853,109734
107728,109679
107610,109610
107455,109555
107351,109524
107256,109458
107113,109429
107048,109353
106938,109309
106846,109263
106755,109284
106709,109220
106654,109170
106636,109188
106545,109144
106567,109169
106543,109178
106588,109162
106590,109182
106629,109181
106659,109188
106717,109220
106745,109221
106833,109279
106841,109308
106924,109313
106976,109323
107019,109327
107106,109402
107112,109436
107212,109451
107256,109481
107325,109474
107388,109519
107452,109530
107466,109547
107562,109579
107605,109611
107671,109627
107703,109694
107765,109676
107823,109708
107857,109720
107923,109762
107978,109777
107989,109818
108047,109834
108113,109825
108139,109868
108153,109848
108163,109909
108186,109896
108238,109884
108250,109913
108255,109938
108288,109960
108320,109938
108269,109961
108290,109947
108278,109969
108288,109929
108301,109959
108292,109939
108267,109938
108235,109954
108205,109914
108206,109896
108174,109913
108103,109873
108141,109873
108079,109886
108038,109844
108065,109849
107995,109807
107968,109784
107938,109803
107845,109750
107878,109761
107768,109738
107744,109680
107699,109668
107665,109682
107576,109643
107582,109619
107506,109627
107487,109579
107443,109539
107381,109554
107336,109552
107311,109503
107313,109521
107298,109497
107287,109507
107246,109486
107285,109492
107300,109503
107292,109515
107327,109508
107346,109514
107322,109550
107355,109513
107427,109545
107416,109585
107442,109567
107476,109572
107513,109623
107541,109585
107537,109583
107599,109611
107611,109640
107654,109667
107695,109670
107685,109689
107727,109689
107794,109715
107831,109721
107867,109765
107918,109771
107974,109788
107998,109840
108051,109815
108117,109866
108150,109906
108174,109893
108263,109926
108260,109939
108299,109931
108329,109974
108386,109978
108420,110009
108436,109982
108433,109998
108433,110038
108495,109998
108520,110032
108548,110067
108519,110061
108583,110060
108582,110076
108657,110071
108648,110069
108686,110114
108692,110118
108723,110089
108759,110167
108755,110155
108804,110148
108841,110164
108841,110200
108853,110155
108903,110197
108885,110207
108915,110190
108943,110213
108956,110240
108943,110238
108958,110243
108964,110240
108981,110243
108996,110244
109006,110244
108994,110278
108987,110223
109017,110239
109020,110235
108987,110234
109011,110248
108963,110237
108925,110180
108901,110215
108838,110145
108737,110117
108682,110081
108601,110050
108475,109969
108365,109944
108258,109885
108137,109825
107967,109720
107855,109661
107711,109606
107551,109542
107458,109465
107306,109430
107148,109355
107054,109292
106911,109193
106801,109167
106717,109144
106582,109102
106451,109070
106379,109011
106310,108965
106303,108934
106201,108934
106175,108924
106177,108891
106158,108921
106117,108885
106135,108910
106165,108911
106215,108928
106196,108917
106235,108923
106263,108976
106317,108971
106337,108970
106386,109000
106432,109024
106441,109011
106479,109039
106474,109055
106525,109091
106524,109075
106563,109116
106541,109085
106600,109072
106609,109115
106604,109107
106637,109144
106610,109116
106663,109116
106670,109164
106712,109135
106698,109163
106754,109172
106763,109158
106842,109206
106857,109251
106870,109244
106905,109236
106996,109281
107013,109287
107038,109316
107127,109317
107116,109339
107184,109349
107215,109374
107241,109421
107277,109402
107320,109443
107323,109440
107362,109455
107363,109464
107361,109463
107414,109478
107406,109504
107419,109462
107380,109465
107379,109495
107375,109472
107410,109460
107357,109488
107360,109459
107316,109441
107314,109413
107291,109421
107247,109415
107209,109366
107219,109373
107194,109391
107140,109364
107107,109335
107098,109315
107039,109336
107028,109296
107030,109310
106995,109277
106954,109280
106917,109233
106961,109267
106912,109253
106920,109255
106911,109236
106857,109232
106872,109217
106897,109245
106906,109244
106888,109264
106934,109235
106913,109245
106923,109278
106975,109265
106957,109287
107015,109286
107045,109312
107045,109291
107088,109328
107094,109368
107123,109336
107160,109328
107204,109356
107256,109406
107225,109410
107315,109425
107295,109425
107350,109464
107361,109459
107419,109455
107424,109545
107453,109478
107538,109539
107553,109526
107552,109562
107615,109582
107612,109563
107625,109606
107647,109602
107632,109585
107664,109618
107701,109641
107676,109588
107691,109637
107716,109643
107688,109625
107712,109627
107656,109624
107727,109628
107694,109647
107661,109623
107692,109623
107699,109615
107651,109633
107658,109598
107660,109630
107680,109603
107627,109621
107652,109593
107598,109627
107577,109547
107577,109585
107543,109552
107525,109546
107535,109545
107465,109540
107467,109533
107445,109500
107414,109494
107392,109488
107427,109486
107371,109445
107354,109467
107355,109442
107392,109451
107363,109465
107378,109451
107393,109430
107411,109464
107421,109488
107450,109472
107460,109498
107504,109483
107517,109509
107508,109475
107525,109520
107523,109497
107543,109516
107525,109487
107478,109482
107474,109466
107398,109436
107330,109406
107283,109370
107174,109294
107074,109276
107026,109206
106879,109175
106793,109145
106689,109087
106576,109035
106464,108980
106351,108935
106264,108908
106174,108847
106127,108804
105994,108762
105943,108747
105888,108726
105792,108691
105786,108644
105724,108652
105684,108628
105699,108646
105680,108614
105654,108618
105683,108624
105688,108641
105642,108640
105685,108615
105682,108659
105732,108646
105781,108658
105804,108691
105821,108721
105884,108710
105866,108721
105969,108752
105961,108786
106030,108775
106030,108823
106111,108853
106149,108836
106167,108886
106207,108874
106213,108917
106276,108923
106328,108956
106378,108988
106388,108978
106446,108965
106483,108995
106489,109045
106532,109034
106547,109038
106601,109062
106650,109062
106631,109116
106699,109109
106767,109133
106748,109153
106799,109174
106847,109148
106895,109188
106910,109218
106949,109238
107030,109277
107039,109274
107105,109299
107078,109322
107124,109312
107158,109332
107227,109338
107209,109366
107240,109377
107261,109357
107296,109397
107258,109378
107294,109383
107292,109399
107253,109375
107292,109351
107245,109406
107266,109373
107239,109351
107224,109364
107201,109340
107230,109392
107217,109375
107174,109335
107193,109323
107183,109341
107132,109364
107175,109334
107196,109332
107168,109367
107184,109351
107158,109357
107165,109350
107207,109346
107229,109348
107201,109372
107234,109340
107262,109368
107275,109403
107301,109399
107294,109424
107325,109379
107362,109435
107363,109449
107397,109453
107444,109475
107441,109475
107514,109472
107521,109537
107536,109518
107548,109534
107606,109553
107645,109582
107632,109579
107687,109582
107686,109607
107744,109625
107718,109634
107766,109601
107772,109646
107756,109611
107809,109631
107820,109648
107817,109658
107822,109675
107863,109650
107885,109698
107886,109662
107890,109720
107901,109690
107910,109679
107950,109707
107967,109749
107967,109710
108001,109731
107957,109717
108018,109729
108024,109767
108043,109722
108053,109754
108057,109766
108074,109753
108084,109787
108106,109782
108088,109813
108107,109776
108091,109793
108123,109814
108136,109786
108094,109816
108105,109772
108146,109820
108103,109781
108152,109826
108141,109824
108113,109791
108158,109839
108142,109834
108139,109800
108128,109802
108172,109832
108141,109822
108142,109800
108200,109813
108189,109822
108160,109831
108159,109807
108193,109774
108166,109836
108163,109768
108115,109813
108090,109777
108011,109727
107989,109722
107911,109691
107848,109618
107731,109603
107656,109531
107531,109448
107441,109446
107284,109390
107171,109318
107036,109251
106907,109205
106790,109124
106701,109119
106546,109006
106461,108990
106319,108912
106261,108862
106111,108835
106040,108819
105969,108759
105935,108746
105833,108715
105821,108715
105785,108676
105804,108646
105726,108696
105770,108657
105733,108662
105728,108648
105717,108627
105748,108669
105762,108684
105739,108662
105780,108703
105806,108689
105746,108702
105804,108685
105822,108711
105813,108701
105834,108712
105842,108729
105802,108709
105831,108707
105854,108706
105859,108706
105843,108722
105845,108689
105825,108731
105831,108700
105842,108722
105841,108703
105841,108720
105886,108731
105850,108733
105846,108695
105912,108763
105916,108732
105898,108752
105963,108773
105990,108805
106032,108790
106034,108830
106053,108833
106050,108835
106118,108853
106117,108875
106127,108847
106180,108918
106194,108890
106220,108903
106214,108912
106242,108908
106280,108932
106271,108938
106305,108954
106289,108954
106353,108974
106376,108955
106394,109020
106376,108975
106430,109039
106478,109016
106507,109047
106476,109048
106498,109040
106535,109081
106527,109046
106550,109067
106518,109090
106560,109045
106540,109113
106547,109069
106554,109117
106565,109096
106611,109090
106601,109106
106621,109140
106625,109103
106636,109124
106672,109154
106657,109126
106692,109156
106720,109170
106726,109181
106780,109180
106766,109146
106811,109212
106796,109198
106806,109221
106831,109191
106848,109196
106838,109226
106851,109261
106828,109232
106887,109229
106872,109269
106911,109261
106878,109265
106920,109274
106938,109278
106959,109285
106980,109306
106988,109315
106995,109318
107031,109299
107045,109362
107041,109334
107109,109351
107136,109383
107126,109362
107206,109395
107181,109410
107209,109391
107284,109446
107278,109461
107290,109459
107342,109482
107328,109460
107407,109486
107393,109523
107472,109511
107459,109536
107473,109542
107482,109527
107473,109579
107516,109539
107495,109549
107540,109600
107504,109561
107533,109531
107580,109597
107552,109593
107510,109597
107513,109595
107508,109548
107554,109579
107570,109630
107545,109571
107572,109578
107544,109602
107510,109562
107568,109587
107525,109620
107533,109593
107549,109591
107546,109576
107535,109605
107566,109569
107565,109583
107537,109561
107529,109574
107523,109552
107481,109589
107505,109559
107497,109582
107484,109560
107452,109571
107520,109554
107508,109576
107491,109602
107468,109566
107507,109558
107476,109596
107493,109563
107539,109551
107506,109612
107486,109571
107530,109587
107505,109578
107525,109613
107496,109583
107521,109550
107483,109560
107473,109585
107455,109569
107357,109500
107303,109481
107217,109443
107120,109399
107013,109323
106904,109289
106748,109203
106609,109149
106414,109040
106291,108938
106113,108876
105917,108793
105748,108711
105565,108631
105415,108544
105214,108451
105101,108401
104899,108297
104764,108259
104667,108194
104530,108132
104420,108090
104354,108031
104301,108024
104223,107987
104170,107964
104155,107953
104135,107937
104111,107939
104113,107958
104114,107925
104098,107926
104123,107956
104152,107959
104141,107954
104183,107971
104220,107985
104205,108007
104261,107987
104276,108057
104284,108010
104322,108036
104313,108048
104326,108057
104398,108094
104401,108064
104389,108097
104378,108123
104416,108085
104428,108118
104455,108097
104496,108114
104479,108145
104529,108120
104529,108134
104587,108165
104568,108196
104644,108183
104646,108196
104704,108222
104760,108282
104758,108292
104835,108307
104847,108337
104948,108342
104976,108411
105008,108395
105089,108451
105129,108469
105188,108461
105241,108528
105236,108510
105318,108585
105351,108583
105391,108593
105450,108609
105464,108628
105454,108669
105511,108663
105516,108651
105525,108690
105492,108686
105528,108679
105537,108669
105528,108673
105524,108682
105476,108638
105489,108668
105483,108662
105508,108633
105509,108682
105479,108666
105532,108682
105499,108665
105518,108639
105559,108675
105500,108704
105530,108686
105518,108683
105565,108693
105565,108702
105604,108711
105574,108660
105590,108720
105624,108714
105607,108737
105602,108709
105648,108759
105653,108728
105683,108783
105656,108760
105715,108758
105759,108784
105764,108811
105800,108837
105775,108843
105819,108814
105841,108875
105872,108863
105845,108874
105876,108896
105866,108823
105883,108871
105894,108858
105924,108876
105904,108875
105911,108891
105916,108905
105936,108900
105983,108922
105983,108911
105957,108916
106020,108936
105962,108939
106060,108966
106067,108979
106073,108991
106111,109004
106124,109002
106143,109006
106179,109012
106240,109085
106257,109037
106253,109067
106272,109068
106345,109134
106318,109098
106333,109143
106380,109122
106400,109140
106379,109172
106407,109138
106436,109183
106427,109179
106446,109186
106483,109187
106532,109188
106525,109224
106500,109196
106561,109228
106546,109226
106579,109240
106584,109232
106604,109241
106593,109262
106669,109255
106639,109273
106679,109310
106647,109284
106698,109318
106667,109322
106700,109293
106735,109317
106720,109322
106737,109306
106711,109332
106713,109307
106743,109343
106720,109311
106721,109334
106717,109308
106725,109280
106761,109323
106710,109338
106731,109301
106737,109323
106717,109315
106759,109300
106781,109345
106779,109306
106771,109336
106802,109330
106820,109362
106794,109338
106809,109351
106756,109352
106750,109325
106686,109298
106618,109212
106549,109186
106408,109164
106357,109097
106247,109046
106162,109009
105986,108920
105916,108881
105804,108847
105687,108791
105560,108704
105462,108697
105368,108612
105234,108542
105195,108544
105055,108513
104994,108463
104929,108437
104872,108379
104847,108375
104791,108407
104793,108340
104769,108334
104787,108326
104750,108333
104788,108353
104790,108374
104793,108394
104810,108410
104869,108429
104904,108435
104966,108486
104947,108487
105027,108481
105027,108524
105109,108531
105145,108587
105152,108555
105262,108594
105232,108633
105289,108606
105358,108664
105358,108671
105455,108717
105438,108719
105496,108724
105545,108742
105533,108756
105587,108757
105583,108794
105600,108789
105626,108820
105635,108802
105681,108816
105685,108841
105682,108823
105748,108851
105739,108877
105749,108892
105776,108895
105847,108909
105852,108931
105859,108936
105921,108942
105948,108959
105965,108990
105988,108976
106015,108989
105989,109002
106051,109015
106031,108992
106040,109001
106052,109024
106059,108998
106016,109031
105978,108970
105968,108976
105911,108969
105903,108957
105871,108944
105884,108931
105806,108920
105773,108922
105745,108861
105726,108863
105641,108856
105656,108808
105596,108833
105577,108767
105553,108795
105506,108795
105452,108742
105424,108738
105446,108744
105410,108725
105442,108725
105375,108708
105388,108689
105397,108738
105394,108671
105413,108717
105401,108717
105413,108708
105472,108757
105453,108754
105504,108759
105531,108773
105539,108811
105606,108786
105599,108833
105620,108830
105664,108866
105647,108867
105691,108870
105743,108905
105733,108911
105793,108895
105771,108929
105798,108937
105800,108927
105809,108941
105828,108932
105886,108952
105870,108971
105915,108973
105961,108981
105930,109022
105990,108991
105979,109033
106051,109046
106050,109036
106095,109071
106150,109102
106189,109086
106198,109112
106196,109135
106220,109148
106285,109148
106284,109184
106326,109149
106400,109222
106403,109186
106425,109225
106459,109226
106489,109259
106512,109234
106544,109307
106566,109271
106572,109288
106620,109315
106659,109339
106644,109328
106654,109349
106701,109358
106701,109366
106713,109327
106708,109355
106692,109376
106735,109351
106695,109360
106748,109371
106721,109370
106706,109341
106715,109390
106689,109381
106733,109344
106741,109379
106700,109372
106734,109363
106756,109415
106715,109344
106745,109365
106745,109383
106764,109372
106739,109367
106722,109389
106685,109346
106641,109343
106659,109344
106578,109277
106535,109255
106463,109190
106362,109186
106248,109105
106131,109076
105999,109024
105874,108924
105748,108864
105555,108760
105433,108717
105293,108623
105140,108598
105014,108491
104903,108458
104752,108375
104640,108319
104526,108293
104473,108250
104402,108206
104349,108174
104268,108156
104214,108121
104226,108132
104215,108130
104175,108142
104180,108078
104196,108133
104191,108152
104234,108120
104217,108134
104302,108171
104272,108200
104312,108184
104385,108232
104379,108224
104463,108273
104509,108277
104519,108301
104623,108348
104650,108378
104703,108373
104780,108420
104836,108444
104829,108464
104937,108508
104958,108517
105015,108548
105047,108569
105077,108588
105154,108585
105151,108616
105185,108629
105240,108649
105226,108664
105304,108695
105319,108676
105347,108728
105383,108732
105431,108767
105435,108764
105511,108775
105521,108837
105572,108809
105623,108843
105694,108875
105717,108920
105765,108911
105835,108955
105883,108966
105892,108967
105979,108976
106025,109045
106025,109066
106099,109102
106118,109095
106148,109094
106211,109123
106243,109155
106233,109169
106243,109137
106292,109186
106269,109169
106286,109193
106286,109169
106292,109173
106244,109137
106263,109172
106281,109158
106278,109187
106217,109138
106276,109169
106220,109174
106201,109164
106170,109153
106200,109128
106157,109093
106123,109130
106110,109108
106083,109075
106078,109053
106041,109083
106047,109068
105992,109051
106001,109016
106003,109036
105986,109044
105965,109033
105966,109023
106007,109024
105993,109062
106018,109033
105992,109034
106031,109052
106073,109054
106087,109122
106144,109084
106156,109108
106207,109126
106216,109150
106272,109139
106276,109170
106284,109154
106326,109178
106379,109217
106372,109256
106438,109234
106421,109259
106470,109271
106496,109303
106525,109289
106578,109310
106602,109315
106632,109338
106656,109381
106679,109362
106721,109371
106746,109405
106802,109439
106810,109456
106867,109435
106885,109510
106986,109514
106951,109533
106978,109546
107043,109587
107122,109591
107124,109589
107194,109629
107247,109647
107228,109670
107319,109672
107398,109713
107363,109716
107451,109770
107486,109763
107575,109799
107564,109852
107603,109822
107690,109873
107699,109887
107731,109901
107781,109888
107789,109968
107817,109917
107892,109981
107890,109956
107910,110006
107934,110020
107944,110034
107996,110007
108000,110060
108019,110051
108015,110044
108050,110066
108042,110045
108065,110073
108100,110065
108108,110113
108098,110124
108143,110117
108170,110128
108217,110153
108217,110131
108237,110157
108227,110130
108277,110193
108210,110161
108254,110146
108221,110183
108201,110172
108165,110159
108153,110092
108125,110111
108044,110056
107979,110027
107911,109950
107822,109948
107705,109884
107584,109818
107422,109708
107320,109687
107190,109631
107006,109514
106892,109494
106694,109415
106565,109287
106401,109250
106244,109211
106078,109110
105975,109023
105839,108994
105678,108939
105583,108858
105451,108806
105363,108775
105286,108710
105222,108699
105141,108666
105157,108654
105072,108665
105113,108645
105135,108653
105154,108629
105164,108690
105188,108678
105244,108690
105256,108741
105349,108773
105392,108811
105451,108820
105532,108880
105585,108922
105633,108932
105718,108946
105792,109012
105829,109019
105927,109073
105993,109062
106039,109114
106087,109162
106153,109163
106263,109226
106304,109232
106351,109267
106407,109286
106480,109311
106503,109367
106572,109367
106650,109399
106657,109397
106727,109445
106791,109463
106795,109457
106861,109521
106883,109536
106912,109561
106946,109559
106983,109535
107000,109586
107010,109594
107062,109624
107063,109600
107104,109631
107088,109631
107113,109636
107114,109656
107097,109631
107151,109649
107108,109637
107129,109636
107080,109615
107064,109619
107098,109617
107081,109646
107064,109577
107029,109596
107064,109583
107005,109608
106973,109563
107006,109614
106982,109569
106939,109573
106933,109528
106901,109561
106884,109496
106833,109514
106825,109516
106793,109468
106818,109478
106775,109479
106756,109458
106747,109462
106753,109448
106754,109484
106714,109438
106740,109444
106727,109459
106756,109441
106739,109437
106800,109495
106766,109492
106776,109443
106825,109511
106796,109489
106860,109503
106863,109499
106880,109534
106873,109488
106900,109554
106917,109502
106939,109525
106941,109571
106970,109561
107041,109567
107060,109612
107086,109616
107115,109593
107172,109656
107156,109696
107208,109642
107235,109686
107244,109725
107286,109718
107321,109752
107350,109716
107374,109756
107397,109756
107427,109794
107451,109804
107447,109816
107486,109832
107533,109850
107527,109853
107505,109829
107593,109888
107600,109862
107588,109888
107640,109909
107655,109910
107687,109907
107692,109941
107761,109955
107753,109961
107792,110002
107806,109977
107837,109993
107845,110017
107903,110032
107898,110050
107942,110049
107958,110064
107984,110061
107978,110065
108022,110105
108040,110110
108081,110114
108091,110140
108087,110132
108135,110136
108148,110139
108200,110178
108185,110178
108226,110169
108304,110204
108282,110203
108364,110224
108349,110307
108423,110305
108468,110292
108507,110312
108555,110336
108578,110366
108609,110394
108608,110369
108639,110355
108652,110347
108608,110372
108578,110359
108500,110287
108474,110310
108427,110241
108305,110210
108198,110141
108108,110082
107981,110080
107885,110007
107782,109935
107694,109869
107562,109854
107460,109757
107365,109732
107269,109703
107178,109661
107069,109595
107039,109589
106941,109549
106884,109494
106805,109489
106773,109469
106708,109432
106691,109417
106668,109405
106643,109422
106623,109390
106634,109413
106669,109448
106656,109442
106672,109411
106723,109430
106707,109467
106779,109459
106822,109488
106878,109518
106904,109580
106978,109566
107009,109592
107041,109601
107089,109641
107091,109652
107174,109686
107176,109707
107240,109658
107254,109713
107284,109715
107250,109728
107316,109731
107333,109739
107366,109761
107343,109767
107402,109783
107383,109796
107437,109789
107444,109813
107472,109812
107476,109799
107506,109813
107532,109832
107542,109862
107593,109854
107573,109858
107612,109866
107637,109907
107632,109891
107671,109904
107701,109924
107701,109927
107715,109950
107729,109915
107730,109926
107747,109925
107727,109931
107751,109938
107737,109921
107725,109921
107677,109922
107706,109894
107673,109883
107648,109905
107603,109852
107550,109830
107550,109824
107530,109827
107476,109806
107446,109767
107423,109804
107368,109726
107336,109710
107330,109679
107287,109711
107247,109656
107196,109649
107214,109661
107203,109673
107208,109621
107167,109651
107192,109640
107163,109641
107180,109629
107205,109633
107217,109636
107241,109643
107260,109652
107223,109649
107289,109653
107285,109673
107323,109690
107332,109695
107359,109724
107369,109745
107423,109746
107418,109747
107396,109746
107459,109759
107469,109779
107495,109794
107536,109793
107529,109822
107587,109856
107612,109863
107614,109839
107615,109882
107679,109877
107708,109888
107715,109925
107712,109883
107765,109927
107823,109965
107806,109959
107811,109946
107840,109930
107866,109991
107828,109963
107845,109964
107849,109981
107857,109951
107894,109964
107854,109950
107885,109969
107933,109996
107929,109975
107914,110002
107940,109999
107926,109966
107963,110030
107923,110021
107975,110041
108003,110003
108003,110044
107992,110014
108029,110021
108047,110070
108048,110012
108093,110041
108062,110061
108112,110083
108113,110082
108129,110062
108179,110117
108153,110074
108156,110107
108236,110110
108221,110122
108234,110148
108294,110150
108295,110146
108282,110157
108326,110158
108346,110181
108354,110186
108368,110160
108423,110193
108360,110186
108400,110183
108390,110195
108387,110188
108344,110187
108278,110149
108246,110087
108183,110118
108098,110044
108020,110011
107952,109958
107845,109936
107717,109830
107637,109816
107513,109730
107387,109703
107261,109650
107153,109561
107071,109539
106940,109482
106847,109458
106763,109396
106684,109357
106591,109289
106563,109283
106466,109270
106454,109266
106394,109217
106396,109203
106347,109223
106342,109189
106370,109183
106381,109212
106394,109226
106397,109254
106420,109237
106479,109246
106496,109329
106543,109275
106584,109339
106601,109359
106659,109332
106686,109432
106753,109398
106806,109450
106883,109451
106899,109478
106926,109514
106998,109519
107003,109547
107041,109582
107086,109555
107140,109624
107163,109615
107216,109616
107231,109687
107245,109656
107296,109682
107317,109697
107345,109693
107359,109710
107403,109726
107388,109725
107460,109756
107514,109772
107527,109768
107573,109794
107584,109854
107618,109822
107676,109855
107664,109858
107722,109867
107756,109900
107765,109915
107809,109900
107820,109897
107822,109935
107859,109958
107880,109954
107890,109924
107907,109962
107913,109961
107931,109979
107914,109994
107900,109934
107927,109978
107920,109957
107858,109959
107878,109965
107871,109928
107826,109916
107843,109896
107824,109922
107832,109924
107804,109928
107821,109896
107808,109930
107781,109881
107800,109923
107790,109891
107785,109917
107825,109892
107793,109919
107826,109894
107864,109931
107834,109929
107870,109958
107879,109925
107881,109970
107853,109922
107880,109959
107930,109989
107890,109959
107909,109955
107967,110017
107944,109967
107998,110001
107969,109991
108012,110004
108029,110020
108038,110009
108052,110029
108036,110044
108061,110040
108115,110043
108105,110075
108064,110051
108126,110084
108149,110077
108146,110100
108162,110074
108220,110111
108160,110079
108204,110089
108181,110129
108186,110130
108214,110101
108198,110110
108214,110094
108237,110155
108241,110139
108261,110150
108258,110107
108238,110143
108291,110159
108256,110113
108261,110136
108294,110139
108269,110117
108325,110162
108258,110125
108291,110135
108318,110162
108310,110151
108297,110146
108329,110148
108337,110182
108330,110150
108324,110143
108362,110140
108359,110200
108329,110165
108390,110170
108353,110198
108368,110187
108355,110154
108344,110167
108377,110171
108372,110148
108363,110180
108352,110166
108394,110152
108351,110192
108406,110149
108414,110222
108396,110190
108440,110216
108416,110219
108412,110164
108391,110188
108431,110186
108401,110186
108372,110180
108348,110164
108317,110120
108288,110110
108224,110107
108146,110029
108083,110035
108007,109962
107884,109948
107775,109821
107694,109820
107543,109732
107427,109653
107314,109631
107198,109570
107062,109510
106981,109435
106808,109410
106687,109348
106576,109255
106458,109213
106379,109169
106244,109110
106180,109061
106072,109038
106048,109001
105960,108991
105892,108948
105880,108926
105875,108949
105856,108931
105818,108923
105827,108941
105829,108904
105888,108935
105864,108952
105907,108967
105963,108971
105986,109005
106009,109047
106011,109041
106107,109052
106158,109079
106184,109086
106207,109083
106272,109136
106249,109154
106315,109154
106317,109160
106398,109182
106417,109216
106412,109218
106494,109233
106508,109267
106523,109268
106583,109267
106574,109292
106641,109283
106630,109331
106674,109311
106708,109333
106695,109341
106754,109346
106784,109347
106782,109422
106822,109388
106849,109454
106870,109400
106917,109427
106928,109456
106930,109491
106982,109465
106969,109452
107003,109509
107053,109523
107034,109526
107034,109484
107082,109527
107101,109500
107068,109541
107059,109513
107044,109473
107052,109535
107020,109476
107011,109475
106977,109465
106952,109460
106940,109454
106891,109424
106893,109434
106831,109413
106853,109420
106829,109395
106779,109378
106793,109398
106716,109341
106728,109352
106690,109335
106648,109307
106676,109319
106626,109312
106632,109299
106643,109300
106600,109294
106622,109303
106600,109289
106579,109277
106599,109277
106552,109282
106584,109252
106519,109247
106543,109260
106514,109230
106503,109233
106478,109253
106451,109189
106436,109190
106405,109160
106412,109186
106386,109176
106339,109148
106338,109136
106316,109151
106337,109135
106313,109106
106324,109101
106292,109135
106310,109105
106278,109101
106279,109078
106313,109084
106323,109085
106327,109135
106351,109132
106381,109170
106405,109147
106454,109190
106496,109188
106539,109214
106556,109215
106569,109253
106621,109224
106614,109282
106663,109285
106718,109269
106729,109315
106751,109335
106827,109346
106848,109374
106892,109390
106936,109423
106952,109439
107029,109483
107088,109492
107092,109503
107152,109543
107198,109570
107257,109580
107261,109584
107328,109629
107382,109639
107389,109661
107468,109658
107468,109686
107514,109713
107554,109715
107612,109758
107633,109769
107636,109788
107668,109768
107709,109807
107704,109803
107722,109828
107714,109798
107694,109806
107688,109783
107626,109737
107582,109735
107510,109701
107400,109655
107325,109601
107196,109535
107091,109489
106977,109420
106819,109349
106693,109300
106563,109233
106406,109148
106267,109075
106123,109007
105999,108958
105885,108866
105739,108828
105667,108771
105552,108714
105503,108706
105386,108635
105328,108605
105326,108604
105298,108587
105245,108589
105234,108533
105238,108588
105258,108580
105271,108565
105290,108607
105286,108558
105302,108613
105392,108647
105414,108648
105485,108688
105498,108662
105524,108721
105623,108748
105633,108763
105703,108788
105737,108852
105803,108890
105808,108891
105871,108917
105869,108918
105942,108904
105955,108928
106032,108949
106060,109007
106050,109000
106120,108998
106138,109044
106157,109054
106218,109084
106223,109100
106276,109078
106283,109119
106308,109112
106369,109154
106391,109176
106426,109154
106451,109196
106511,109235
106529,109229
106587,109243
106587,109304
106641,109313
106693,109315
106763,109360
106787,109387
106804,109360
106849,109397
106914,109422
106903,109395
106980,109441
106980,109423
106956,109448
106983,109469
106969,109442
106980,109437
106968,109473
106951,109449
106928,109430
106929,109431
106874,109412
106868,109381
106847,109384
106830,109381
106805,109366
106807,109348
106748,109379
106713,109360
106734,109336
106688,109317
106739,109303
106654,109330
106653,109317
106654,109295
106609,109314
106639,109276
106648,109303
106626,109287
106605,109266
106615,109273
106614,109256
106581,109281
106608,109264
106591,109247
106587,109261
106573,109247
106580,109248
106592,109246
106582,109279
106614,109299
106625,109290
106611,109301
106650,109304
106698,109282
106694,109314
106754,109334
106780,109340
106751,109382
106803,109379
106861,109393
106864,109416
106896,109433
106935,109426
106954,109443
106992,109476
106995,109499
107044,109493
107051,109509
107094,109513
107141,109539
107152,109535
107193,109581
107209,109573
107235,109595
107289,109614
107280,109623
107372,109651
107337,109651
107395,109676
107434,109686
107428,109675
107471,109725
107486,109731
107522,109755
107551,109739
107584,109763
107591,109773
107632,109785
107666,109797
107663,109829
107683,109823
107743,109840
107725,109859
107763,109852
107784,109854
107783,109866
107778,109865
107776,109861
107772,109858
107756,109852
107678,109802
107669,109786
107619,109776
107493,109715
107457,109694
107324,109625
107237,109583
107122,109518
107001,109490
106881,109402
106763,109367
106690,109286
106535,109251
106439,109180
106320,109125
106226,109083
106101,109027
106018,108998
105932,108952
105833,108903
105790,108868
105760,108856
105687,108821
105663,108815
105650,108793
105611,108786
105635,108787
105593,108783
105681,108828
105642,108800
105674,108833
105680,108836
105717,108840
105744,108857
105797,108896
105834,108906
105887,108922
105923,108943
105971,108973
105989,108986
106061,109005
106115,109046
106155,109081
106220,109087
106266,109105
106277,109127
106366,109159
106429,109190
106436,109193
106509,109235
106547,109264
106569,109268
106628,109297
106697,109336
106734,109360
106762,109379
106849,109405
106895,109409
106912,109437
107012,109496
107017,109506
107047,109515
107135,109532
107134,109534
107189,109576
107242,109590
107224,109584
107227,109603
107274,109634
107284,109611
107240,109615
107275,109636
107291,109589
107251,109608
107272,109588
107197,109586
107199,109565
107215,109579
107141,109582
107149,109546
107088,109540
107091,109534
107043,109493
107001,109454
106948,109460
106959,109463
106881,109404
106857,109407
106823,109359
106757,109352
106681,109329
106686,109300
106611,109283
106567,109274
106520,109227
106501,109205
106457,109209
106450,109167
106410,109166
106376,109165
106357,109162
106344,109114
106331,109118
106318,109101
106331,109111
106310,109135
106316,109095
106329,109141
106329,109123
106297,109139
106350,109152
106365,109125
106347,109139
106406,109150
106396,109145
106394,109147
106407,109140
106409,109155
106403,109179
106437,109175
106451,109179
106448,109178
106501,109224
106505,109205
106493,109192
106527,109246
106532,109228
106559,109226
106579,109254
106581,109267
106630,109279
106630,109276
106662,109301
106712,109312
106684,109309
106738,109336
106781,109345
106785,109357
106811,109399
106867,109379
106884,109402
106916,109428
106925,109423
106961,109448
107014,109475
107019,109470
107067,109515
107115,109525
107145,109539
107194,109576
107203,109566
107229,109584
107249,109581
107282,109614
107279,109623
107352,109644
107318,109661
107340,109635
107412,109690
107384,109676
107416,109687
107390,109668
107466,109681
107489,109707
107515,109744
107494,109701
107558,109771
107553,109764
107627,109766
107625,109825
107623,109756
107648,109800
107637,109796
107684,109832
107688,109827
107685,109860
107700,109826
107697,109828
107671,109835
107612,109797
107629,109797
107545,109731
107494,109721
107423,109681
107312,109635
107182,109578
107075,109523
107007,109515
106866,109402
106755,109349
106579,109289
106447,109222
106351,109187
106192,109075
106057,109010
105938,109000
105830,108918
105676,108871
105626,108832
105517,108794
105401,108719
105349,108699
105252,108644
105246,108680
105167,108639
105142,108621
105121,108565
105109,108576
105078,108545
105122,108562
105102,108559
105152,108621
105129,108581
105179,108618
105228,108648
105237,108664
105285,108660
105340,108694
105355,108706
105460,108734
105505,108784
105568,108803
105598,108827
105688,108873
105707,108911
105759,108891
105845,108935
105847,108957
105923,108966
105951,109031
105959,108995
106000,109040
106040,109042
106018,109061
106032,109029
106069,109083
106075,109071
106083,109072
106056,109090
106056,109059
106127,109100
106081,109072
106092,109102
106068,109072
106074,109078
106076,109059
106077,109079
106115,109094
106111,109082
106094,109070
106095,109083
106125,109087
106078,109083
106134,109102
106082,109073
106126,109090
106166,109094
106147,109138
106157,109101
106148,109100
106163,109128
106145,109091
106183,109116
106145,109082
106182,109108
106136,109089
106181,109114
106127,109126
106118,109086
106144,109080
106099,109091
106112,109116
106114,109076
106103,109096
106103,109062
106054,109105
106031,109086
106005,109074
106021,109056
105988,109054
105970,109055
105961,109033
105913,109031
105874,108979
105898,108975
105840,108999
105876,108983
105812,108972
105784,108966
105775,108936
105768,108961
105745,108942
105758,108921
105780,108931
105760,108961
105741,108896
105802,108926
105769,108947
105798,108958
105845,108956
105814,108992
105896,109016
105874,109017
105951,109038
105933,109031
105971,109050
105993,109046
106068,109082
106040,109093
106072,109112
106052,109086
106104,109108
106131,109139
106157,109122
106145,109155
106173,109153
106170,109155
106228,109190
106230,109184
106245,109195
106290,109224
106302,109217
106316,109243
106358,109255
106381,109273
106439,109264
106440,109323
106481,109318
106539,109353
106559,109370
106613,109377
106601,109427
106617,109353
106693,109413
106701,109424
106682,109415
106715,109421
106730,109483
106759,109457
106734,109471
106739,109458
106762,109474
106706,109454
106714,109477
106738,109491
106743,109462
106758,109446
106751,109478
106710,109469
106775,109458
106752,109490
106747,109481
106813,109498
106799,109489
106842,109500
106870,109539
106884,109519
106910,109540
106929,109531
106941,109572
106924,109510
106955,109547
106936,109546
106885,109528
106829,109497
106792,109509
106726,109454
106690,109417
106620,109368
106554,109357
106471,109292
106372,109247
106311,109213
106198,109170
106133,109133
106017,109110
105942,109033
105885,109041
105809,108986
105698,108936
105699,108917
105627,108897
105562,108845
105526,108847
105483,108855
105457,108796
105486,108816
105452,108844
105463,108836
105480,108814
105514,108857
105489,108880
105544,108840
105580,108885
105588,108906
105672,108906
105699,108932
105781,108968
105790,108991
105855,109004
105879,109051
105932,109054
106019,109101
106080,109126
106113,109156
106163,109166
106207,109217
106240,109199
106319,109228
106331,109285
106360,109284
106374,109284
106467,109323
106470,109340
106483,109332
106558,109388
106529,109405
106579,109387
106611,109409
106624,109407
106693,109423
106692,109438
106728,109477
106735,109459
106772,109471
106790,109487
106834,109537
106842,109488
106866,109529
106947,109542
106981,109583
106937,109591
106999,109575
107026,109595
107040,109628
107113,109675
107162,109654
107145,109663
107208,109699
107243,109701
107222,109706
107261,109710
107308,109735
107315,109730
107333,109763
107377,109767
107356,109778
107392,109774
107380,109776
107407,109798
107448,109795
107424,109813
107477,109844
107494,109824
107485,109846
107547,109881
107539,109843
107559,109862
107558,109877
107624,109877
107624,109906
107626,109893
107661,109946
107669,109945
107673,109951
107715,109969
107728,109948
107781,109991
107771,109985
107808,109992
107843,110010
107861,110012
107847,110020
107912,110050
107926,110046
107943,110057
107927,110054
107978,110100
107998,110103
108003,110125
108055,110111
108099,110137
108096,110163
108110,110148
108161,110169
108185,110176
108241,110199
108233,110206
108284,110221
108313,110239
108366,110262
108348,110299
108398,110257
108409,110301
108404,110301
108460,110311
108485,110325
108484,110328
108544,110332
108520,110374
108547,110342
108577,110394
108642,110398
108639,110397
108661,110419
108699,110409
108731,110456
108737,110441
108749,110441
108799,110475
108801,110483
108809,110450
108855,110496
108836,110511
108886,110474
108947,110513
108895,110536
108935,110515
108964,110538
108976,110572
108976,110564
109029,110559
109003,110554
109085,110601
109072,110592
109070,110600
109064,110576
109129,110619
109124,110606
109104,110616
109106,110571
109055,110603
109086,110585
109052,110575
108989,110549
108942,110520
108867,110457
108776,110443
108720,110386
108620,110311
108545,110320
108381,110239
108297,110188
108183,110150
108060,110103
107953,110000
107883,109979
107729,109894
107673,109896
107580,109858
107484,109797
107423,109796
107327,109705
107300,109708
107240,109705
107146,109631
107128,109661
107089,109619
107056,109627
107060,109640
107034,109639
107070,109650
107084,109624
107101,109637
107127,109678
107123,109666
107194,109689
107227,109718
107305,109746
107363,109766
107407,109803
107478,109787
107509,109847
107577,109860
107626,109890
107709,109935
107727,109946
107797,109969
107843,109988
107836,109983
107874,110012
107936,110059
107911,110032
107958,110037
108010,110074
108024,110092
107987,110093
108016,110056
108051,110097
108023,110121
108036,110102
108061,110079
108068,110123
108076,110156
108098,110103
108091,110116
108077,110124
108102,110129
108097,110118
108134,110134
108153,110106
108154,110172
108153,110146
108131,110140
108129,110138
108134,110140
108186,110172
108166,110143
108150,110155
108115,110124
108127,110097
108123,110161
108122,110139
108113,110118
108117,110128
108063,110116
108069,110083
108020,110093
108043,110087
107994,110054
107991,110074
107941,110027
107927,110035
107934,110058
107917,110020
107889,109999
107858,109995
107842,110001
107864,110024
107833,110017
107812,109981
107854,110006
107818,109976
107849,109989
107808,109988
107853,109990
107801,110037
107872,110027
107856,110030
107900,110006
107898,110043
107880,110005
107923,110014
107955,110036
107937,110044
107921,110028
108002,110105
107992,110070
108011,110083
108035,110081
108074,110099
108058,110086
108069,110122
108136,110131
108100,110141
108104,110134
108158,110137
108161,110130
108110,110159
108174,110159
108185,110183
108195,110153
108192,110179
108188,110190
108243,110197
108249,110211
108279,110176
108253,110190
108283,110201
108322,110222
108299,110247
108315,110205
108340,110243
108340,110255
108379,110271
108379,110244
108381,110284
108425,110309
108412,110269
108460,110313
108460,110302
108442,110311
108451,110309
108513,110315
108473,110341
108477,110331
108526,110311
108514,110336
108538,110336
108521,110368
108521,110347
108573,110343
108549,110345
108594,110375
108550,110354
108564,110341
108601,110372
108591,110361
108597,110371
108627,110364
108626,110355
108682,110417
108669,110382
108697,110381
108710,110420
108761,110445
108701,110404
108717,110457
108742,110443
108747,110430
108831,110476
108806,110456
108836,110462
108817,110482
108839,110474
108908,110492
108870,110526
108869,110499
108932,110498
108906,110510
108920,110494
108934,110548
108919,110503
108914,110494
108912,110488
108918,110496
108833,110493
108785,110457
108772,110412
108662,110381
108565,110295
108519,110320
108397,110242
108256,110195
108146,110096
108032,110051
107840,109986
107721,109901
107620,109847
107424,109790
107299,109712
107216,109677
107068,109618
106957,109522
106883,109507
106723,109493
106625,109422
106579,109384
106503,109350
106473,109329
106373,109267
106381,109309
106311,109273
106318,109299
106270,109224
106314,109234
106290,109277
106280,109276
106328,109268
106345,109267
106378,109291
106362,109287
106452,109306
106455,109357
106489,109329
106530,109383
106543,109356
106595,109389
106617,109419
106618,109438
106656,109469
106711,109481
106717,109458
106763,109484
106785,109511
106853,109547
106845,109538
106887,109522
106915,109543
106972,109569
106999,109620
106999,109596
107052,109648
107094,109657
107099,109656
107148,109673
107212,109685
107242,109725
107277,109722
107321,109777
107376,109795
107440,109792
107479,109856
107526,109850
107557,109884
107621,109902
107659,109918
107675,109940
107691,109952
107747,109993
107745,109977
107800,109999
107806,109990
107789,109988
107834,110007
107797,110001
107794,110018
107811,109999
107762,110012
107751,109949
107774,109982
107709,109941
107695,109946
107670,109925
107658,109908
107582,109932
107583,109891
107541,109879
107519,109874
107464,109841
107448,109781
107376,109813
107389,109795
107362,109795
107322,109746
107297,109769
107306,109725
107240,109736
107230,109705
107234,109714
107159,109707
107202,109693
107136,109700
107109,109679
107104,109657
107090,109658
107060,109644
107051,109644
107032,109645
106995,109654
106997,109578
106982,109623
106984,109604
106981,109608
106968,109628
106938,109573
106983,109622
106960,109593
106969,109617
106965,109632
107001,109583
107006,109621
107050,109647
107011,109643
107038,109654
107089,109664
107097,109660
107112,109683
107125,109704
107167,109696
107162,109724
107226,109729
107258,109764
107292,109741
107314,109793
107321,109776
107373,109783
107400,109851
107464,109847
107489,109878
107543,109872
107589,109929
107652,109925
107684,109980
107758,109971
107781,110056
107858,110063
107909,110065
108009,110130
108032,110156
108079,110142
108148,110225
108254,110206
108270,110226
108345,110292
108344,110300
108398,110341
108472,110332
108486,110352
108557,110396
108636,110431
108664,110425
108679,110445
108771,110495
108765,110504
108824,110501
108867,110512
108890,110562
108929,110555
108934,110555
109029,110586
109003,110605
109061,110628
109108,110635
109106,110662
109129,110641
109150,110679
109199,110677
109201,110729
109182,110706
109258,110682
109235,110723
109269,110755
109282,110722
109319,110765
109284,110719
109296,110750
109345,110771
109339,110745
109364,110783
109373,110759
109397,110787
109386,110791
109388,110790
109425,110809
109383,110808
109427,110804
109404,110815
109460,110817
109434,110840
109417,110786
109427,110817
109451,110838
109405,110798
109442,110807
109429,110831
109429,110819
109404,110786
109314,110776
109278,110737
109256,110738
109212,110689
109065,110680
109032,110612
108921,110564
108842,110521
108744,110457
108583,110399
108490,110339
108353,110288
108213,110214
108074,110149
107938,110091
107774,110017
107711,109959
107559,109952
107426,109847
107352,109813
107235,109788
107144,109727
107085,109701
107013,109661
106995,109664
106878,109610
106870,109592
106840,109589
106787,109611
106777,109559
106772,109538
106787,109554
106773,109568
106795,109543
106814,109603
106815,109610
106815,109610
106822,109599
106878,109638
106909,109613
106953,109678
106979,109683
106976,109680
107008,109684
107054,109728
107108,109726
107136,109758
107171,109747
107191,109747
107279,109809
107248,109817
107293,109789
107341,109867
107368,109850
107379,109859
107393,109859
107459,109883
107455,109944
107490,109939
107517,109929
107561,109942
107563,109964
107613,109975
107668,110012
107671,109986
107713,110023
107751,110030
107789,110074
107782,110077
107827,110064
107843,110104
107915,110090
107867,110085
107930,110097
107965,110130
107974,110126
107965,110145
107971,110154
108000,110141
108063,110184
108051,110138
108085,110188
108085,110171
108110,110190
108090,110194
108091,110188
108152,110188
108107,110205
108149,110175
108162,110200
108167,110247
108169,110207
108203,110210
108200,110233
108269,110276
108265,110236
108284,110229
108273,110236
108319,110274
108251,110255
108305,110272
108292,110298
108340,110279
108314,110313
108363,110284
108369,110311
108375,110282
108422,110306
108442,110337
108461,110333
108516,110347
108504,110341
108557,110416
108558,110409
108598,110393
108608,110424
108636,110424
108656,110463
108693,110458
108740,110488
108771,110491
108763,110503
108834,110535
108835,110516
108866,110548
108859,110522
108907,110545
108906,110557
108942,110550
108944,110629
108954,110566
108971,110582
109006,110598
108990,110619
108985,110599
109020,110595
109080,110651
109065,110619
109100,110654
109096,110650
109087,110684
109078,110646
109148,110682
109130,110674
109102,110674
109159,110681
109149,110711
109181,110663
109198,110717
109212,110713
109193,110720
109215,110679
109217,110745
109210,110724
109258,110713
109263,110742
109246,110753
109253,110706
109279,110722
109308,110751
109285,110730
109319,110763
109302,110778
109378,110774
109316,110799
109339,110766
109370,110801
109356,110762
109358,110765
109334,110796
109331,110767
109376,110755
109363,110803
109398,110793
109368,110790
109392,110793
109336,110816
109379,110785
109428,110804
109410,110780
109420,110791
109425,110774
109481,110815
109448,110796
109493,110844
109485,110845
109458,110842
109490,110832
109525,110849
109462,110844
109479,110824
109439,110802
109451,110827
109382,110771
109377,110761
109299,110751
109228,110683
109138,110668
109076,110610
108917,110543
108862,110480
108705,110465
108598,110373
108436,110340
108315,110247
108185,110208
107982,110091
107872,110021
107726,109966
107573,109902
107395,109824
107332,109764
107144,109694
107050,109641
106884,109597
106812,109534
106671,109491
106606,109439
106489,109388
106407,109373
106338,109342
106290,109314
106231,109284
106200,109276
106172,109246
106123,109253
106138,109242
106109,109241
106092,109234
106087,109230
106091,109224
106090,109223
106112,109222
106131,109228
106138,109217
106138,109244
106136,109257
106170,109256
106188,109258
106183,109266
106228,109248
106195,109265
106258,109287
106235,109313
106271,109303
106320,109293
106272,109321
106304,109337
106292,109306
106364,109319
106417,109357
106436,109389
106473,109385
106507,109397
106517,109420
106598,109436
106651,109473
106724,109513
106748,109521
106830,109561
106832,109573
106907,109607
106968,109626
107034,109678
107043,109642
107101,109693
107135,109680
107195,109719
107229,109780
107297,109764
107294,109805
107328,109808
107355,109798
107424,109850
107399,109833
107433,109850
107406,109851
107427,109850
107490,109865
107435,109831
107470,109871
107470,109839
107482,109878
107468,109857
107422,109857
107426,109836
107399,109829
107363,109836
107335,109782
107357,109831
107310,109789
107270,109778
107295,109762
107227,109738
107226,109778
107209,109723
107170,109718
107184,109726
107112,109724
107130,109702
107092,109674
107078,109669
107072,109642
107056,109688
107042,109633
107045,109662
107066,109639
107029,109696
107054,109660
107042,109655
107060,109671
107067,109670
107110,109684
107067,109692
107125,109670
107165,109720
107145,109719
107177,109707
107194,109734
107220,109730
107251,109756
107230,109741
107287,109759
107281,109776
107288,109812
107305,109767
107364,109819
107349,109824
107377,109802
107387,109839
107443,109844
107484,109867
107465,109896
107462,109844
107522,109900
107562,109904
107549,109914
107600,109920
107609,109893
107659,109980
107663,109950
107674,109962
107673,109980
107726,109965
107742,110012
107723,109995
107778,109999
107789,110007
107763,110005
107799,110024
107812,110031
107810,109994
107770,110017
107799,110023
107813,110021
107773,110038
107738,109981
107791,110000
107737,110021
107722,109999
107683,109969
107710,110000
107673,109996
107634,109932
107617,109947
107599,109895
107570,109936
107530,109918
107524,109877
107540,109889
107478,109856
107456,109832
107427,109842
107438,109840
107374,109838
107356,109786
107369,109824
107304,109795
107356,109782
107312,109806
107275,109762
107310,109770
