11111,11111
0,0
80406,80001
98791,97607
98856,97650
98883,97672
98874,97650
98849,97653
98791,97598
98886,97612
98931,97707
98902,97639
98871,97692
98830,97578
98961,97687
98977,97712
98969,97716
98962,97704
98945,97631
99036,97744
99060,97737
99054,97712
99096,97764
99023,97693
99154,97760
99131,97804
99142,97754
99113,97748
99113,97743
99168,97777
99221,97793
99170,97800
99139,97778
99107,97715
99187,97807
99229,97773
99148,97769
99203,97765
99131,97731
99207,97759
99227,97776
99178,97784
99194,97737
99132,97742
99222,97756
99248,97775
99163,97745
99215,97761
99115,97732
99234,97763
99244,97802
99194,97769
99168,97771
99164,97694
99264,97781
99269,97822
99235,97780
99237,97768
99217,97733
99313,97832
99308,97823
99309,97792
99304,97798
99308,97801
99396,97828
99431,97867
99445,97828
99422,97835
99400,97837
99510,97878
99574,97922
99525,97885
99563,97906
99513,97877
99629,97952
99677,97958
99666,97968
99628,97941
99647,97932
99732,97994
99750,97991
99726,97997
99743,97999
99719,97990
99836,98004
99874,98053
99849,98049
99796,98020
99834,98024
99931,98056
99969,98117
99942,98037
99917,98052
99934,98045
100017,98085
100025,98118
100036,98105
100032,98097
99999,98044
100090,98173
100087,98148
100127,98164
100051,98117
100076,98105
100172,98170
100117,98180
100145,98175
100114,98128
100100,98143
100150,98170
100172,98192
100191,98192
100136,98164
100142,98148
100183,98168
100195,98168
100195,98173
100153,98131
100156,98151
100196,98157
100228,98190
100171,98182
100168,98132
100137,98150
100218,98227
100229,98189
100572,98140
99214,97517
99223,97507
99418,97609
99491,97625
99488,97629
99699,97690
99791,97748
99822,97759
99785,97790
99925,97825
99918,97776
99863,97713
99899,97767
99938,97831
99885,97766
99884,97792
99832,97738
99875,97789
99926,97795
99931,97796
99881,97751
99871,97748
99930,97787
99981,97838
99920,97818
99959,97812
99878,97774
99940,97769
100001,97834
99963,97786
100000,97818
99919,97803
100013,97802
100085,97857
100034,97858
100029,97839
100022,97770
100077,97875
100106,97884
100140,97875
100145,97860
100105,97869
100172,97858
100225,97937
100195,97951
100172,97899
100154,97865
100206,97934
100286,97951
100259,97920
100267,97934
100229,97938
100297,97934
100339,97980
100315,98003
100329,97940
100289,97925
100339,97963
100396,98023
100359,97972
100427,97987
100318,97966
100442,97982
100469,98028
100464,98037
100430,97998
100427,98013
100497,98026
100538,98072
100516,98079
100481,98023
100438,98016
100532,98075
100551,98095
100572,98062
100532,98084
100469,98008
100582,98068
100610,98135
100560,98098
100553,98034
100539,98035
100593,98076
100621,98126
100625,98083
100588,98083
100524,98020
100611,98119
100625,98112
100616,98082
100621,98082
100524,98017
100649,98125
100650,98128
100664,98109
100665,98117
100627,98049
100666,98131
100745,98169
100707,98145
100672,98090
100650,98109
100766,98140
100796,98177
100745,98151
100714,98127
100683,98102
100820,98189
100812,98201
100780,98161
100783,98147
100733,98133
100802,98172
100844,98181
100813,98195
100768,98165
100760,98111
100816,98215
100857,98213
100845,98182
100782,98149
100763,98143
100880,98220
100864,98218
100890,98185
100848,98215
100813,98120
100908,98238
100944,98247
100914,98221
100910,98180
100845,98161
100963,98254
100931,98244
100919,98242
100915,98169
100911,98199
101011,98229
101005,98253
100964,98238
100982,98211
100963,98214
101033,98247
101027,98286
101015,98263
101009,98204
100993,98216
101042,98266
101097,98273
101067,98289
101057,98258
101009,98215
101096,98286
101110,98337
101083,98268
101066,98227
101080,98285
101128,98272
101176,98306
101118,98327
101133,98275
101128,98288
101198,98343
101229,98323
101239,98340
101174,98305
101202,98312
101288,98375
101309,98378
101260,98382
101271,98305
101288,98352
101331,98390
101281,98381
101295,98351
101234,98303
101120,98292
101127,98271
101023,98273
100897,98159
100733,98062
100667,98052
100601,98012
100567,98004
100421,97946
100345,97896
100287,97874
100287,97866
100278,97867
100157,97865
100122,97789
100073,97800
100137,97831
100059,97818
100074,97785
99946,97740
99954,97771
100006,97790
100011,97779
100007,97803
99964,97713
99964,97778
99987,97790
100002,97770
99995,97804
99943,97746
99999,97718
100061,97802
100072,97799
100012,97819
99986,97757
100050,97758
100094,97840
100067,97829
100077,97824
100072,97801
100094,97797
100157,97879
100107,97840
100154,97839
100114,97789
100117,97826
100184,97869
100163,97883
100139,97805
100148,97785
100128,97806
100180,97904
100180,97845
100159,97835
100095,97769
100175,97831
100211,97857
100173,97852
100149,97859
100082,97768
100193,97853
100196,97847
100230,97877
100201,97850
100176,97845
100185,97802
100273,97915
100245,97893
100233,97879
100228,97852
100262,97877
100310,97886
100359,97930
100283,97865
100225,97841
100255,97910
100297,97915
100320,97898
100275,97907
100216,97821
100303,97861
100344,97878
100295,97901
100309,97857
100242,97860
100283,97847
100330,97886
100302,97873
100299,97819
100245,97831
100253,97831
100317,97889
100286,97876
100276,97846
100241,97806
100277,97834
100309,97888
100280,97851
100295,97857
100213,97822
100272,97870
100292,97862
100311,97875
100288,97889
100236,97806
100326,97876
100327,97914
100355,97889
100301,97874
100296,97810
100360,97860
100395,97923
100357,97902
100340,97868
100303,97823
100361,97904
100396,97944
100404,97903
100404,97924
100334,97858
100433,97911
100489,97939
100436,97931
100418,97932
100369,97843
100441,97944
100491,97935
100497,97940
100470,97943
100389,97883
100443,97923
100533,97950
100499,97969
100465,97919
100409,97887
100547,97944
100530,97991
100538,97961
100510,97968
100482,97877
100523,97978
100550,97981
100584,97992
100524,97953
100508,97883
100591,97956
100637,97982
100618,97976
100563,97968
100549,97915
100617,98001
100686,98012
100627,97985
100626,97980
100541,97926
100694,98004
100657,98027
100664,97975
100632,97984
100581,97949
100706,98006
100700,98045
100672,97970
100651,97992
100631,97973
100679,97996
100751,98023
100690,98039
100686,97968
100665,97982
100746,98009
100744,98040
100732,98011
100747,97983
100671,97998
100743,98001
100783,98061
100734,98043
100741,97985
100722,97952
100759,98027
100813,98062
100772,98045
100739,98015
100724,97971
100781,98032
100866,98030
100796,98044
100781,98004
100779,98004
100815,98046
100861,98071
100827,98058
100814,98038
100790,97989
100877,98056
100866,98063
100867,98083
100808,98031
100849,98002
100897,98083
100933,98087
100886,98069
100865,98051
100883,98046
100939,98093
100940,98122
100941,98077
100887,98070
100900,98078
100987,98115
100990,98123
100955,98102
100932,98071
100955,98061
101042,98091
101019,98126
101025,98136
100977,98096
100970,98072
101069,98108
101087,98171
101050,98129
101022,98118
100990,98081
101086,98142
101101,98176
101107,98144
101079,98124
101076,98102
101117,98116
101176,98176
101130,98197
101093,98141
101096,98102
101169,98179
101168,98201
101202,98170
101170,98163
101158,98163
101250,98190
101255,98211
101209,98208
101194,98138
101249,98185
101280,98190
101322,98258
101281,98210
101282,98163
101249,98196
101364,98234
101334,98255
101305,98213
101280,98208
101218,98142
101249,98197
101189,98162
101098,98107
100995,98050
100937,98044
100928,98015
100870,98009
100771,97988
100638,97900
100607,97830
100609,97895
100565,97884
100492,97829
100408,97777
100367,97790
100424,97824
100386,97819
100326,97758
100265,97744
100210,97696
100249,97765
100238,97744
100228,97719
100202,97694
100175,97678
100194,97722
100213,97745
100171,97730
100132,97688
100157,97663
100182,97718
100234,97752
100172,97691
100167,97691
100197,97707
100233,97749
100237,97777
100247,97767
100153,97702
100219,97692
100278,97788
100273,97766
100267,97775
100198,97711
100245,97758
100283,97782
100279,97776
100267,97777
100180,97733
100230,97730
100288,97786
100264,97779
100228,97719
100225,97701
100173,97743
100229,97735
100275,97786
100209,97732
100179,97658
100220,97723
100220,97722
100274,97748
100218,97725
100198,97661
100216,97730
100292,97758
100251,97763
100251,97724
100228,97691
100243,97742
100290,97756
100319,97776
100234,97714
100226,97680
100240,97724
100303,97742
100322,97786
100258,97736
100211,97710
100261,97688
100284,97782
100252,97730
100240,97734
100204,97662
100285,97687
100312,97761
100258,97718
100269,97724
100198,97699
100235,97705
100269,97697
100262,97714
100240,97703
100156,97688
100268,97707
100293,97730
100232,97683
100214,97714
100170,97653
100257,97694
100275,97717
100210,97733
100221,97669
100220,97667
100219,97674
100289,97740
100276,97713
100233,97685
100224,97658
100251,97662
100333,97744
100264,97726
100266,97758
100207,97664
100308,97692
100312,97733
100342,97729
100260,97740
100267,97657
100363,97749
100340,97785
100346,97722
100341,97767
100289,97680
100385,97775
100441,97811
100391,97748
100404,97770
100325,97719
100425,97756
100461,97780
100438,97785
100432,97763
100417,97740
100474,97761
100536,97832
100463,97786
100511,97796
100435,97775
100522,97786
100564,97870
100533,97791
100553,97787
100472,97753
100575,97794
100614,97857
100604,97871
100579,97820
100557,97826
100623,97815
100689,97861
100660,97889
100631,97842
100593,97806
100670,97873
100709,97902
100697,97820
100710,97884
100637,97861
100726,97859
100769,97911
100702,97893
100751,97860
100686,97876
100729,97861
100817,97942
100772,97909
100770,97877
100678,97853
100796,97921
100813,97933
100816,97945
100821,97905
100752,97874
100814,97922
100854,97941
100828,97942
100810,97903
100773,97864
100882,97916
100877,97981
100850,97920
100872,97939
100794,97889
100886,97960
100931,97977
100895,97961
100865,97921
100873,97891
100933,97958
100970,97995
100952,97988
100940,97946
100906,97894
100984,98001
101041,97993
100993,97951
100961,97978
100971,97960
100996,98018
101045,97998
101061,98028
101012,97961
100966,97950
101081,98034
101082,98036
101084,98034
101042,97991
101024,97984
101101,98042
101147,98028
101114,98079
101076,97993
101082,98008
101182,98088
101180,98074
101166,98059
101108,98045
101100,98043
101187,98066
101224,98052
101193,98086
101163,98054
101103,98011
101243,98106
101226,98115
101237,98076
101225,98058
101211,98045
101255,98104
101300,98101
101266,98085
101267,98064
101266,98074
101346,98118
101370,98155
101332,98106
101328,98113
101339,98093
101402,98143
101411,98160
101437,98143
101390,98134
101403,98117
101467,98149
101499,98207
101485,98200
101443,98152
101450,98108
101534,98192
101548,98219
101512,98187
101424,98153
101368,98078
101367,98129
101269,98103
101148,98011
101028,97933
100915,97917
100913,97913
100880,97912
100742,97831
100654,97772
100615,97760
100591,97757
100563,97775
100514,97737
100424,97682
100356,97672
100410,97730
100370,97667
100360,97692
100248,97633
100244,97596
100257,97638
100313,97672
100270,97650
100198,97624
100199,97570
100276,97653
100253,97638
100229,97602
100217,97587
100201,97620
100292,97641
100262,97656
100258,97625
100215,97612
100261,97617
100307,97669
100326,97691
100327,97675
100278,97615
100309,97625
100391,97703
100371,97677
100352,97670
100346,97643
100348,97658
100426,97719
100422,97714
100393,97677
100359,97664
100393,97688
100427,97712
100446,97723
100388,97688
100367,97644
100398,97665
100407,97727
100454,97732
100398,97700
100378,97650
100432,97716
100465,97716
100465,97728
100468,97702
100386,97678
100435,97692
100503,97735
100505,97739
100477,97717
100464,97691
100489,97741
100530,97767
100533,97731
100511,97757
100453,97716
100504,97707
100565,97758
100542,97777
100525,97715
100480,97695
100494,97756
100519,97719
100552,97761
100503,97737
100472,97719
100534,97726
100543,97788
100515,97761
100528,97737
100455,97687
100512,97701
100515,97730
100526,97733
100482,97733
100415,97660
100483,97719
100501,97696
100500,97719
100489,97692
100421,97681
100470,97697
100500,97697
100516,97736
100453,97677
100418,97669
100530,97692
100527,97752
100510,97744
100515,97714
100469,97671
100513,97713
100551,97744
100530,97713
100516,97706
100481,97680
100523,97735
100593,97785
100515,97724
100541,97745
100477,97683
100558,97754
100575,97754
100581,97728
100550,97758
100508,97679
100611,97749
100611,97817
100603,97734
100623,97758
100515,97685
100616,97747
100671,97791
100620,97781
100642,97746
100571,97698
100657,97774
100685,97783
100657,97783
100702,97762
100652,97753
100717,97792
100771,97827
100741,97831
100703,97794
100696,97740
100770,97812
100794,97847
100791,97841
100778,97851
100698,97763
100847,97841
100838,97853
100775,97836
100817,97820
100759,97786
100819,97828
100877,97881
100815,97850
100846,97842
100793,97813
100876,97839
100903,97872
100863,97852
100906,97873
100842,97812
100913,97882
100939,97894
100898,97894
100902,97861
100879,97831
100958,97880
100967,97905
100908,97861
100952,97861
100916,97827
100932,97906
100988,97928
100956,97888
100967,97890
100936,97850
100947,97893
100952,97918
100966,97915
100951,97898
100898,97814
101021,97925
101024,97929
100989,97892
100962,97891
100885,97834
101031,97926
101056,97943
100977,97919
100955,97868
100930,97867
100992,97893
101013,97903
101015,97927
100999,97896
100962,97857
101027,97936
101050,97895
101064,97922
101010,97886
100999,97877
101081,97928
101110,97935
101042,97900
101001,97909
101005,97890
101105,97919
101120,97965
101082,97896
101034,97922
101064,97900
101121,97938
101130,97957
101144,97951
101092,97906
101081,97896
101167,97963
101155,97994
101167,97947
101142,97929
101101,97910
101181,97974
101223,97971
101191,98008
101184,97948
101164,97946
101235,97979
101279,98004
101253,98020
101276,97962
101230,97977
101314,98030
101358,98056
101334,97989
101334,98001
101361,97971
101403,98075
101401,98078
101379,98085
101348,98021
101371,98010
101391,98041
101382,98055
101304,98041
101181,97962
101158,97883
101077,97920
100989,97873
100912,97824
100795,97739
100749,97732
100725,97772
100640,97728
100580,97650
100458,97626
100403,97582
100406,97575
100369,97601
100283,97549
100216,97546
100154,97445
100163,97531
100156,97510
100076,97491
100020,97464
99986,97393
100023,97472
100008,97451
99979,97454
99929,97412
99882,97414
99949,97394
99968,97467
99897,97421
99843,97360
99872,97365
99895,97428
99891,97397
99894,97400
99828,97368
99852,97358
99914,97416
99919,97437
99894,97379
99862,97367
99877,97376
99915,97415
99950,97419
99913,97437
99882,97371
99895,97390
99942,97450
99930,97405
99959,97447
99903,97381
99887,97376
99978,97409
99974,97436
99924,97391
99874,97344
99933,97407
99960,97421
99985,97439
99957,97395
99946,97342
99909,97371
99986,97438
100013,97479
100013,97409
99970,97378
100015,97414
100048,97482
100046,97460
100054,97476
99983,97401
100053,97434
100056,97487
100109,97447
100015,97435
100020,97376
100047,97466
100107,97473
100101,97450
100084,97439
100009,97427
100042,97429
100090,97481
100073,97452
100035,97459
99974,97425
100020,97400
100109,97481
100023,97494
99996,97453
99931,97391
100041,97430
100017,97430
100084,97458
99976,97421
99934,97374
99986,97424
100038,97458
100025,97459
99992,97388
99900,97373
99988,97375
100006,97447
100030,97456
100002,97455
99901,97372
100004,97397
100022,97447
100020,97434
100002,97422
99962,97355
100009,97457
100078,97458
100077,97461
100029,97439
100031,97367
100022,97453
100100,97459
100140,97495
100082,97453
100062,97405
100139,97436
100169,97529
100123,97485
100159,97490
100070,97436
100175,97511
100202,97512
100211,97509
100183,97476
100176,97431
100212,97505
100258,97538
100293,97547
100263,97563
100202,97453
100328,97545
100332,97585
100361,97563
100356,97566
100281,97511
100379,97587
100414,97617
100445,97586
100410,97590
100369,97526
100462,97624
100529,97633
100527,97651
100465,97624
100439,97575
100515,97615
100559,97669
100560,97696
100546,97621
100525,97602
100546,97662
100620,97694
100576,97690
100619,97649
100571,97654
100641,97699
100679,97728
100699,97715
100702,97713
100645,97674
100759,97719
100787,97756
100810,97734
100765,97764
100720,97703
100816,97754
100833,97774
100827,97749
100838,97788
100796,97697
100879,97818
100917,97815
100887,97801
100879,97796
100844,97740
100940,97843
100971,97834
100993,97849
100955,97786
100932,97774
101031,97819
101053,97898
101021,97837
101058,97849
101026,97819
101066,97877
101156,97929
101161,97914
101097,97909
101102,97812
101206,97936
101215,97936
101210,97940
101180,97884
101218,97890
101238,97952
101332,97999
101275,97987
101254,97964
101281,97913
101381,98013
101423,97994
101411,98023
101418,97993
101417,98002
101530,98070
101558,98067
101579,98039
101541,98046
101554,98039
101632,98080
101697,98146
101654,98091
101675,98115
101657,98081
101788,98180
101824,98180
101780,98153
101809,98129
101807,98154
101909,98200
101947,98241
101932,98192
101939,98221
101945,98224
102065,98234
102072,98299
102081,98273
102075,98247
102112,98246
102145,98340
102194,98317
102215,98350
102182,98287
102201,98308
102302,98349
102338,98385
102289,98370
102286,98347
102326,98362
102405,98394
102480,98450
102461,98445
102455,98383
102493,98420
102584,98469
102609,98511
102619,98516
102597,98449
102657,98465
102710,98544
102792,98583
102744,98576
102744,98495
102783,98527
102836,98567
102888,98622
102837,98579
102803,98537
102749,98517
102732,98514
102701,98518
102489,98432
102247,98306
102042,98206
101941,98205
101745,98150
101533,98013
101344,97954
101197,97872
101119,97852
101044,97806
100902,97789
100779,97648
100749,97672
100749,97727
100700,97693
100652,97605
100532,97597
100469,97564
100550,97609
100544,97644
100505,97600
100446,97568
100429,97569
100499,97572
100508,97630
100457,97581
100440,97597
100476,97556
100554,97651
100572,97626
100586,97657
100550,97623
100578,97614
100699,97703
100732,97727
100770,97666
100716,97677
100789,97686
100856,97788
100920,97782
100966,97770
100912,97769
100980,97765
101058,97855
101119,97868
101160,97854
101122,97819
101191,97862
101244,97916
101309,97926
101269,97912
101307,97884
101302,97952
101371,97941
101412,98003
101356,97959
101361,97933
101407,97947
101445,98021
101477,97996
101486,98036
101452,97975
101510,98019
101568,98069
101591,98083
101595,98049
101580,98032
101657,98064
101714,98125
101753,98154
101757,98098
101703,98086
101766,98125
101807,98175
101809,98167
101806,98153
101800,98112
101809,98134
101858,98154
101867,98176
101838,98144
101756,98101
101820,98147
101851,98176
101885,98156
101839,98143
101751,98093
101814,98145
101851,98155
101837,98190
101811,98155
101754,98105
101819,98130
101822,98191
101832,98142
101806,98175
101769,98117
101820,98141
101886,98175
101849,98173
101852,98198
101790,98106
101858,98153
101899,98234
101909,98188
101927,98199
101899,98149
101921,98236
101982,98239
101989,98255
102017,98204
101963,98185
102005,98204
102078,98298
102113,98250
102081,98278
102068,98204
102196,98306
102245,98333
102261,98326
102260,98336
102262,98285
102348,98333
102418,98409
102398,98398
102440,98388
102375,98317
102510,98385
102586,98476
102531,98467
102560,98433
102508,98413
102630,98458
102715,98510
102718,98544
102694,98479
102635,98466
102735,98507
102823,98550
102793,98502
102816,98570
102745,98504
102891,98555
102910,98630
102917,98576
102867,98596
102869,98533
102927,98606
103012,98620
103012,98652
102975,98642
102934,98579
103028,98600
103104,98683
103052,98686
103066,98642
102991,98612
103129,98676
103150,98683
103158,98683
103133,98686
103129,98631
103210,98689
103239,98727
103212,98715
103228,98732
103158,98677
103267,98720
103291,98778
103268,98769
103280,98694
103219,98684
103332,98787
103371,98781
103318,98721
103326,98760
103273,98698
103382,98795
103362,98795
103401,98772
103399,98767
103346,98723
103393,98801
103458,98807
103440,98840
103418,98761
103421,98747
103500,98845
103485,98841
103501,98793
103443,98848
103414,98754
103506,98846
103555,98869
103536,98815
103508,98835
103503,98817
103563,98845
103586,98895
103571,98875
103548,98873
103494,98814
103622,98899
103624,98876
103637,98914
103596,98895
103543,98823
103654,98917
103662,98911
103668,98920
103632,98885
103614,98878
103671,98899
103732,98965
103667,98931
103673,98879
103620,98880
103714,98893
103742,98983
103711,98883
103694,98931
103654,98882
103751,98949
103770,98978
103751,98954
103710,98914
103720,98903
103800,98953
103787,98966
103789,98953
103754,98941
103735,98937
103870,98970
103838,99032
103841,98970
103803,98958
103794,98903
103859,99016
103907,98995
103863,99023
103864,98962
103853,98935
103911,99012
103967,99012
103904,99029
103894,98968
103917,98986
103963,99032
103991,99066
103943,99067
103856,98961
103800,98944
103828,98952
103732,98942
103524,98857
103295,98715
103122,98601
102906,98578
102702,98499
102481,98396
102210,98279
102057,98173
101978,98230
101875,98161
101693,98099
101587,98003
101495,97991
101490,97957
101441,98012
101337,97932
101265,97894
101263,97863
101269,97918
101246,97920
101257,97880
101153,97871
101183,97825
101246,97936
101237,97901
101252,97885
101213,97881
101267,97895
101314,97930
101386,97967
101388,97985
101343,97940
101438,97944
101529,98028
101582,98071
101587,98065
101573,98020
101673,98053
101707,98109
101790,98128
101816,98132
101760,98114
101873,98158
101938,98180
102005,98227
102009,98193
101995,98141
102031,98191
102108,98274
102143,98301
102168,98228
102130,98234
102165,98266
102250,98268
102292,98329
102236,98322
102233,98259
102270,98304
102292,98316
102344,98340
102289,98306
102327,98301
102330,98353
102444,98406
102407,98401
102453,98368
102428,98348
102479,98368
102511,98432
102524,98435
102500,98432
102430,98387
102520,98378
102527,98460
102501,98419
102512,98419
102419,98367
102438,98357
102493,98451
102458,98405
102464,98385
102387,98349
102409,98360
102410,98392
102417,98374
102363,98393
102293,98278
102365,98381
102378,98357
102340,98361
102302,98323
102251,98292
102249,98334
102265,98348
102293,98334
102224,98298
102188,98251
102211,98262
102214,98349
102220,98312
102175,98292
102127,98262
102154,98247
102210,98325
102167,98311
102186,98307
102121,98245
102205,98290
102243,98331
102248,98310
102185,98315
102175,98250
102220,98321
102239,98359
102254,98318
102275,98352
102199,98262
102243,98341
102319,98382
102282,98381
102296,98335
102262,98274
102279,98374
102331,98371
102308,98368
102307,98361
102247,98329
102327,98330
102361,98425
102341,98364
102372,98353
102318,98323
102361,98385
102477,98424
102402,98421
102404,98375
102366,98333
102426,98391
102474,98411
102493,98423
102461,98375
102435,98380
102516,98397
102537,98453
102516,98438
102506,98455
102448,98371
102547,98416
102598,98497
102553,98438
102534,98434
102481,98382
102613,98465
102610,98489
102564,98433
102599,98477
102523,98413
102657,98441
102665,98514
102656,98472
102657,98475
102611,98418
102636,98471
102712,98510
102711,98503
102689,98455
102626,98444
102733,98506
102721,98510
102679,98490
102711,98481
102633,98447
102748,98516
102799,98566
102699,98486
102748,98480
102667,98476
102742,98506
102757,98538
102701,98507
102744,98514
102654,98442
102801,98507
102832,98543
102784,98525
102784,98476
102792,98503
102822,98539
102919,98577
102877,98536
102844,98550
102847,98505
102901,98568
102968,98567
102942,98580
102917,98573
102860,98528
102967,98591
102946,98617
102975,98545
102939,98587
102915,98532
102999,98640
103043,98639
102970,98598
102975,98615
102959,98542
103058,98637
103093,98678
103081,98627
103091,98661
103050,98586
103193,98666
103173,98676
103222,98663
103189,98677
103151,98621
103284,98720
103310,98733
103285,98666
103261,98686
103243,98652
103376,98736
103394,98774
103438,98743
103383,98724
103397,98717
103488,98767
103594,98821
103521,98815
103526,98791
103536,98764
103610,98845
103656,98855
103624,98838
103617,98807
103583,98779
103607,98840
103538,98795
103381,98723
103197,98618
102968,98497
102834,98490
102610,98425
102421,98331
102225,98209
101975,98128
101917,98102
101805,98086
101630,98012
101530,97916
101378,97875
101388,97893
101312,97862
101224,97821
101163,97785
101088,97747
101132,97776
101065,97776
101056,97744
100959,97725
100966,97687
100984,97742
100983,97721
100974,97736
100934,97656
100931,97660
101033,97755
101029,97766
101029,97730
100948,97736
100971,97702
101089,97782
101122,97794
101093,97819
101075,97735
101147,97773
101187,97834
101223,97868
101234,97869
101218,97791
101280,97819
101304,97874
101385,97903
101350,97867
101323,97873
101321,97863
101449,97920
101444,97927
101457,97881
101382,97886
101402,97858
101496,97953
101481,97950
101496,97928
101412,97891
101483,97907
101492,97938
101520,97942
101546,97935
101505,97911
101499,97889
101596,97991
101630,97962
101589,97959
101613,97927
101591,97985
101702,98015
101728,98033
101669,98050
101649,97938
101717,97993
101726,98007
101748,98024
101686,98014
101680,97978
101656,98008
101750,98050
101737,98020
101703,98001
101623,97974
101638,97963
101725,98044
101676,98016
101659,97957
101613,97940
101617,97967
101655,98025
101645,98015
101617,97989
101513,97918
101600,97952
101625,97986
101611,97961
101579,97952
101535,97926
101572,97908
101609,98007
101625,97956
101573,97955
101525,97892
101613,97939
101623,97942
101621,97984
101615,97991
101567,97920
101648,97950
101692,98036
101722,97993
101718,98016
101637,97962
101733,98015
101803,98064
101793,98057
101835,98045
101780,98013
101858,98051
101928,98097
101932,98123
101948,98103
101895,98031
102026,98113
102047,98152
102089,98132
102087,98142
102040,98124
102157,98123
102187,98222
102193,98200
102206,98213
102236,98132
102264,98159
102343,98288
102297,98220
102346,98246
102302,98178
102366,98229
102436,98274
102464,98299
102428,98240
102421,98254
102494,98290
102545,98327
102568,98346
102540,98288
102550,98270
102616,98319
102654,98387
102707,98392
102646,98399
102623,98306
102721,98389
102769,98423
102746,98411
102781,98423
102729,98369
102807,98396
102858,98473
102831,98420
102818,98426
102770,98404
102828,98408
102934,98477
102852,98482
102882,98436
102819,98392
102892,98441
102945,98500
102895,98492
102925,98435
102851,98425
102953,98460
102961,98479
102954,98458
102933,98508
102871,98412
103016,98457
103008,98524
103022,98522
102995,98493
102956,98427
103027,98471
103087,98513
103040,98514
103032,98535
102952,98448
103111,98536
103104,98554
103117,98516
103123,98550
103093,98460
103138,98581
103206,98548
103199,98579
103203,98550
103131,98517
103228,98617
103251,98591
103265,98606
103215,98569
103182,98522
103297,98610
103314,98647
103341,98585
103272,98605
103230,98569
103351,98606
103379,98638
103355,98622
103365,98594
103307,98615
103369,98623
103451,98676
103385,98642
103406,98646
103366,98623
103443,98650
103477,98709
103468,98669
103420,98670
103417,98614
103525,98722
103547,98695
103534,98716
103505,98698
103489,98660
103630,98710
103607,98743
103627,98736
103625,98701
103597,98683
103625,98725
103709,98807
103638,98743
103686,98765
103613,98735
103745,98763
103767,98776
103711,98765
103720,98769
103688,98757
103783,98767
103781,98803
103701,98751
103704,98739
103580,98708
103563,98667
103489,98677
103252,98545
103055,98455
102750,98316
102647,98285
102412,98228
102196,98083
101988,98032
101815,97928
101792,97946
101660,97914
101542,97871
101380,97739
101292,97717
101309,97776
101242,97760
101179,97670
101114,97669
101037,97625
101070,97655
101068,97679
101059,97670
100982,97559
100994,97594
101032,97631
101029,97654
101042,97642
101017,97600
101056,97619
101086,97649
101151,97716
101133,97681
101142,97656
101173,97667
101251,97695
101328,97762
101283,97781
101304,97737
101342,97729
101467,97820
101468,97860
101462,97793
101483,97818
101494,97811
101602,97856
101627,97928
101615,97828
101647,97878
101614,97850
101712,97876
101775,97926
101730,97942
101688,97845
101736,97908
101802,97931
101747,97955
101795,97962
101742,97906
101781,97895
101828,97996
101876,97963
101879,97965
101830,97934
101885,97971
101986,98030
102008,98051
102012,98012
102010,97990
102050,98037
102118,98056
102145,98068
102093,98061
102085,98046
102112,98049
102187,98086
102152,98106
102135,98042
102077,98069
102095,98022
102113,98064
102142,98069
102093,98072
102066,98009
102083,98007
102088,98084
102100,98061
102085,98026
102035,97983
102061,98052
102089,98044
102060,98049
102053,98023
102011,98021
102000,97992
102083,98081
102029,98035
102024,98045
101969,97983
102024,97989
102084,98023
102090,98054
102056,98004
102012,97994
102065,98022
102121,98075
102148,98073
102084,98053
102068,97977
102135,98068
102160,98057
102227,98082
102178,98111
102135,98020
102272,98074
102302,98130
102310,98148
102274,98131
102263,98072
102402,98151
102397,98152
102426,98167
102420,98178
102395,98137
102508,98174
102532,98212
102557,98204
102530,98186
102521,98163
102543,98196
102655,98254
102664,98237
102604,98258
102581,98226
102660,98227
102760,98297
102732,98326
102741,98265
102699,98273
102764,98296
102856,98352
102842,98350
102819,98301
102813,98261
102881,98362
102932,98346
102923,98355
102923,98377
102852,98305
102966,98328
102991,98425
102975,98380
102973,98380
103005,98308
103013,98417
103094,98409
103094,98428
103076,98397
103040,98382
103128,98435
103128,98463
103145,98434
103114,98412
103091,98363
103148,98432
103183,98501
103166,98420
103190,98481
103088,98385
103181,98474
103260,98492
103183,98472
103201,98458
103147,98400
103205,98475
103287,98518
103217,98463
103214,98449
103144,98401
103255,98473
103283,98495
103261,98499
103255,98475
103181,98410
103284,98517
103327,98518
103278,98495
103278,98480
103223,98441
103315,98495
103350,98533
103340,98509
103323,98502
103238,98471
103362,98526
103374,98562
103361,98525
103329,98507
103270,98448
103375,98518
103395,98511
103351,98518
103367,98503
103315,98506
103394,98518
103439,98588
103371,98541
103413,98535
103382,98497
103440,98559
103430,98589
103484,98557
103417,98526
103441,98529
103495,98611
103481,98578
103468,98557
103457,98551
103406,98507
103500,98585
103519,98556
103527,98598
103474,98530
103456,98516
103515,98569
103583,98626
103508,98617
103571,98570
103520,98552
103574,98584
103630,98641
103602,98600
103575,98626
103530,98565
103631,98605
103627,98675
103583,98574
103554,98609
103459,98554
103500,98540
103416,98544
103219,98431
102935,98337
102710,98198
102575,98177
102395,98082
102192,98038
101985,97942
101778,97830
101731,97800
101653,97800
101444,97751
101359,97665
101224,97628
101278,97631
101208,97636
101151,97579
101029,97526
101000,97526
101033,97542
101028,97568
100936,97512
100922,97499
100856,97480
100944,97499
100933,97526
100936,97503
100876,97457
100937,97459
100957,97543
101008,97546
101015,97554
100966,97498
101022,97528
101103,97564
101127,97625
101112,97593
101130,97559
101122,97565
101221,97626
101259,97650
101248,97631
101234,97646
101244,97630
101349,97693
101334,97689
101379,97677
101300,97668
101326,97642
101379,97732
101423,97741
101400,97698
101360,97691
101367,97634
101441,97728
101437,97738
101420,97690
101364,97700
101345,97660
101446,97730
101452,97736
101453,97715
101375,97669
101428,97728
101506,97721
101559,97787
101503,97723
101512,97697
101506,97716
101593,97758
101560,97796
101567,97799
101507,97692
101494,97696
101595,97819
101579,97797
101531,97730
101518,97716
101475,97718
101551,97737
101552,97761
101443,97733
101417,97688
101435,97708
101483,97704
101475,97752
101394,97722
101406,97665
101365,97694
101418,97668
101388,97711
101333,97666
101302,97646
101293,97641
101350,97686
101356,97668
101351,97664
101265,97613
101297,97640
101329,97654
101383,97695
101305,97655
101275,97607
101287,97636
101346,97670
101357,97698
101309,97636
101340,97634
101334,97662
101386,97731
101356,97694
101353,97675
101337,97605
101413,97686
101444,97696
101491,97717
101426,97698
101404,97679
101488,97662
101497,97749
101539,97715
101496,97741
101454,97675
101509,97716
101560,97776
101539,97744
101550,97763
101500,97700
101564,97747
101604,97795
101575,97762
101586,97767
101507,97681
101572,97741
101638,97784
101577,97785
101601,97739
101505,97747
101580,97745
101618,97753
101602,97778
101565,97763
101517,97702
101531,97735
101608,97794
101597,97768
101546,97735
101531,97705
101550,97752
101591,97757
101608,97795
101534,97760
101480,97701
101560,97734
101567,97760
101597,97770
101539,97755
101438,97716
101554,97746
101603,97784
101537,97780
101518,97722
101435,97683
101531,97724
101545,97759
101554,97766
101495,97701
101440,97662
101512,97704
101566,97761
101515,97737
101542,97768
101473,97687
101561,97720
101598,97778
101594,97729
101575,97753
101541,97724
101597,97741
101648,97812
101624,97753
101600,97785
101556,97724
101607,97769
101696,97850
101614,97775
101617,97761
101604,97743
101657,97786
101732,97841
101650,97798
101669,97783
101638,97735
101688,97813
101767,97804
101703,97802
101689,97811
101656,97731
101812,97812
101817,97818
101835,97832
101807,97844
101740,97785
101896,97831
101927,97895
101873,97876
101880,97865
101830,97797
101945,97889
101960,97889
101929,97877
101939,97879
101893,97867
101956,97898
101988,97914
101995,97927
101968,97873
101938,97865
102000,97897
102035,97934
102045,97903
101995,97939
101990,97856
102040,97941
102125,97973
102077,97937
102070,97929
102002,97883
102098,97956
102173,97979
102163,97974
102170,97969
102080,97925
102235,97971
102266,98021
102215,97979
102220,98002
102153,97931
102272,98004
102263,98056
102220,97986
102161,97956
102090,97927
102103,97934
101974,97887
101812,97823
101611,97747
101406,97607
101362,97585
101275,97616
100993,97484
100886,97398
100741,97348
100700,97325
100591,97297
100495,97221
100349,97217
100255,97101
100284,97167
100227,97145
100091,97088
99991,97056
99874,96967
99938,97013
99907,97004
99806,96968
99703,96948
99639,96853
99691,96956
99662,96894
99571,96887
99563,96863
99483,96819
99532,96850
99562,96853
99497,96857
99429,96792
99418,96769
99486,96845
99424,96833
99418,96785
99377,96819
99358,96725
99419,96804
99427,96817
99408,96822
99390,96743
99358,96785
99416,96821
99421,96826
99341,96782
99330,96726
99362,96777
99430,96766
99423,96831
99375,96779
99365,96769
99319,96753
99403,96763
99406,96824
99374,96788
99306,96754
99322,96741
99363,96754
99401,96818
99341,96783
99295,96709
99309,96727
99379,96753
99394,96801
99369,96796
99324,96730
99314,96729
99381,96778
99418,96825
99356,96734
99330,96748
99335,96716
99394,96756
99402,96788
99335,96801
99310,96703
99369,96742
99363,96787
99387,96783
99313,96755
99294,96711
99297,96725
99318,96735
99369,96772
99295,96715
99231,96693
99240,96680
99279,96757
99295,96722
99253,96720
99184,96646
99244,96654
99222,96720
99244,96717
99240,96717
99170,96623
99215,96642
99251,96684
99290,96708
99201,96725
99188,96639
99216,96653
99246,96673
99271,96716
99208,96708
99221,96638
99242,96695
99281,96689
99317,96745
99251,96686
99286,96678
99272,96727
99346,96736
99334,96755
99356,96724
99290,96680
99361,96737
99397,96744
99430,96794
99395,96758
99395,96712
99396,96759
99463,96784
99460,96762
99472,96793
99413,96721
99467,96748
99533,96830
99512,96822
99513,96800
99483,96766
99512,96796
99602,96851
99570,96841
99583,96809
99529,96769
99604,96827
99663,96856
99666,96878
99636,96853
99579,96825
99639,96841
99727,96893
99711,96862
99677,96906
99645,96848
99709,96893
99759,96941
99734,96892
99749,96880
99689,96852
99695,96870
99798,96922
99763,96938
99732,96922
99675,96869
99755,96856
99769,96956
99790,96919
99777,96892
99706,96878
99784,96895
99802,96980
99792,96927
99798,96935
99765,96880
99853,96956
99886,96955
99859,96976
99854,96902
99792,96882
99856,96945
99899,96972
99894,96988
99855,96929
99809,96908
99918,96963
99910,96984
99912,96957
99934,96993
99889,96927
99922,96959
99982,97033
99945,96979
99970,96997
99905,96927
99968,96993
100042,97046
99989,97026
100025,96980
99957,96961
100063,97008
100127,97080
100035,97046
100086,97022
100038,96973
100129,97044
100161,97110
100157,97058
100155,97098
100117,97028
100178,97082
100255,97118
100209,97128
100217,97093
100187,97055
100225,97116
100316,97177
100261,97157
100287,97124
100220,97102
100349,97142
100351,97206
100345,97140
100339,97177
100283,97096
100387,97147
100434,97235
100372,97181
100412,97189
100347,97126
100434,97180
100438,97234
100404,97191
100436,97194
100393,97148
100462,97211
100500,97241
100440,97238
100468,97176
100435,97156
100477,97233
100537,97291
100531,97230
100505,97201
100481,97200
100590,97260
100608,97274
100624,97267
100612,97248
100573,97249
100695,97284
100702,97341
100660,97281
100671,97295
100660,97259
100706,97324
100767,97349
100741,97331
100737,97313
100654,97282
100740,97312
100696,97315
100631,97283
100532,97250
100383,97130
100371,97135
100278,97115
100049,97035
99902,96964
99733,96841
99760,96865
99618,96861
99464,96804
99369,96721
99258,96677
99276,96658
99230,96695
99100,96609
99011,96562
98930,96507
98937,96551
98883,96520
98749,96453
98736,96451
98625,96420
98658,96394
98619,96418
98557,96407
98511,96337
98439,96340
98483,96379
98512,96385
98443,96345
98405,96332
98316,96282
98425,96324
98411,96363
98369,96325
98322,96282
98341,96256
98367,96366
98402,96317
98358,96338
98368,96278
98333,96285
98429,96310
98395,96372
98345,96301
98337,96312
98360,96286
98414,96359
98432,96363
98436,96338
98384,96311
98364,96299
98472,96340
98429,96378
98413,96318
98385,96346
98390,96268
98455,96335
98453,96348
98408,96349
98423,96299
98382,96329
98443,96339
98475,96372
98434,96339
98412,96297
98423,96330
98510,96378
98504,96370
98473,96350
98475,96337
98449,96336
98577,96416
98567,96387
98535,96378
98512,96343
98492,96349
98564,96422
98544,96405
98578,96381
98472,96372
98483,96351
98559,96409
98582,96387
98554,96403
98486,96327
98529,96368
98557,96422
98561,96411
98526,96357
98446,96332
98484,96365
98490,96376
98532,96379
98504,96361
98435,96367
98438,96351
98525,96389
98516,96421
98484,96354
98436,96338
98476,96336
98477,96424
98513,96389
98507,96403
98454,96332
98510,96360
98542,96403
98559,96441
98498,96408
98518,96353
98566,96407
98565,96453
98610,96420
98577,96447
98547,96366
98583,96431
98620,96441
98617,96425
98592,96431
98624,96400
98615,96460
98679,96452
98695,96487
98661,96494
98659,96421
98676,96488
98743,96503
98780,96499
98740,96497
98674,96482
98734,96491
98803,96563
98786,96533
98800,96521
98767,96471
98847,96549
98886,96598
98872,96571
98869,96554
98806,96522
98917,96557
98915,96602
98954,96614
98959,96590
98832,96562
98930,96576
98988,96646
98982,96648
98932,96615
98912,96557
99024,96613
99040,96660
99053,96665
99019,96648
99014,96602
99063,96661
99094,96627
99157,96685
99084,96672
99068,96631
99128,96676
99213,96726
99161,96726
99200,96698
99152,96641
99230,96697
99283,96770
99279,96794
99305,96715
99279,96715
99374,96733
99401,96815
99388,96788
99434,96800
99348,96763
99474,96796
99530,96841
99496,96859
99460,96818
99486,96780
99534,96873
99603,96872
99580,96900
99599,96900
99524,96820
99642,96868
99693,96958
99687,96886
99684,96909
99650,96889
99765,96957
99857,96970
99806,96959
99852,96973
99798,96934
99897,97007
99993,97057
99938,97023
99993,97021
99980,97006
100049,97071
100096,97117
100046,97047
100120,97102
100048,97013
100171,97124
100208,97109
100220,97130
100170,97135
100168,97063
100288,97184
100292,97155
100349,97195
100260,97202
100237,97125
100339,97172
100397,97180
100397,97214
100334,97187
100340,97188
100383,97240
100450,97234
100441,97246
100415,97213
100360,97187
100477,97209
100480,97277
100457,97199
100475,97244
100403,97166
100501,97247
100550,97285
100475,97246
100531,97234
100473,97211
100599,97240
100607,97314
100622,97246
100595,97263
100592,97252
100678,97313
100732,97366
100702,97326
100734,97337
100694,97249
100798,97358
100800,97363
100819,97367
100791,97342
100758,97311
100816,97333
100903,97402
100837,97386
100804,97363
100785,97340
100913,97394
100899,97409
100852,97351
100871,97391
100843,97334
100906,97396
100965,97422
100920,97379
100863,97397
100873,97339
100899,97379
100934,97455
100872,97393
100891,97379
100799,97321
100913,97424
100845,97350
100776,97318
100643,97241
100511,97204
100410,97164
100330,97123
100115,97035
99895,96969
99754,96890
99689,96824
99565,96846
99401,96764
99283,96701
99165,96639
99158,96633
99085,96648
98942,96570
98879,96539
98760,96450
98766,96486
98698,96472
98611,96409
98508,96402
98435,96297
98491,96364
98455,96369
98341,96329
98245,96240
98256,96244
98234,96295
98215,96282
98153,96230
98081,96164
98076,96148
98122,96244
98109,96225
98060,96201
98003,96151
98003,96135
98036,96212
98073,96227
98047,96191
97962,96144
97969,96153
98036,96207
98024,96228
98017,96195
97939,96154
97965,96147
98036,96203
98075,96223
97993,96202
97971,96158
97952,96156
98047,96223
98044,96212
97991,96193
97964,96161
97972,96176
98000,96198
98005,96189
98015,96188
97917,96153
97933,96176
98046,96178
98022,96192
97989,96208
97989,96196
98008,96185
98116,96243
98107,96232
98116,96256
98066,96216
98083,96256
98194,96254
98172,96282
98169,96255
98141,96259
98175,96245
98206,96318
98216,96300
98210,96282
98148,96228
98190,96248
98212,96273
98216,96302
98196,96275
98127,96212
98176,96281
98175,96332
98188,96287
98186,96297
98096,96216
98130,96222
98164,96307
98184,96287
98144,96268
98090,96224
98107,96242
98174,96317
98169,96287
98110,96260
98108,96243
98102,96240
98168,96303
98175,96306
98141,96321
98127,96226
98144,96275
98225,96349
98233,96313
98193,96309
98159,96285
98231,96309
98295,96371
98347,96383
98261,96347
98256,96358
98294,96360
98393,96404
98428,96429
98379,96399
98371,96365
98461,96380
98507,96487
98531,96467
98540,96475
98487,96419
98585,96469
98631,96525
98624,96538
98665,96485
98599,96474
98704,96531
98771,96553
98774,96581
98761,96570
98721,96510
98796,96540
98854,96625
98853,96613
98866,96586
98824,96611
98889,96600
98941,96638
98959,96656
98958,96686
98930,96618
99008,96694
99032,96721
99032,96736
99068,96671
98983,96677
99083,96702
99114,96755
99142,96726
99134,96721
99109,96716
99224,96759
99219,96793
99243,96821
99200,96785
99162,96766
99248,96805
99308,96824
99271,96833
99221,96784
99231,96777
99289,96801
99283,96863
99293,96829
99297,96815
99239,96778
99284,96844
99321,96852
99323,96856
99302,96852
99248,96794
99374,96863
99410,96879
99409,96894
99383,96870
99399,96839
99448,96925
99535,96934
99554,96965
99549,96921
99541,96909
99622,96989
99693,96980
99677,97023
99659,96974
99635,96965
99767,97034
99796,97078
99786,97022
99854,97065
99776,97002
99883,97108
99953,97081
99929,97091
100003,97117
99961,97088
100114,97160
100178,97177
100216,97192
100208,97223
100256,97174
100387,97284
100453,97300
100441,97320
100489,97289
100512,97321
100574,97397
100688,97412
100637,97409
100671,97380
100649,97370
100798,97422
100791,97496
100809,97459
100807,97447
100808,97438
100903,97518
100914,97536
100935,97497
100941,97541
100919,97472
101009,97563
101108,97584
101066,97584
101046,97525
101071,97559
101166,97618
101192,97640
101191,97626
101169,97636
101157,97589
101270,97664
101317,97703
101283,97687
101296,97667
101247,97638
101358,97715
101401,97716
101377,97728
101346,97699
101331,97695
101469,97737
101508,97797
101479,97766
101434,97727
101467,97722
101543,97773
101566,97818
101535,97812
101565,97792
101570,97759
101678,97839
101725,97865
101677,97853
101677,97830
101714,97832
101804,97880
101824,97925
101837,97905
101784,97882
101791,97869
101914,97932
101894,97931
101890,97928
101890,97916
101888,97886
101948,97968
101999,97976
101928,97951
101924,97912
101939,97898
102020,98019
102038,97985
101990,97986
101972,97965
101971,97930
102072,98021
102055,98007
102047,97994
101986,97962
101902,97912
101916,97934
101750,97853
101588,97783
101338,97658
101127,97590
100929,97525
100691,97524
100461,97325
100231,97249
100054,97149
99956,97130
99845,97120
99671,97023
99521,96924
99459,96897
99409,96954
99351,96867
99263,96863
99146,96774
99150,96780
99094,96835
99101,96807
98983,96751
98957,96727
98902,96706
98996,96734
98931,96749
98940,96740
98915,96679
98895,96695
98926,96684
98939,96746
98937,96729
98874,96686
98917,96703
98963,96753
99009,96781
98991,96741
98963,96756
99011,96726
99134,96835
99150,96850
99136,96809
99117,96774
99207,96808
99230,96897
99285,96910
99278,96863
99266,96862
99311,96849
99378,96924
99390,96901
99374,96934
99382,96865
99415,96939
99467,96924
99484,96962
99504,96960
99446,96937
99507,96927
99580,97024
99617,97006
99587,96996
99600,96985
99626,97025
99740,97082
99775,97069
99759,97070
99815,97039
99877,97121
99924,97121
99982,97151
99979,97164
99954,97128
100024,97131
100095,97235
100109,97199
100109,97186
100008,97147
100113,97207
100147,97199
100138,97226
100106,97207
100069,97174
100181,97210
100150,97261
100190,97233
100167,97266
100082,97143
100125,97235
100190,97236
100173,97221
100126,97199
100090,97202
100098,97202
100139,97240
100121,97234
100068,97202
100033,97201
100083,97184
100140,97259
100124,97200
100123,97209
100072,97187
100148,97227
100172,97217
100148,97261
100164,97248
100128,97203
100227,97283
100291,97325
100258,97277
100294,97278
100294,97279
100335,97310
100395,97345
100432,97317
100417,97370
100447,97311
100507,97346
100545,97410
100576,97415
100572,97408
100621,97380
100667,97474
100724,97476
100706,97467
100771,97460
100732,97439
100823,97482
100905,97540
100863,97496
100912,97526
100883,97483
101010,97527
101035,97607
101058,97567
101089,97554
101045,97561
101187,97627
101220,97666
101217,97641
101264,97635
101217,97615
101330,97705
101384,97684
101357,97721
101361,97705
101371,97693
101448,97728
101509,97777
101447,97724
101522,97777
101432,97705
101537,97779
101594,97774
101632,97791
101580,97784
101560,97797
101664,97840
101664,97850
101662,97836
101645,97836
101589,97755
101686,97828
101671,97844
101689,97860
101663,97823
101662,97786
101704,97863
101750,97847
101697,97878
101701,97835
101676,97811
101727,97855
101778,97908
101728,97840
101770,97881
101715,97813
101808,97864
101807,97922
101768,97873
101730,97859
101738,97853
101798,97902
101803,97878
101788,97865
101774,97869
101721,97867
101806,97864
101827,97932
101797,97894
101809,97883
101763,97860
101863,97909
101863,97945
101867,97925
101863,97911
101844,97889
101931,97944
101945,97971
101929,97940
101905,97943
101935,97898
102013,97975
102045,98007
101997,97959
102009,97969
102003,97935
102083,98007
102150,98010
102097,98021
102088,98001
102084,97981
102131,98046
102159,98055
102161,98050
102161,98007
102177,98040
102210,98053
102265,98073
102245,98053
102243,98076
102245,98016
102327,98074
102335,98098
102330,98107
102304,98093
102302,98055
102441,98106
102427,98166
102423,98115
102439,98116
102418,98139
102473,98150
102512,98207
102473,98116
102537,98166
102484,98139
102562,98212
102597,98208
102569,98207
102540,98141
102533,98151
102622,98196
102598,98227
102616,98172
102551,98193
102576,98178
102644,98241
102674,98254
102650,98243
102668,98199
102643,98229
102749,98260
102722,98271
102704,98260
102700,98248
102725,98247
102766,98292
102804,98311
102747,98277
102731,98250
102760,98261
102837,98303
102870,98310
102828,98324
102786,98276
102781,98276
102865,98315
102797,98310
102784,98302
102668,98207
102565,98185
102528,98159
102322,98083
102055,97952
101771,97809
101494,97725
101312,97673
101111,97586
100861,97498
100654,97369
100513,97300
100413,97291
100274,97226
100145,97184
100025,97130
99971,97092
99963,97102
99911,97077
99797,97033
99754,96979
99714,96986
99729,97014
99682,97014
99695,96999
99586,96945
99653,96995
99684,97021
99662,96994
99649,96963
99638,96975
99658,96988
99732,97014
99744,97012
99752,97026
99751,96995
99823,97047
99899,97084
99917,97110
99917,97072
99922,97102
99969,97114
100083,97164
100080,97211
100064,97171
100098,97155
100155,97183
100153,97226
100219,97233
100246,97248
100218,97211
100256,97225
100286,97274
100280,97227
100296,97228
100215,97170
100303,97212
100341,97287
100308,97240
100297,97251
100243,97211
100312,97240
100388,97280
100345,97278
100374,97253
100319,97271
100392,97283
100502,97325
100463,97327
100496,97335
100443,97243
100541,97328
100583,97396
100578,97389
100605,97366
100518,97291
100605,97352
100651,97372
100607,97393
100590,97324
100534,97364
100569,97375
100657,97396
100577,97396
100564,97380
100496,97322
100549,97348
100572,97342
100579,97318
100563,97347
100497,97277
100559,97334
100575,97366
100526,97327
100516,97311
100471,97307
100544,97317
100569,97362
100554,97334
100511,97327
100501,97279
100548,97340
100613,97349
100584,97371
100586,97368
100543,97276
100630,97366
100626,97392
100677,97378
100686,97384
100647,97337
100751,97404
100808,97447
100777,97450
100775,97411
100744,97415
100851,97429
100884,97488
100895,97458
100897,97465
100888,97425
100971,97475
101014,97502
101015,97512
100997,97502
100993,97465
101089,97523
101152,97575
101127,97535
101167,97536
101127,97536
101201,97581
101262,97638
101282,97604
101276,97622
101242,97577
101356,97650
101414,97659
101374,97654
101399,97658
101371,97636
101450,97672
101508,97708
101462,97689
101516,97719
101513,97658
101598,97720
101648,97748
101612,97758
101656,97745
101596,97707
101736,97804
101761,97793
101752,97804
101766,97785
101715,97768
101824,97807
101831,97847
101831,97799
101808,97833
101822,97815
101915,97856
101906,97887
101883,97869
101893,97830
101886,97817
101957,97870
101988,97901
101973,97864
101936,97864
101944,97842
102009,97883
102021,97913
102017,97902
102004,97881
102000,97854
102079,97893
102092,97951
102091,97928
102035,97922
102056,97905
102116,97940
102174,97954
102145,97942
102100,97933
102112,97897
102195,97959
102236,97980
102210,97988
102169,97938
102179,97950
102256,97991
102290,98034
102283,97998
102247,97971
102280,97965
102337,97999
102361,98043
102322,98021
102322,98008
102325,98004
102399,98061
102416,98053
102348,98034
102380,98041
102340,98019
102459,98071
102445,98092
102437,98049
102432,98063
102417,98058
102489,98078
102529,98098
102486,98088
102481,98077
102479,98057
102557,98089
102564,98121
102553,98121
102526,98085
102536,98078
102607,98122
102626,98143
102615,98135
102586,98126
102622,98100
102690,98166
102675,98175
102644,98148
102651,98144
102641,98106
102720,98187
102731,98203
102700,98161
102680,98151
102695,98148
102756,98208
102780,98219
102789,98203
102760,98165
102744,98187
102815,98195
102827,98230
102819,98217
102756,98196
102785,98201
102867,98239
102840,98246
102818,98215
102738,98162
102752,98192
102750,98171
102668,98158
102493,98077
102284,97936
102066,97857
101840,97811
101625,97725
101395,97601
101116,97507
100934,97411
100783,97385
100677,97330
100520,97259
100389,97193
100310,97152
100232,97149
100169,97127
100100,97070
100023,97045
100003,97025
99973,97024
99969,97032
99932,97012
99848,96994
99909,96992
99883,97000
99907,97015
99878,96997
99887,96999
99915,97007
99953,97020
99966,97048
99967,97043
99968,97020
100029,97041
100075,97109
100136,97115
100125,97102
100138,97095
100199,97109
100250,97175
100296,97187
100294,97156
100317,97171
100382,97200
100428,97247
100463,97256
100470,97232
100467,97204
100526,97249
100563,97296
100558,97315
100570,97278
100561,97254
100598,97284
100638,97329
100665,97316
100626,97287
100611,97267
100682,97296
100730,97353
100759,97341
100703,97313
100678,97324
100792,97369
100876,97412
100877,97412
100863,97411
100865,97382
100936,97411
100993,97457
100966,97457
100976,97450
100944,97406
101011,97432
101046,97468
101030,97458
100984,97443
100944,97421
100965,97428
101017,97459
101034,97445
100975,97460
100980,97422
101003,97450
101034,97450
101036,97449
100987,97440
100968,97424
100989,97430
101005,97440
101040,97428
100986,97459
100936,97372
101004,97414
101014,97489
101023,97439
101005,97464
100966,97388
101018,97422
101037,97514
101033,97436
101066,97447
101011,97433
101107,97488
101142,97517
101117,97456
101158,97484
101146,97461
101219,97521
101293,97566
101245,97541
101342,97554
101283,97470
101355,97544
101432,97564
101478,97592
101464,97624
101431,97528
101550,97619
101596,97685
101568,97626
101616,97664
101550,97604
101700,97693
101730,97745
101752,97718
101761,97721
101790,97725
101866,97755
101966,97776
102014,97841
101990,97828
101996,97756
102087,97829
102164,97842
102126,97884
102199,97855
102151,97818
102261,97902
102255,97927
102266,97884
102327,97941
102269,97867
102372,97948
102415,97932
102413,97973
102392,97984
102397,97944
102445,97992
102516,97977
102503,98045
102459,97963
102463,98001
102518,97988
102590,98009
102563,98046
102525,98004
102538,98014
102598,98043
102664,98060
102554,98056
102606,98030
102566,98024
102663,98076
102713,98107
102674,98088
102661,98038
102630,98002
102740,98092
102755,98141
102686,98100
102743,98054
102688,98062
102764,98130
102801,98115
102751,98151
102741,98055
102703,98072
102799,98135
102833,98143
102798,98130
102761,98076
102724,98082
102843,98152
102844,98155
102766,98144
102788,98088
102761,98087
102874,98119
102854,98165
102849,98134
102823,98147
102804,98123
102904,98156
102957,98160
102935,98179
102915,98166
102882,98153
102991,98210
103039,98230
102993,98232
102984,98174
102968,98199
103044,98211
103069,98235
103026,98200
103032,98233
103051,98198
103090,98248
103076,98274
103097,98226
103050,98249
103077,98217
103114,98261
103172,98316
103094,98248
103155,98279
103125,98199
103175,98290
103230,98320
103187,98280
103160,98269
103190,98297
103240,98298
103280,98340
103240,98310
103203,98248
103222,98287
103328,98347
103341,98365
103297,98352
103280,98259
103291,98308
103309,98348
103381,98383
103358,98384
103338,98313
103344,98339
103414,98389
103405,98387
103412,98344
103404,98379
103416,98369
103429,98399
103506,98416
103471,98418
103433,98341
103457,98392
103529,98418
103577,98443
103521,98417
103458,98355
103469,98377
103506,98395
103445,98408
103314,98314
103195,98269
103126,98213
103025,98171
102850,98114
102712,98045
102467,97891
102259,97849
102137,97793
101919,97696
101764,97628
101530,97586
101423,97502
101381,97492
101240,97457
101150,97370
101065,97385
101016,97325
101010,97328
100938,97318
100895,97268
100817,97286
100842,97265
100931,97302
100888,97324
100896,97327
100905,97268
100964,97312
101024,97371
101118,97405
101106,97400
101171,97407
101220,97423
101341,97456
101383,97506
101366,97520
101416,97462
101508,97531
101550,97587
101646,97580
101625,97596
101697,97577
101772,97621
101830,97654
101875,97684
101874,97697
101898,97622
101956,97680
101979,97757
101998,97733
102022,97747
101938,97672
102007,97739
102063,97782
102028,97754
102001,97735
101939,97699
102041,97722
102033,97777
102057,97745
102020,97744
102016,97754
102104,97740
102172,97798
102164,97773
102213,97829
102193,97756
102283,97858
102382,97866
102342,97877
102387,97877
102367,97830
102422,97933
102487,97907
102470,97907
102429,97887
102397,97882
102457,97914
102522,97948
102497,97938
102482,97926
102431,97887
102467,97927
102558,97928
102505,97924
102474,97915
102453,97920
102489,97915
102568,97958
102543,97930
102510,97930
102475,97876
102559,97943
102546,97957
102535,97964
102568,97944
102521,97865
102559,97936
102597,97943
102582,97962
102597,97951
102555,97896
102639,97950
102682,98011
102627,97982
102688,97989
102624,97954
102700,97966
102820,98055
102748,97989
102767,98027
102724,97987
102814,98002
102865,98093
102850,98039
102840,98041
102798,98003
102923,98054
102945,98115
102940,98109
102915,98083
102880,98031
103002,98105
103021,98134
102990,98118
103006,98107
102950,98063
103033,98121
103116,98157
103081,98168
103088,98127
102997,98107
103105,98141
103172,98182
103094,98174
103152,98178
103061,98090
103173,98162
103189,98215
103157,98202
103172,98174
103107,98149
103237,98198
103229,98255
103234,98211
103230,98217
103185,98159
103257,98238
103245,98215
103240,98231
103244,98221
103243,98186
103285,98228
103302,98257
103310,98211
103288,98234
103267,98195
103326,98239
103331,98271
103324,98278
103303,98224
103269,98232
103351,98242
103353,98278
103342,98264
103310,98240
103282,98224
103362,98245
103381,98284
103349,98261
103343,98259
103314,98229
103373,98298
103401,98297
103343,98261
103361,98271
103299,98226
103368,98265
103417,98305
103368,98291
103359,98234
103336,98211
103413,98302
103448,98278
103364,98256
103359,98275
103364,98239
103440,98281
103396,98306
103375,98284
103393,98273
103377,98216
103446,98318
103461,98328
103415,98299
103406,98259
103412,98272
103466,98321
103491,98299
103474,98322
103434,98278
103414,98307
103492,98343
103487,98307
103507,98330
103480,98303
103411,98312
103521,98314
103577,98379
103501,98330
103514,98297
103487,98271
103601,98338
103553,98394
103521,98342
103547,98339
103513,98291
103614,98336
103593,98417
103579,98335
103550,98358
103549,98308
103624,98376
103665,98374
103609,98360
103594,98322
103640,98349
103668,98388
103650,98418
103630,98383
103659,98373
103611,98341
103686,98369
103684,98429
103669,98398
103682,98381
103636,98343
103743,98391
103716,98446
103689,98403
103727,98388
103736,98405
103740,98457
103799,98445
103771,98423
103729,98392
103732,98440
103791,98420
103777,98487
103776,98437
103783,98393
103764,98433
103826,98430
103788,98440
103734,98416
103661,98354
103617,98306
103552,98349
103453,98264
103343,98194
103147,98129
103015,98053
102990,98020
102760,98000
102578,97904
102406,97824
102237,97718
102171,97695
102007,97656
101905,97607
101742,97554
101711,97513
101630,97502
101632,97535
101525,97465
101467,97433
101458,97409
101515,97446
101457,97448
101448,97429
101443,97441
101453,97412
101555,97468
101554,97461
101580,97461
101568,97452
101660,97483
101755,97571
101772,97568
101828,97560
101826,97579
101886,97578
102023,97672
102009,97665
102082,97668
102050,97628
102175,97715
102205,97754
102265,97765
102244,97757
102254,97744
102337,97736
102385,97797
102381,97816
102404,97788
102298,97752
102416,97838
102452,97789
102424,97844
102456,97795
102395,97785
102451,97829
102484,97837
102500,97835
102459,97817
102392,97777
102510,97806
102515,97879
102551,97873
102554,97857
102559,97792
102658,97886
102696,97903
102721,97941
102725,97946
102740,97918
102786,97947
102830,97994
102843,97961
102865,97963
102791,97919
102879,97952
102862,98028
102897,97983
102841,97976
102822,97958
102858,97946
102930,98000
102888,97955
102885,97967
102862,97966
102882,97999
102944,98018
102913,97972
102900,97985
102854,97978
102932,97958
103001,98050
102949,98003
102958,97983
102900,97921
102997,97993
102986,98058
103009,98038
102955,98008
102993,97978
103008,98013
103051,98073
103042,98005
103043,98043
103016,97985
103070,98044
103116,98088
103076,98038
103105,98040
103033,98025
103141,98085
103167,98089
103124,98116
103151,98041
103096,98081
103173,98110
103239,98124
103215,98116
103188,98098
103176,98080
103260,98133
103323,98145
103279,98135
103249,98150
103245,98093
103302,98117
103348,98189
103327,98155
103356,98160
103305,98094
103376,98187
103372,98171
103361,98195
103364,98142
103328,98138
103432,98224
103425,98157
103392,98196
103442,98204
103418,98162
103464,98198
103451,98251
103476,98222
103429,98208
103400,98153
103489,98200
103472,98247
103479,98269
103462,98191
103448,98197
103530,98233
103518,98253
103527,98250
103475,98217
103462,98229
103533,98215
103612,98291
103551,98235
103550,98247
103537,98199
103571,98309
103579,98240
103544,98266
103563,98251
103541,98229
103617,98263
103601,98316
103599,98283
103615,98248
103530,98261
103595,98272
103644,98279
103631,98248
103543,98259
103582,98241
103623,98291
103657,98281
103636,98285
103600,98267
103581,98206
103664,98310
103638,98301
103619,98301
103599,98260
103575,98241
103684,98268
103650,98297
103609,98283
103607,98240
103611,98261
103654,98325
103706,98267
103673,98275
103647,98280
103627,98273
103684,98272
103717,98344
103665,98301
103687,98290
103677,98277
103716,98291
103771,98353
103715,98320
103681,98291
103715,98291
103780,98350
103773,98353
103762,98318
103743,98314
103697,98299
103803,98326
103789,98353
103755,98311
103795,98308
103738,98304
103843,98348
103792,98378
103778,98356
103813,98333
103773,98350
103830,98342
103818,98378
103816,98348
103783,98313
103767,98295
103804,98352
103785,98370
103770,98333
103788,98325
103740,98278
103820,98349
103795,98360
103747,98308
103800,98305
103763,98281
103835,98370
103816,98335
103830,98327
103753,98333
103800,98310
103843,98351
103877,98365
103859,98340
103833,98333
103840,98296
103928,98374
103872,98372
103898,98371
103854,98349
103877,98344
103931,98414
103909,98353
103905,98370
103854,98333
103900,98359
103922,98419
103920,98334
103834,98349
103741,98301
103648,98241
103642,98231
103516,98150
103413,98092
103224,98044
103149,97980
103086,97972
102934,97900
102767,97851
102619,97743
102469,97743
102422,97680
102290,97686
102202,97613
102102,97548
102076,97538
102071,97566
102001,97517
101925,97498
101897,97457
101860,97467
101951,97477
101896,97514
101905,97489
101903,97431
101946,97526
102008,97512
102041,97580
102070,97554
102121,97527
102213,97603
102234,97651
102317,97662
102329,97649
102344,97610
102366,97694
102479,97722
102465,97730
102486,97730
102476,97691
102574,97754
102633,97792
102635,97791
102648,97792
102615,97756
102682,97786
102734,97839
102745,97849
102736,97813
102711,97797
102754,97836
102786,97856
102788,97840
102747,97818
102735,97827
102790,97828
102791,97860
102829,97823
102741,97831
102746,97844
102815,97864
102871,97839
102823,97888
102837,97856
102844,97847
102886,97867
102944,97946
102944,97878
102940,97924
102909,97901
102916,97894
103022,97926
102968,97923
102927,97893
102916,97905
102954,97891
103008,97926
102928,97873
102952,97919
102899,97871
102958,97933
102963,97903
102931,97915
102916,97887
102880,97860
102973,97892
102947,97944
102941,97920
102900,97884
102909,97855
102919,97871
102987,97944
102921,97890
102949,97904
102853,97827
102933,97894
102973,97940
102931,97908
102908,97898
102882,97865
102962,97879
102989,97958
102967,97929
102983,97910
102926,97837
103048,97942
103014,97946
103010,97946
102982,97938
102946,97884
103077,97923
103091,97999
103070,97945
103046,97933
103010,97926
103088,97955
103120,98000
103115,97950
103079,97972
103037,97950
103148,97959
103183,98024
103174,97977
103163,97992
103107,97993
103198,97994
103218,98039
103196,97974
103183,98015
103167,97991
103252,98061
103269,98016
103239,98007
103242,98010
103185,98009
103251,98028
103312,98022
103270,98042
103286,98028
103262,98009
103275,98039
103308,98087
103325,98069
103302,98056
103307,98034
103325,98076
103403,98096
103356,98069
103326,98073
103338,98038
103452,98072
103404,98138
103373,98112
103357,98068
103336,98061
103398,98081
103438,98084
103404,98106
103401,98088
103368,98078
103428,98098
103472,98129
103406,98112
103397,98092
103387,98067
103429,98118
103481,98146
103426,98085
103414,98093
103406,98113
103461,98135
103483,98125
103451,98115
103415,98116
103395,98073
103469,98104
103471,98142
103463,98100
103431,98127
103404,98033
103457,98136
103472,98143
103467,98112
103464,98145
103434,98061
103505,98153
103517,98116
103481,98113
103455,98114
103449,98080
103545,98164
103497,98134
103493,98144
103503,98127
103457,98122
103546,98144
103581,98166
103531,98143
103491,98110
103475,98157
103536,98146
103575,98147
103554,98152
103506,98139
103483,98142
103585,98156
103547,98193
103510,98179
103543,98124
103520,98149
103577,98121
