11111,11111
0,0
80114,79509
98243,95742
98228,95744
98198,95701
98214,95745
98220,95721
98241,95709
98214,95737
98176,95684
98210,95750
98244,95705
98246,95723
98239,95721
98184,95689
98245,95738
98245,95718
98260,95702
98061,95723
98068,95686
98125,95737
98109,95730
98134,95697
98109,95745
98072,95676
98141,95726
98166,95727
98133,95750
98110,95697
98115,95687
98134,95720
98166,95724
98173,95714
98145,95757
98122,95733
98207,95759
98223,95757
98226,95736
98285,95762
98226,95765
98310,95769
98276,95807
98285,95739
98306,95772
98287,95767
98340,95849
98339,95805
98359,95788
98334,95819
98315,95750
98375,95809
98359,95809
98367,95811
98327,95787
98326,95745
98390,95806
98380,95794
98369,95781
98347,95776
98363,95755
98372,95831
98360,95815
98391,95797
98357,95778
98377,95788
98362,95805
98408,95800
98371,95786
98363,95822
98354,95767
98388,95805
98413,95799
98418,95824
98397,95783
98394,95780
98421,95768
98445,95797
98445,95786
98458,95825
98420,95817
98470,95816
98511,95831
98460,95840
98493,95790
98493,95834
98512,95865
98530,95859
98538,95862
98563,95838
98532,95872
98576,95848
98634,95866
98599,95903
98616,95873
98582,95860
98649,95897
98646,95899
98664,95906
98647,95845
98644,95912
98687,95881
98670,95918
98675,95869
98651,95886
98665,95871
98709,95903
98764,95918
98703,95953
98741,95890
98712,95903
98802,95969
98781,95933
98796,95960
98776,95910
98777,95902
98866,95947
98840,95949
98838,95961
98816,95941
98838,95927
98847,95991
98863,95945
98886,95981
98875,95959
98844,95955
99081,96034
98852,95891
98807,95872
98460,95820
98411,95808
98442,95822
98421,95853
98446,95863
98413,95837
98385,95841
98453,95895
98489,95849
98459,95858
98477,95865
98442,95863
98416,95821
98433,95883
98410,95847
98414,95868
98376,95823
98415,95817
98426,95850
98443,95838
98412,95864
98368,95841
98416,95877
98447,95874
98450,95899
98416,95844
98427,95854
98401,95869
98497,95917
98455,95965
98451,95909
98460,95900
98445,95948
98465,95967
98523,95940
98464,96000
98443,95959
98498,96002
98536,96017
98533,96044
98494,95976
98496,95972
98521,96027
98471,96009
98494,96011
98448,95990
98462,95968
98479,95967
98497,95995
98480,96000
98457,95957
98441,95948
98434,95982
98473,95961
98492,95974
98434,95956
98436,95956
98443,95927
98496,95986
98456,95999
98493,95951
98456,95958
98464,95997
98475,95977
98515,95972
98468,96018
98454,95968
98528,95989
98513,96008
98531,96004
98495,95995
98500,95986
98504,95983
98524,95997
98525,96021
98529,96018
98473,95972
98540,95979
98556,96015
98520,95983
98516,95984
98494,95956
98506,95974
98536,95985
98538,95991
98519,95933
98512,95921
98520,95964
98582,95990
98535,96014
98571,95966
98535,95964
98549,96015
98560,95996
98595,95992
98613,95990
98574,95998
98586,96042
98620,96039
98576,95988
98604,96032
98589,96031
98584,96045
98613,96026
98651,96038
98600,96062
98584,95994
98626,96018
98645,96072
98608,96039
98639,96046
98628,96032
98622,96051
98592,96049
98583,95986
98574,96033
98589,96010
98617,96019
98605,96007
98612,96003
98576,96000
98512,95965
98524,95982
98532,96001
98438,95944
98431,95949
98313,95889
98310,95915
98278,95909
98251,95848
98149,95855
98084,95781
98084,95785
98040,95797
97936,95731
97911,95757
97849,95695
97805,95707
97759,95692
97702,95637
97650,95632
97582,95608
97538,95607
97561,95609
97471,95593
97462,95558
97386,95518
97418,95555
97393,95535
97373,95537
97343,95482
97316,95470
97342,95508
97326,95511
97295,95462
97314,95474
97288,95470
97278,95456
97313,95479
97301,95494
97299,95502
97256,95424
97330,95501
97313,95493
97319,95477
97312,95469
97294,95424
97345,95449
97361,95484
97328,95435
97347,95463
97321,95436
97354,95444
97337,95445
97395,95457
97347,95453
97352,95399
97389,95448
97426,95473
97362,95417
97425,95442
97387,95429
97463,95453
97495,95482
97465,95483
97494,95435
97487,95434
97489,95445
97527,95470
97550,95427
97547,95484
97515,95434
97567,95497
97563,95481
97602,95460
97587,95448
97583,95457
97595,95465
97631,95457
97590,95514
97606,95438
97605,95460
97624,95453
97664,95480
97602,95436
97666,95478
97572,95438
97650,95462
97624,95470
97674,95486
97625,95456
97617,95422
97659,95463
97671,95481
97653,95456
97640,95457
97656,95410
97656,95501
97662,95481
97696,95461
97673,95468
97670,95402
97729,95507
97713,95474
97710,95457
97700,95475
97714,95444
97755,95488
97795,95499
97761,95492
97786,95460
97763,95462
97821,95484
97817,95513
97781,95462
97859,95493
97810,95454
97859,95520
97865,95496
97874,95536
97871,95492
97873,95488
97891,95512
97933,95524
97927,95521
97907,95549
97884,95467
97987,95565
97988,95557
97974,95495
97964,95525
97964,95521
98008,95538
98034,95579
98048,95564
98023,95542
98042,95571
98039,95563
98071,95550
98060,95586
98041,95574
98070,95566
98083,95575
98110,95572
98130,95618
98121,95559
98083,95583
98156,95579
98153,95615
98183,95574
98158,95586
98154,95594
98140,95590
98220,95598
98158,95604
98198,95588
98175,95607
98206,95609
98222,95630
98259,95627
98229,95609
98211,95600
98285,95678
98232,95636
98251,95658
98269,95634
98244,95599
98276,95669
98273,95642
98294,95634
98295,95633
98266,95610
98304,95604
98336,95623
98275,95614
98306,95621
98305,95618
98315,95640
98379,95621
98316,95649
98343,95600
98365,95659
98373,95629
98404,95655
98408,95666
98374,95630
98423,95643
98431,95686
98481,95689
98455,95676
98480,95688
98448,95683
98488,95684
98528,95721
98552,95720
98520,95714
98523,95701
98571,95696
98566,95741
98580,95720
98550,95718
98563,95692
98606,95766
98672,95734
98600,95737
98638,95702
98633,95727
98660,95767
98641,95733
98715,95762
98652,95722
98672,95728
98667,95710
98629,95713
98578,95704
98475,95635
98488,95636
98419,95622
98359,95601
98314,95551
98248,95543
98178,95492
98196,95508
98124,95515
98056,95488
98005,95425
97995,95416
97983,95455
97986,95394
97927,95408
97934,95393
97864,95381
97912,95376
97868,95405
97850,95349
97859,95374
97832,95366
97845,95371
97885,95358
97829,95390
97831,95364
97844,95378
97868,95393
97904,95383
97859,95403
97868,95376
97888,95410
97929,95397
97944,95405
97930,95414
97934,95401
97902,95401
97969,95415
97968,95428
97989,95440
97980,95421
97982,95445
98020,95429
98084,95428
98050,95452
98070,95444
98090,95458
98070,95461
98088,95486
98108,95476
98082,95475
98113,95474
98127,95486
98147,95499
98166,95490
98137,95488
98165,95476
98170,95494
98209,95506
98208,95494
98184,95492
98207,95516
98258,95519
98277,95541
98288,95540
98261,95509
98281,95561
98330,95551
98327,95570
98303,95532
98341,95548
98338,95538
98369,95596
98339,95567
98377,95594
98337,95538
98347,95532
98383,95578
98359,95606
98377,95557
98326,95558
98342,95579
98354,95556
98396,95590
98352,95510
98352,95549
98373,95579
98361,95579
98342,95541
98394,95578
98369,95547
98378,95550
98397,95572
98420,95592
98414,95539
98416,95546
98441,95563
98452,95594
98468,95562
98443,95588
98445,95567
98471,95564
98524,95617
98518,95632
98536,95628
98555,95583
98558,95605
98609,95675
98585,95635
98614,95664
98607,95651
98653,95677
98674,95663
98726,95693
98711,95684
98706,95683
98741,95693
98799,95723
98780,95759
98831,95729
98781,95714
98832,95762
98861,95771
98932,95741
98892,95778
98926,95776
98970,95800
98999,95818
98996,95807
99037,95854
99021,95809
99086,95846
99108,95845
99131,95881
99110,95850
99154,95855
99164,95873
99203,95894
99261,95883
99224,95880
99256,95869
99315,95948
99308,95945
99354,95916
99344,95937
99343,95935
99384,95958
99423,95963
99420,95994
99444,95995
99442,95977
99455,95968
99513,96023
99545,95989
99513,96046
99506,96003
99576,96069
99597,96041
99634,96050
99642,96045
99610,96049
99675,96065
99671,96098
99687,96057
99691,96096
99724,96085
99762,96094
99796,96127
99773,96133
99821,96111
99828,96118
99822,96182
99858,96120
99886,96170
99863,96129
99897,96121
99899,96174
99948,96195
99941,96163
99948,96150
99926,96168
99989,96160
100008,96172
100011,96194
100040,96210
99994,96170
100081,96222
100110,96270
100120,96228
100090,96223
100075,96194
100148,96224
100168,96271
100126,96234
100173,96253
100132,96223
100202,96294
100218,96261
100246,96297
100221,96258
100224,96264
100252,96269
100280,96297
100281,96242
100282,96296
100246,96248
100316,96284
100351,96301
100307,96330
100350,96314
100311,96295
100375,96342
100404,96340
100423,96343
100420,96343
100395,96299
100471,96363
100464,96390
100515,96368
100516,96366
100471,96316
100554,96379
100549,96409
100556,96351
100578,96399
100550,96357
100585,96388
100601,96383
100621,96419
100580,96356
100496,96351
100527,96370
100456,96320
100310,96250
100214,96214
99967,96088
99859,96073
99707,95992
99520,95911
99381,95860
99218,95754
99133,95781
99049,95728
98944,95671
98841,95639
98787,95589
98782,95619
98762,95586
98692,95612
98660,95579
98627,95543
98672,95550
98674,95605
98650,95546
98664,95565
98600,95556
98654,95553
98741,95608
98683,95558
98706,95600
98725,95574
98720,95614
98803,95655
98797,95640
98811,95625
98812,95636
98847,95694
98887,95686
98916,95711
98883,95689
98940,95652
98961,95720
98985,95716
99051,95721
99027,95743
99043,95697
99081,95777
99105,95770
99118,95741
99158,95772
99084,95782
99164,95765
99203,95841
99194,95786
99217,95799
99198,95777
99216,95823
99252,95792
99260,95867
99270,95816
99246,95835
99311,95867
99325,95849
99336,95833
99371,95843
99361,95865
99411,95882
99420,95906
99411,95882
99446,95873
99436,95918
99476,95886
99506,95903
99514,95901
99496,95940
99455,95848
99488,95952
99481,95899
99487,95937
99489,95890
99468,95900
99458,95895
99492,95880
99445,95909
99463,95866
99397,95844
99408,95860
99464,95856
99388,95893
99392,95836
99371,95841
99384,95873
99395,95838
99381,95867
99374,95820
99376,95832
99413,95846
99393,95865
99403,95884
99375,95842
99426,95874
99425,95863
99461,95920
99488,95899
99468,95880
99460,95915
99483,95895
99521,95931
99529,95911
99514,95911
99491,95896
99565,95928
99614,95982
99589,95920
99602,95935
99592,95946
99636,95975
99706,95977
99669,96001
99694,95964
99693,95990
99761,96011
99758,96014
99818,96039
99763,96037
99778,96012
99849,96045
99882,96062
99860,96040
99887,96044
99877,96070
99927,96067
99965,96108
99966,96116
99969,96077
99981,96117
100000,96117
100074,96124
100071,96112
100080,96139
100088,96108
100168,96169
100163,96191
100199,96191
100182,96156
100182,96129
100255,96204
100215,96220
100263,96195
100274,96198
100236,96198
100284,96210
100290,96212
100279,96197
100334,96188
100279,96252
100320,96214
100407,96248
100358,96246
100372,96230
100368,96190
100412,96258
100400,96234
100430,96284
100413,96236
100409,96214
100470,96260
100453,96272
100450,96271
100467,96248
100494,96238
100499,96290
100467,96275
100518,96279
100468,96274
100506,96257
100546,96335
100516,96277
100542,96290
100512,96254
100526,96313
100537,96299
100566,96289
100544,96296
100546,96260
100573,96305
100613,96312
100582,96313
100600,96304
100572,96282
100633,96327
100669,96333
100664,96343
100673,96336
100630,96331
100679,96323
100696,96347
100723,96349
100734,96346
100728,96369
100759,96359
100739,96362
100786,96362
100775,96372
100802,96376
100815,96390
100856,96425
100853,96424
100808,96376
100787,96352
100805,96375
100752,96359
100697,96331
100612,96278
100504,96252
100382,96171
100229,96111
100080,96035
99922,95989
99699,95873
99617,95861
99507,95802
99442,95776
99278,95746
99212,95668
99150,95695
99136,95669
99058,95642
99035,95590
98999,95573
98951,95583
98966,95595
98962,95592
98933,95607
98896,95545
98919,95603
98961,95604
98992,95569
98951,95597
98919,95560
98966,95625
98972,95621
99021,95656
99019,95612
99063,95633
99119,95679
99131,95661
99142,95681
99166,95711
99209,95652
99210,95733
99269,95742
99291,95750
99285,95731
99286,95735
99365,95772
99390,95808
99399,95755
99436,95797
99382,95793
99456,95774
99467,95819
99450,95818
99477,95826
99477,95772
99505,95838
99551,95842
99590,95817
99589,95876
99589,95844
99627,95842
99630,95885
99656,95910
99661,95868
99691,95873
99719,95885
99774,95917
99784,95920
99794,95926
99795,95883
99766,95977
99790,95933
99820,95964
99749,95939
99750,95885
99721,95916
99764,95922
99750,95933
99708,95901
99671,95838
99659,95907
99681,95893
99680,95870
99639,95836
99563,95870
99598,95865
99576,95857
99546,95863
99545,95808
99513,95779
99507,95826
99539,95808
99464,95800
99491,95780
99445,95804
99441,95810
99488,95800
99489,95807
99473,95797
99488,95791
99468,95786
99519,95814
99518,95796
99501,95803
99492,95816
99546,95842
99542,95834
99553,95854
99550,95844
99545,95834
99584,95857
99594,95876
99613,95873
99652,95881
99616,95882
99672,95896
99676,95910
99669,95902
99682,95911
99683,95915
99719,95925
99722,95950
99743,95921
99742,95931
99729,95911
99796,95970
99782,95969
99817,95952
99773,95986
99772,95939
99799,96005
99822,95991
99802,95992
99817,95972
99810,95982
99835,95978
99833,96008
99825,96017
99829,95999
99871,95991
99877,95989
99900,96049
99915,96000
99885,96025
99872,95972
99919,96047
99937,96040
99887,96054
99915,96022
99892,96016
99925,96049
99916,96042
99936,96084
99907,96017
99946,96016
99949,96020
99970,96043
99976,96045
100003,96083
99941,95975
99984,96062
99993,96070
99989,96062
99997,96033
99969,96051
100026,96090
100043,96083
100035,96060
100063,96074
99983,96066
100042,96086
100054,96077
100070,96071
100085,96051
100068,96083
100105,96083
100101,96091
100104,96094
100090,96097
100103,96040
100150,96105
100155,96128
100149,96137
100115,96096
100153,96076
100164,96105
100229,96156
100183,96129
100236,96106
100170,96124
100250,96144
100260,96177
100286,96173
100241,96168
100263,96127
100306,96133
100295,96139
100303,96140
100220,96144
100184,96060
100123,96060
100039,96060
99886,95975
99744,95889
99645,95850
99542,95811
99427,95797
99310,95685
99215,95680
99112,95628
99091,95627
99066,95595
98973,95552
98971,95527
98866,95508
98858,95533
98883,95555
98811,95475
98821,95462
98752,95494
98812,95517
98821,95497
98817,95480
98820,95520
98777,95436
98826,95526
98863,95479
98853,95520
98868,95502
98857,95491
98902,95554
98919,95529
98920,95575
98949,95560
98936,95521
98998,95585
99025,95596
99059,95599
99042,95598
99030,95586
99089,95602
99134,95669
99140,95597
99150,95655
99157,95610
99202,95658
99183,95656
99226,95692
99188,95666
99232,95665
99245,95687
99267,95651
99232,95681
99266,95698
99246,95627
99298,95683
99345,95732
99341,95703
99338,95735
99330,95700
99407,95785
99389,95740
99410,95754
99451,95781
99455,95767
99469,95793
99534,95784
99497,95788
99511,95773
99509,95783
99520,95798
99530,95825
99514,95764
99551,95802
99461,95771
99497,95798
99541,95821
99452,95786
99466,95738
99455,95784
99433,95773
99485,95795
99471,95793
99404,95784
99406,95694
99420,95778
99385,95770
99374,95753
99338,95715
99336,95720
99319,95724
99391,95739
99353,95746
99318,95699
99333,95682
99288,95714
99318,95755
99334,95708
99327,95710
99354,95687
99365,95743
99385,95727
99397,95741
99366,95750
99387,95745
99426,95767
99464,95793
99445,95756
99456,95752
99445,95804
99485,95817
99500,95806
99538,95840
99566,95768
99496,95811
99577,95804
99607,95871
99637,95829
99647,95841
99672,95827
99673,95884
99747,95879
99738,95865
99754,95875
99748,95843
99858,95902
99832,95934
99871,95916
99863,95914
99912,95926
99926,95924
99992,95978
99962,95939
99995,95968
99981,95947
100057,96000
100061,96025
100058,95991
100112,96004
100076,95980
100118,96049
100172,96037
100145,96036
100148,95984
100155,96075
100209,96069
100260,96071
100233,96080
100231,96080
100272,96068
100285,96109
100347,96097
100343,96116
100324,96100
100363,96098
100387,96148
100386,96113
100420,96157
100409,96113
100391,96118
100464,96156
100433,96172
100487,96144
100450,96161
100475,96174
100511,96179
100497,96176
100559,96183
100514,96181
100530,96195
100581,96209
100594,96221
100612,96203
100586,96165
100590,96222
100632,96219
100676,96226
100690,96235
100649,96209
100742,96211
100722,96276
100735,96239
100724,96246
100738,96237
100769,96250
100765,96304
100816,96263
100782,96316
100782,96275
100803,96271
100823,96330
100848,96275
100848,96312
100820,96259
100824,96286
100845,96313
100855,96298
100861,96311
100845,96250
100836,96308
100868,96294
100912,96341
100878,96317
100906,96304
100880,96334
100917,96333
100942,96293
100943,96308
100919,96326
100914,96326
100997,96316
100988,96353
100971,96324
100980,96332
101033,96324
101055,96399
101043,96351
101079,96377
101069,96366
101057,96397
101094,96412
101133,96395
101118,96433
101100,96351
101113,96422
101152,96400
101088,96410
101083,96367
101012,96355
100912,96271
100868,96274
100694,96219
100522,96101
100371,96055
100149,95922
100011,95907
99892,95867
99699,95772
99560,95677
99491,95662
99380,95691
99334,95609
99235,95593
99141,95517
99088,95514
99115,95549
99067,95511
99022,95516
99012,95488
98974,95486
98954,95451
98983,95498
98941,95450
98938,95446
98924,95468
99015,95500
98981,95491
98988,95472
99015,95503
99050,95479
99076,95531
99105,95533
99114,95508
99106,95547
99163,95545
99196,95599
99227,95600
99215,95607
99269,95600
99278,95609
99286,95659
99344,95628
99371,95625
99341,95639
99387,95678
99366,95662
99433,95685
99425,95649
99410,95648
99412,95682
99413,95657
99478,95694
99418,95679
99410,95662
99423,95681
99485,95694
99457,95694
99467,95675
99457,95683
99517,95694
99520,95738
99565,95729
99512,95714
99555,95694
99530,95719
99604,95734
99597,95759
99632,95740
99540,95725
99614,95759
99629,95755
99620,95776
99578,95726
99555,95684
99549,95759
99534,95708
99563,95739
99523,95718
99462,95666
99512,95684
99490,95719
99487,95648
99486,95692
99447,95631
99474,95695
99447,95683
99456,95663
99432,95666
99388,95615
99445,95680
99434,95688
99412,95640
99430,95657
99404,95593
99436,95679
99423,95675
99451,95663
99431,95656
99423,95676
99428,95659
99501,95709
99463,95661
99500,95694
99461,95683
99489,95698
99546,95669
99534,95721
99560,95708
99494,95693
99551,95707
99618,95716
99590,95734
99604,95699
99570,95722
99639,95750
99714,95761
99660,95773
99665,95812
99713,95735
99752,95804
99776,95776
99759,95804
99826,95819
99804,95778
99834,95850
99859,95834
99831,95807
99861,95835
99875,95804
99893,95863
99906,95844
99940,95859
99938,95842
99904,95832
99954,95850
99947,95868
99965,95869
99975,95874
99957,95865
99974,95885
100009,95882
100001,95888
100029,95893
100022,95894
100052,95915
100063,95928
100061,95907
100066,95924
100036,95886
100086,95897
100086,95932
100121,95926
100126,95933
100118,95914
100175,95937
100194,95968
100162,95942
100205,95949
100141,95902
100232,95957
100185,96004
100170,95966
100210,95973
100206,95914
100190,95983
100254,95978
100228,95983
100243,95985
100229,95914
100251,95998
100221,96003
100236,95948
100254,95991
100215,95963
100244,95998
100265,95989
100269,95990
100242,95987
100261,95934
100280,96001
100315,96006
100253,96009
100245,95944
100260,95987
100266,96001
100326,96003
100297,95994
100260,95982
100295,95982
100296,96006
100338,95981
100344,95981
100296,95980
100346,95976
100318,96020
100385,96006
100390,95986
100385,96003
100363,96009
100387,96017
100484,96054
100440,96017
100431,96017
100406,96006
100448,96035
100511,96044
100494,96053
100443,96035
100473,96055
100500,96050
100507,96073
100508,96049
100524,96046
100460,96004
100533,96082
100546,96072
100529,96047
100507,96035
100518,96044
100532,96083
100571,96064
100546,96063
100560,96050
100502,96044
100574,96037
100620,96098
100584,96061
100600,96079
100561,96051
100664,96117
100622,96059
100646,96100
100642,96065
100653,96089
100658,96103
100669,96110
100702,96097
100661,96137
100657,96075
100699,96124
100745,96132
100731,96135
100726,96089
100685,96123
100734,96110
100731,96146
100712,96126
100633,96084
100580,96053
100484,96027
100417,95954
100217,95918
100036,95807
99806,95704
99675,95640
99525,95636
99378,95528
99296,95457
99152,95430
99088,95431
99017,95369
98915,95375
98853,95281
98798,95252
98748,95297
98750,95294
98699,95255
98639,95226
98630,95237
98587,95210
98617,95238
98566,95211
98567,95210
98531,95164
98589,95211
98578,95252
98570,95206
98583,95218
98564,95156
98621,95240
98599,95209
98635,95243
98621,95192
98640,95219
98663,95276
98707,95260
98693,95261
98714,95278
98693,95275
98753,95286
98751,95296
98756,95259
98720,95319
98751,95293
98784,95303
98785,95284
98806,95316
98762,95287
98763,95278
98816,95323
98798,95356
98796,95280
98774,95323
98754,95275
98805,95328
98855,95310
98792,95305
98785,95276
98827,95286
98817,95362
98856,95328
98868,95306
98847,95305
98862,95356
98911,95342
98916,95353
98926,95358
98885,95347
98904,95333
98944,95367
98897,95342
98939,95350
98863,95363
98843,95324
98889,95373
98892,95331
98878,95337
98842,95324
98848,95323
98861,95342
98868,95307
98829,95347
98814,95263
98783,95325
98808,95317
98844,95317
98800,95293
98772,95262
98788,95289
98794,95292
98813,95281
98816,95291
98791,95277
98773,95309
98785,95278
98823,95312
98798,95278
98796,95297
98784,95287
98867,95305
98831,95307
98872,95286
98824,95327
98840,95318
98901,95342
98898,95346
98904,95318
98897,95359
98935,95360
98960,95364
98935,95352
99014,95360
98933,95384
98975,95350
99028,95415
99075,95393
99062,95399
99074,95386
99056,95404
99088,95428
99144,95445
99155,95445
99151,95401
99201,95431
99220,95501
99248,95448
99245,95479
99290,95464
99238,95459
99334,95507
99294,95512
99337,95490
99341,95492
99332,95498
99340,95523
99382,95557
99379,95543
99392,95513
99390,95537
99425,95574
99447,95558
99442,95555
99465,95534
99503,95598
99523,95589
99530,95608
99549,95608
99531,95561
99546,95572
99607,95635
99605,95632
99577,95622
99560,95597
99587,95589
99604,95662
99633,95603
99623,95606
99603,95620
99616,95605
99639,95689
99653,95625
99631,95653
99595,95641
99625,95626
99624,95661
99660,95633
99655,95661
99632,95620
99661,95617
99684,95696
99680,95672
99652,95654
99648,95651
99653,95616
99705,95628
99691,95671
99716,95648
99665,95651
99683,95642
99740,95720
99749,95649
99762,95671
99773,95666
99760,95685
99788,95677
99804,95724
99794,95694
99784,95665
99793,95692
99852,95718
99881,95727
99867,95728
99863,95714
99853,95727
99885,95766
99891,95722
99931,95756
99873,95729
99926,95780
99930,95755
99977,95755
99955,95781
99966,95719
99986,95793
100005,95748
99992,95767
100047,95796
100031,95742
100074,95792
100074,95783
100129,95800
100080,95797
100122,95835
100148,95802
100159,95862
100206,95874
100216,95848
100202,95841
100225,95861
100311,95859
100297,95905
100307,95854
100341,95886
100363,95884
100449,95889
100448,95923
100416,95904
100486,95900
100479,95918
100524,95943
100489,95921
100501,95941
100456,95867
100430,95897
100310,95826
100213,95798
100071,95729
99848,95625
99748,95556
99524,95509
99363,95414
99211,95362
99095,95311
98961,95296
98901,95208
98812,95230
98666,95123
98630,95116
98565,95095
98560,95138
98502,95049
98485,95072
98403,95035
98402,95030
98444,95016
98405,95043
98366,95029
98373,95009
98349,95003
98402,95048
98370,95015
98417,95044
98348,95006
98420,95042
98447,95035
98470,95055
98456,95075
98444,95046
98532,95079
98524,95135
98538,95118
98583,95102
98535,95132
98570,95110
98635,95170
98597,95141
98618,95168
98611,95125
98687,95169
98678,95167
98727,95171
98695,95198
98671,95172
98744,95201
98764,95247
98750,95167
98769,95219
98722,95170
98779,95235
98820,95250
98780,95234
98805,95209
98799,95218
98878,95255
98875,95230
98918,95265
98873,95280
98918,95238
98972,95320
99012,95297
99013,95320
99013,95315
99015,95270
99077,95323
99052,95318
99120,95314
99082,95333
99064,95279
99098,95354
99059,95283
99058,95303
98987,95291
98996,95302
99009,95287
99013,95283
98959,95274
98937,95300
98924,95217
98935,95293
98947,95226
98916,95259
98880,95228
98872,95222
98884,95253
98864,95206
98854,95220
98814,95214
98845,95174
98887,95241
98864,95203
98885,95219
98858,95216
98901,95184
98888,95273
98913,95247
98916,95252
98922,95253
98923,95241
98946,95266
99015,95310
98991,95273
99017,95271
98981,95251
99030,95294
99041,95299
99046,95339
99085,95313
99009,95293
99105,95337
99111,95352
99118,95347
99120,95351
99104,95323
99168,95374
99194,95372
99191,95377
99207,95379
99181,95351
99224,95391
99265,95417
99237,95404
99262,95417
99237,95391
99307,95443
99285,95421
99318,95411
99295,95447
99299,95425
99334,95427
99369,95484
99344,95465
99355,95464
99355,95429
99372,95512
99400,95469
99407,95462
99399,95468
99391,95463
99414,95446
99418,95525
99448,95494
99435,95483
99435,95454
99462,95505
99447,95559
99466,95520
99481,95506
99412,95520
99474,95473
99481,95505
99521,95521
99434,95499
99447,95500
99450,95513
99455,95533
99434,95512
99431,95497
99429,95484
99448,95544
99453,95492
99444,95510
99463,95529
99371,95491
99475,95478
99435,95523
99436,95506
99437,95483
99390,95478
99426,95518
99434,95486
99416,95491
99406,95524
99363,95452
99439,95541
99467,95504
99435,95518
99417,95497
99411,95476
99431,95533
99450,95534
99410,95514
99445,95523
99389,95486
99466,95500
99463,95540
99465,95532
99484,95557
99417,95500
99503,95514
99494,95538
99508,95530
99482,95551
99467,95511
99538,95550
99526,95517
99544,95553
99533,95507
99509,95512
99552,95592
99580,95579
99558,95543
99551,95565
99495,95534
99584,95592
99572,95552
99601,95557
99584,95575
99572,95541
99608,95581
99634,95596
99606,95567
99667,95578
99617,95567
99678,95582
99681,95632
99641,95581
99672,95606
99616,95577
99670,95623
99700,95592
99731,95651
99661,95602
99686,95585
99721,95662
99738,95656
99721,95606
99744,95616
99742,95632
99736,95652
99762,95665
99756,95623
99763,95667
99757,95614
99789,95683
99828,95653
99786,95674
99810,95635
99793,95669
99824,95641
99850,95675
99795,95629
99743,95643
99640,95557
99619,95584
99491,95504
99382,95435
99185,95381
99068,95329
98957,95280
98880,95237
98750,95167
98604,95138
98536,95036
98510,95100
98449,95019
98404,95050
98308,94950
98253,94965
98238,94928
98181,94936
98156,94912
98107,94913
98034,94873
98088,94909
98047,94903
98003,94865
97979,94868
97968,94824
98023,94891
98022,94843
97963,94852
97980,94841
98004,94844
97990,94842
98021,94884
98018,94884
98002,94873
98000,94842
98035,94839
98099,94882
98054,94895
98046,94869
98062,94889
98129,94933
98091,94935
98104,94873
98088,94933
98116,94922
98158,94919
98181,94956
98118,94922
98177,94933
98141,94943
98205,94960
98205,94965
98150,94939
98190,94957
98153,94921
98214,94956
98180,94953
98180,94964
98177,94946
98201,94969
98204,94931
98215,94979
98204,94938
98224,94962
98224,94944
98244,94973
98268,94996
98263,94998
98259,94994
98231,94964
98265,95012
98276,94967
98281,95009
98240,94938
98246,94965
98236,94974
98248,94996
98195,94924
98208,94987
98165,94933
98233,94991
98203,94996
98198,94939
98170,94949
98169,94919
98129,94944
98169,94959
98097,94949
98135,94899
98153,94934
98138,94919
98118,94957
98122,94931
98100,94926
98074,94911
98137,94967
98108,94934
98131,94954
98111,94903
98081,94940
98100,94960
98133,94959
98126,94952
98129,94921
98101,94930
98177,94926
98171,94944
98169,94962
98123,94939
98132,94920
98186,94976
98202,94980
98166,94991
98167,94925
98241,94994
98231,94973
98276,95010
98235,94977
98272,94983
98221,95016
98300,94994
98274,95034
98313,95016
98253,95025
98277,94982
98336,95071
98339,95010
98334,95031
98315,95021
98318,95038
98362,95071
98374,95050
98359,95039
98342,95048
98371,95059
98390,95074
98377,95049
98423,95063
98373,95045
98424,95058
98460,95062
98472,95097
98455,95098
98406,95062
98447,95076
98473,95110
98490,95092
98491,95072
98491,95111
98446,95072
98513,95116
98484,95089
98514,95099
98463,95113
98495,95073
98511,95150
98520,95101
98536,95112
98526,95087
98505,95127
98558,95134
98574,95141
98544,95149
98541,95115
98547,95130
98563,95149
98543,95161
98563,95115
98522,95138
98544,95126
98585,95192
98553,95146
98528,95139
98545,95105
98586,95171
98607,95143
98611,95187
98617,95175
98566,95130
98601,95121
98623,95215
98665,95160
98648,95203
98648,95140
98658,95174
98697,95200
98661,95198
98700,95168
98697,95175
98680,95205
98754,95224
98718,95246
98759,95195
98735,95219
98762,95252
98815,95254
98818,95265
98800,95210
98815,95246
98796,95245
98820,95296
98814,95257
98843,95228
98856,95238
98835,95290
98868,95278
98911,95296
98878,95274
98914,95275
98932,95264
98941,95334
98939,95307
98992,95289
98975,95281
98978,95338
99028,95307
99081,95339
99050,95382
99021,95322
99105,95365
99105,95372
99120,95340
99131,95407
99125,95358
99152,95379
99147,95424
99168,95363
99174,95415
99164,95355
99207,95384
99201,95432
99244,95432
99207,95419
99225,95374
99296,95428
99301,95451
99278,95469
99299,95432
99297,95407
99305,95430
99358,95467
99363,95450
99392,95489
99338,95466
99376,95485
99392,95460
99456,95497
99417,95512
99445,95462
99418,95513
99474,95482
99530,95526
99471,95480
99500,95503
99545,95522
99542,95518
99543,95538
99554,95551
99507,95502
99572,95524
99569,95540
99580,95542
99588,95551
99510,95552
99511,95481
99483,95472
99350,95414
99266,95408
99076,95299
98986,95239
98836,95232
98735,95143
98585,95103
98468,95014
98387,95014
98300,94969
98269,94924
98171,94893
98078,94872
98022,94885
97998,94821
97920,94797
97923,94790
97823,94760
97835,94791
97787,94756
97833,94747
97755,94762
97714,94687
97736,94701
97739,94731
97761,94744
97688,94686
97714,94680
97719,94755
97781,94744
97766,94744
97787,94747
97736,94743
97806,94729
97812,94801
97785,94777
97856,94751
97793,94731
97852,94812
97915,94788
97897,94816
97906,94819
97902,94787
97966,94798
97934,94842
97929,94876
97986,94794
97961,94824
97984,94817
98017,94836
97996,94880
98003,94821
97999,94823
98016,94879
98039,94857
98039,94826
98038,94858
98031,94822
98020,94855
98082,94859
98071,94862
98080,94848
98050,94832
98127,94888
98143,94902
98153,94893
98157,94915
98143,94913
98209,94946
98241,94941
98198,94931
98198,94946
98183,94904
98204,94943
98204,94930
98184,94927
98184,94909
98158,94875
98151,94915
98185,94920
98195,94906
98127,94871
98126,94873
98119,94904
98115,94885
98134,94860
98124,94853
98056,94856
98114,94861
98120,94888
98103,94860
98073,94856
98056,94825
98074,94851
98090,94894
98068,94882
98100,94853
98055,94857
98104,94855
98142,94898
98081,94886
98118,94905
98069,94862
98155,94874
98171,94890
98155,94915
98190,94916
98178,94899
98230,94896
98257,94950
98211,94951
98280,94948
98264,94931
98295,94982
98307,94951
98357,94957
98332,94941
98304,94972
98360,95006
98403,95004
98418,95003
98415,94982
98404,95001
98457,95006
98494,95043
98493,94998
98461,95037
98485,95022
98561,95056
98542,95101
98550,95040
98541,95058
98582,95057
98610,95092
98610,95129
98604,95072
98615,95101
98616,95087
98604,95121
98644,95125
98661,95140
98663,95123
98664,95118
98673,95146
98665,95162
98695,95107
98709,95132
98731,95126
98727,95143
98778,95190
98737,95164
98749,95182
98737,95132
98773,95162
98782,95183
98792,95149
98785,95155
98741,95150
98792,95202
98794,95155
98829,95176
98791,95160
98786,95175
98804,95158
98831,95207
98783,95146
98810,95170
98781,95155
98771,95170
98840,95203
98807,95140
98784,95188
98796,95138
98797,95210
98844,95187
98848,95173
98839,95198
98819,95149
98844,95209
98876,95207
98866,95181
98876,95212
98823,95182
98924,95230
98904,95221
98913,95227
98900,95206
98894,95188
98918,95237
98975,95209
98910,95239
98897,95204
98937,95244
98942,95232
98982,95237
99003,95256
98983,95244
98995,95183
98984,95249
99027,95245
99011,95212
99005,95225
99026,95250
99053,95292
99074,95266
99057,95271
99035,95269
99040,95231
99078,95282
99117,95299
99114,95318
99078,95272
99097,95274
99102,95303
99153,95327
99156,95296
99122,95299
99174,95318
99157,95335
99181,95311
99191,95334
99163,95319
99191,95333
99261,95360
99243,95380
99255,95324
99227,95358
99264,95338
99275,95384
99276,95394
99289,95309
99245,95366
99232,95319
99199,95305
99129,95302
99043,95209
98957,95209
98771,95114
98688,95086
98609,95081
98464,95007
98391,94933
98283,94875
98228,94926
98165,94856
98052,94834
97971,94776
97969,94784
97904,94769
97869,94726
97833,94735
97774,94669
97733,94645
97733,94730
97685,94659
97679,94674
97636,94613
97649,94653
97659,94664
97609,94662
97643,94603
97603,94656
97613,94667
97641,94630
97647,94662
97678,94660
97615,94656
97654,94615
97670,94666
97702,94686
97685,94642
97722,94657
97691,94708
97758,94693
97770,94727
97766,94694
97740,94696
97802,94700
97777,94731
97808,94719
97810,94749
97790,94715
97814,94741
97815,94746
97835,94723
97811,94750
97793,94728
97831,94717
97839,94769
97856,94707
97841,94766
97812,94721
97846,94721
97882,94774
97911,94788
97870,94743
97929,94764
97901,94789
97931,94798
97970,94815
97939,94783
97968,94780
97979,94813
98001,94836
98052,94826
97989,94827
98003,94812
98019,94813
98002,94832
98012,94815
97989,94789
97988,94773
98000,94795
98034,94832
97963,94799
97999,94823
97946,94794
97947,94777
98015,94828
97967,94782
97953,94836
97911,94749
97950,94788
97976,94808
97995,94799
97951,94809
97894,94752
97939,94778
97945,94808
97965,94799
97912,94770
97940,94783
97921,94774
97957,94795
97957,94795
97947,94804
97959,94767
97945,94810
97993,94805
97991,94827
97974,94802
98003,94801
97982,94816
98061,94834
98031,94814
98081,94865
98056,94815
98109,94867
98121,94858
98142,94857
98119,94880
98155,94845
98162,94887
98194,94883
98199,94885
98206,94914
98186,94854
98266,94937
98272,94890
98313,94917
98276,94921
98270,94888
98295,94931
98330,94926
98354,94943
98328,94925
98311,94944
98373,94961
98358,94989
98353,94962
98369,94978
98348,94960
98382,94957
98403,95003
98353,94944
98375,94980
98366,94947
98343,95000
98364,94976
98424,95018
98367,94953
98384,94954
98363,94945
98407,95000
98346,94999
98395,94965
98404,94977
98389,94963
98414,95012
98418,94974
98378,94985
98398,94951
98376,94967
98447,95021
98389,95035
98435,95010
98367,94974
98405,94987
98439,95003
98433,95012
98471,94989
98423,94980
98457,95021
98458,94999
98488,95017
98464,94982
98461,94994
98449,95028
98486,94984
98535,95044
98489,95006
98472,94987
98482,95022
98528,95042
98508,95060
98522,95032
98507,95002
98526,95055
98543,95039
98592,95054
98574,95077
98522,94987
98619,95091
98601,95048
98615,95055
98592,95073
98582,95024
98605,95101
98613,95049
98647,95084
98631,95104
98629,95051
98638,95051
98687,95092
98648,95111
98636,95081
98626,95082
98705,95103
98675,95119
98699,95073
98683,95085
98674,95093
98711,95111
98703,95115
98711,95124
98731,95087
98690,95116
98695,95099
98695,95122
98757,95124
98704,95140
98650,95075
98744,95148
98741,95117
98711,95110
98725,95079
98716,95116
98709,95087
98758,95135
98744,95096
98733,95109
98714,95124
98738,95114
98804,95151
98764,95154
98770,95156
98780,95117
98775,95166
98805,95151
98813,95177
98802,95137
98800,95121
98853,95177
98853,95199
98843,95161
98816,95173
98757,95098
98802,95154
98702,95119
98625,95056
98569,95021
98430,94996
98359,94940
98281,94958
98184,94865
98114,94820
97980,94806
97959,94774
97877,94772
97803,94715
97710,94680
97650,94631
97603,94612
97561,94590
97525,94592
97472,94525
97366,94531
97390,94540
97320,94538
97320,94516
97265,94501
97243,94431
97223,94469
97275,94501
97238,94497
97169,94484
97162,94413
97187,94488
97222,94481
97215,94468
97193,94505
97152,94423
97186,94515
97219,94503
97189,94475
97219,94498
97173,94477
97206,94491
97252,94500
97222,94507
97187,94506
97182,94459
97243,94527
97254,94527
97221,94491
97200,94485
97194,94504
97252,94506
97219,94512
97237,94500
97195,94487
97191,94484
97217,94503
97217,94525
97235,94502
97206,94516
97178,94468
97227,94526
97197,94521
97204,94508
97178,94500
97192,94473
97200,94518
97225,94517
97245,94523
97245,94484
97205,94497
97262,94547
97236,94504
97244,94492
97271,94497
97232,94519
97243,94549
97256,94497
97251,94531
97256,94504
97162,94474
97262,94509
97266,94514
97209,94457
97224,94501
97196,94481
97192,94494
97219,94463
97182,94487
97190,94456
97117,94446
97191,94479
97181,94478
97177,94462
97159,94464
97108,94420
97122,94480
97126,94440
97168,94462
97122,94467
97124,94396
97125,94451
97172,94432
97131,94432
97153,94419
97097,94428
97156,94475
97157,94468
97149,94438
97169,94449
97147,94447
97186,94478
97213,94470
97187,94441
97200,94438
97178,94429
97215,94471
97272,94492
97219,94520
97261,94486
97268,94467
97264,94500
97322,94513
97277,94469
97310,94491
97303,94508
97312,94522
97385,94539
97340,94493
97376,94525
97383,94524
97368,94561
97402,94534
97408,94547
97389,94538
97428,94519
97466,94586
97429,94539
97487,94593
97472,94587
97435,94564
97497,94586
97506,94585
97478,94601
97510,94559
97464,94541
97525,94593
97569,94604
97567,94616
97527,94577
97590,94600
97595,94633
97611,94618
97599,94586
97637,94606
97584,94655
97643,94611
97658,94645
97629,94636
97667,94642
97619,94608
97701,94691
97685,94640
97665,94671
97676,94629
97681,94658
97731,94663
97744,94641
97722,94675
97722,94628
97689,94688
97717,94669
97795,94700
97752,94663
97757,94661
97750,94647
97799,94689
97772,94706
97770,94673
97822,94689
97779,94680
97843,94715
97831,94719
97865,94713
97835,94712
97838,94665
97867,94745
97892,94713
97865,94721
97872,94734
97887,94725
97899,94730
97927,94739
97951,94750
97907,94744
97942,94757
97935,94760
97974,94737
97947,94770
97972,94770
97950,94778
97997,94750
98014,94804
97988,94740
98035,94782
98022,94757
98057,94814
98058,94810
98095,94769
98094,94831
98095,94777
98138,94847
98122,94864
98158,94807
98145,94835
98166,94817
98179,94851
98211,94860
98215,94844
98194,94863
98221,94816
98259,94894
98250,94862
98267,94859
98260,94860
98249,94868
98305,94867
98326,94924
98309,94858
98343,94872
98347,94873
98404,94941
98378,94909
98404,94945
98424,94937
98439,94900
98483,94966
98461,94962
98524,94949
98514,94941
98496,94966
98583,95003
98525,95017
98549,94974
98568,94998
98535,94963
98585,94992
98569,94998
98532,94969
98466,94945
98419,94868
98336,94912
98200,94807
98111,94777
97967,94709
97896,94691
97782,94653
97752,94597
97629,94587
97528,94514
97464,94458
97441,94502
97318,94448
97275,94429
97184,94368
97122,94388
97159,94382
97067,94359
97039,94325
96996,94342
96956,94290
96957,94311
96913,94297
96925,94271
96891,94319
96902,94242
96891,94318
96900,94266
96905,94250
96860,94295
96893,94259
96950,94322
96926,94296
96931,94291
96901,94293
96948,94316
96969,94355
97009,94321
96959,94337
96981,94304
96964,94347
97041,94380
97024,94367
96999,94392
97004,94349
97042,94374
97074,94370
97050,94357
97075,94372
97045,94377
97046,94354
97086,94397
97078,94409
97055,94382
97067,94370
97033,94367
97099,94398
97104,94408
97066,94408
97068,94346
97091,94423
97111,94386
97138,94390
97132,94421
97113,94390
97186,94423
97205,94437
97177,94417
97217,94441
97185,94454
97240,94425
97230,94472
97213,94455
97239,94424
97197,94410
97206,94454
97257,94448
97222,94455
97226,94441
97218,94470
97218,94466
97237,94458
97197,94425
97207,94395
97200,94449
97193,94399
97253,94466
97201,94445
97183,94422
97194,94389
97201,94409
97253,94438
97204,94436
97214,94430
97189,94416
97227,94400
97241,94448
97218,94429
97228,94429
97248,94434
97246,94433
97253,94445
97237,94458
97298,94424
97263,94399
97285,94457
97336,94477
97351,94486
97333,94491
97326,94439
97345,94513
97406,94530
97386,94489
97418,94494
97359,94481
97460,94548
97467,94540
97500,94528
97458,94533
97451,94569
97521,94516
97586,94619
97574,94582
97545,94575
97601,94567
97575,94606
97633,94593
97647,94637
97634,94595
97678,94600
97680,94606
97721,94627
97711,94613
97751,94642
97714,94652
97765,94667
97789,94669
97821,94643
97790,94692
97787,94611
97842,94679
97872,94702
97880,94699
97898,94686
97835,94707
97906,94693
97948,94708
97903,94717
97917,94685
97922,94729
97953,94701
97972,94759
97983,94753
97944,94753
97956,94706
97970,94749
97988,94764
98020,94747
97983,94745
97977,94727
97997,94777
98016,94732
98027,94776
98004,94744
97996,94740
98045,94778
98077,94790
98076,94795
98101,94810
98057,94746
98053,94768
98126,94789
98127,94803
98118,94838
98062,94758
98145,94828
98132,94844
98091,94825
98118,94791
98079,94799
98119,94799
98166,94833
98146,94818
98138,94825
98115,94789
98139,94864
98182,94790
98154,94851
98168,94831
98179,94809
98198,94852
98235,94828
98249,94869
98245,94869
98239,94825
98273,94869
98262,94884
98265,94863
98270,94870
98245,94857
98271,94891
98320,94920
98318,94874
98321,94866
98293,94888
98362,94898
98345,94908
98382,94905
98354,94889
98394,94907
98390,94942
98448,94920
98473,94921
98462,94951
98434,94921
98489,94958
98557,94990
98505,94962
98504,94996
98499,94929
98563,94995
98565,95000
98575,95037
98557,94960
98532,94978
98598,95013
98636,95009
98628,95017
98623,94978
98606,95017
98682,95037
98627,95057
98633,95003
98677,95027
98588,94985
98604,94969
98545,94977
98430,94895
98332,94883
98175,94750
98098,94765
97973,94733
97887,94686
97763,94630
97683,94608
97597,94577
97568,94533
97450,94514
97392,94446
97325,94446
97306,94461
97251,94419
97193,94387
97162,94358
97086,94339
97122,94348
97088,94355
97054,94335
97033,94319
96949,94285
97024,94323
96986,94328
96976,94324
96982,94328
96972,94321
96999,94330
97012,94313
97006,94353
97029,94328
96986,94301
97061,94358
97067,94355
97081,94364
97055,94370
97102,94352
97132,94368
97130,94363
97162,94392
97139,94374
97121,94413
97134,94405
97185,94418
97198,94416
97191,94404
97149,94360
97198,94427
97235,94442
97187,94451
97180,94382
97167,94417
97199,94427
97243,94437
97177,94414
97209,94417
97188,94445
97210,94436
97238,94447
97259,94417
97278,94466
97258,94400
97310,94475
97332,94470
97329,94454
97346,94477
97327,94436
97369,94501
97402,94506
97369,94494
97365,94474
97355,94467
97405,94499
97415,94497
97403,94505
97412,94483
97396,94476
97393,94479
97437,94520
97421,94476
97368,94482
97391,94471
97416,94492
97416,94505
97386,94476
97402,94471
97382,94456
97387,94488
97409,94497
97417,94479
97377,94473
97397,94468
97400,94461
97418,94532
97382,94465
97421,94474
97394,94441
97437,94496
97463,94547
97455,94478
97445,94510
97475,94513
97511,94512
97505,94525
97528,94521
97515,94541
97537,94540
97552,94539
97610,94565
97592,94561
97560,94549
97578,94571
97603,94584
97672,94589
97667,94603
97623,94589
97670,94582
97698,94611
97699,94592
97720,94606
97698,94606
97741,94617
97748,94673
97795,94665
97792,94664
97819,94652
97842,94653
97860,94661
97868,94663
97869,94672
97902,94716
97900,94669
97905,94688
97922,94746
97922,94697
97976,94701
97923,94701
97986,94739
98017,94751
97958,94739
98005,94714
97995,94723
97994,94755
98043,94770
97992,94740
98045,94715
98025,94747
98050,94764
98072,94748
98104,94773
98066,94784
98092,94775
98109,94786
98129,94776
98127,94751
98127,94809
98156,94762
98155,94813
98220,94790
98179,94804
98157,94781
98184,94850
98231,94821
98225,94821
98253,94832
98219,94840
98234,94841
98226,94834
98233,94848
98258,94832
98247,94860
98254,94836
98311,94884
98322,94842
98308,94860
98267,94817
98315,94849
98309,94872
98350,94901
98330,94851
98334,94887
98338,94887
98363,94882
98385,94909
98352,94870
98368,94910
98382,94866
98391,94909
98428,94922
98415,94887
98445,94929
98475,94903
98491,94938
98468,94938
98523,94912
98487,94945
98527,94952
98546,94955
98580,94991
98542,94976
98606,94976
98613,94955
98637,94992
98640,95000
98650,94991
98640,94988
98627,94971
98678,95036
98729,95010
98707,95034
98710,95015
98698,95024
98729,95029
98804,95062
98764,95052
98757,95009
98792,95051
98789,95021
98806,95086
98804,95047
98783,95045
98835,95039
98815,95121
98867,95076
98808,95079
98808,95052
98843,95068
98845,95069
98874,95109
98846,95064
98839,95102
98855,95088
98872,95108
98899,95088
98908,95118
98844,95071
98898,95100
98940,95133
98953,95093
98950,95146
98954,95076
98985,95150
99007,95124
99028,95182
99026,95143
99056,95110
99070,95168
99049,95148
99108,95183
99052,95167
99061,95147
99020,95150
98921,95107
98891,95050
98769,95028
98569,94939
98462,94897
98296,94839
98200,94754
98086,94740
97906,94652
97854,94637
97752,94592
97647,94585
97567,94507
97518,94524
97462,94453
97423,94456
97350,94426
97337,94417
97222,94391
97224,94372
97204,94379
97159,94373
97138,94332
97067,94327
97105,94334
97120,94328
97068,94311
97079,94328
97063,94306
97061,94301
97137,94369
97088,94317
97133,94331
97076,94343
97101,94342
97150,94342
97202,94392
97129,94393
97151,94341
97187,94396
97214,94387
97255,94404
97217,94437
97227,94381
97232,94412
97276,94453
97246,94423
97272,94440
97244,94382
97290,94472
97288,94439
97281,94437
97284,94449
97265,94413
97258,94447
97305,94453
97275,94431
97324,94481
97247,94372
97297,94455
97334,94464
97296,94433
97324,94467
97325,94399
97353,94453
97340,94466
97384,94481
97420,94507
97402,94444
97428,94493
97468,94488
97462,94517
97418,94505
97443,94497
97448,94501
97436,94511
97443,94516
97461,94517
97450,94438
97447,94529
97440,94507
97451,94531
97427,94484
97404,94498
97429,94470
97484,94533
97474,94494
97430,94482
97392,94492
97437,94480
97479,94525
97409,94472
97431,94492
97447,94451
97425,94499
97475,94498
97437,94459
97472,94509
97427,94453
97483,94488
97479,94510
97474,94490
97454,94487
97476,94501
97486,94552
97519,94534
97535,94508
97485,94521
97507,94538
97530,94528
97597,94569
97580,94553
97598,94554
97576,94563
97590,94585
97640,94592
97636,94589
97610,94573
97671,94551
97703,94616
97689,94602
97750,94626
97728,94627
97740,94620
97751,94631
97792,94650
97794,94642
97849,94638
97807,94635
97865,94680
97909,94694
97905,94673
97915,94718
97908,94650
97930,94725
97934,94719
98001,94736
97947,94725
97995,94710
97990,94753
98068,94758
98054,94741
98055,94720
98104,94738
98076,94792
98142,94775
98142,94775
98132,94778
98140,94741
98122,94770
98192,94825
98177,94788
98182,94818
98164,94754
98198,94803
98221,94843
98217,94807
98252,94805
98235,94807
98267,94841
98289,94840
98278,94859
98235,94803
98258,94810
98290,94871
98278,94840
98274,94815
98313,94870
98246,94806
98312,94848
98317,94868
98297,94822
98331,94850
98274,94785
98343,94862
98389,94883
98395,94866
98356,94884
98370,94847
98438,94909
98434,94871
98463,94911
98448,94905
98438,94895
98460,94900
98449,94900
98500,94904
98451,94930
98437,94877
98481,94923
98526,94940
98484,94931
98485,94885
98469,94913
98510,94918
98572,94956
98519,94923
98560,94963
98512,94908
98596,94955
98602,94941
98638,94964
98622,94962
98643,94964
98675,94980
98703,95026
98702,94998
98680,94995
98694,94982
98749,95010
98715,95024
98738,95010
98732,95023
98713,95019
98783,95019
98793,95038
98806,95031
98813,95073
98787,95030
98873,95061
98874,95039
98913,95084
98876,95066
98908,95064
98939,95105
98940,95100
98978,95096
98996,95105
98975,95107
99010,95106
99023,95123
99031,95119
99035,95132
99027,95119
99041,95150
99074,95166
99049,95124
99088,95161
99045,95142
99077,95158
99106,95182
99088,95170
99115,95173
99114,95151
99118,95167
99174,95197
99144,95176
99181,95192
99180,95182
99244,95213
99273,95239
99250,95211
99278,95230
99271,95222
99341,95280
99351,95246
99348,95240
99336,95225
99355,95243
99354,95268
99374,95262
99317,95226
99283,95193
99121,95138
98991,95071
98878,95067
98710,94964
98560,94851
98385,94799
98220,94785
98139,94742
97983,94673
97883,94595
97801,94542
97732,94539
97673,94537
97565,94487
97504,94450
97426,94429
97421,94435
97374,94389
97323,94361
97278,94372
97239,94339
97247,94367
97257,94368
97210,94361
97173,94329
97173,94333
97186,94320
97169,94339
97177,94334
97195,94356
97151,94343
97249,94323
97245,94390
97273,94389
97267,94397
97237,94373
97332,94408
97338,94386
97344,94389
97356,94396
97318,94412
97372,94447
97386,94440
97426,94443
97409,94452
97405,94462
97455,94473
97427,94476
97433,94460
97412,94435
97436,94467
97454,94478
97445,94466
97429,94482
97416,94467
97422,94453
97460,94468
97443,94497
97433,94458
97435,94493
97447,94460
97464,94467
97509,94498
97491,94459
97506,94482
97502,94494
97572,94525
97551,94509
97575,94521
97556,94514
97573,94513
97617,94531
97616,94552
97626,94529
97610,94524
97570,94524
97595,94540
97619,94534
97606,94515
97599,94531
97592,94526
97593,94524
97599,94534
97583,94540
97570,94523
97561,94508
97606,94557
97578,94545
97542,94538
97546,94499
97569,94493
97541,94548
97556,94521
97565,94524
97583,94505
97524,94538
97565,94518
97551,94537
97572,94514
97559,94525
97531,94510
97601,94516
97581,94536
97585,94529
97602,94535
97577,94552
97604,94528
97624,94559
97640,94568
97635,94514
97612,94551
97659,94610
97691,94600
97697,94583
97688,94571
97706,94592
97729,94593
97768,94609
97756,94609
97738,94583
97756,94593
97826,94678
97855,94648
97825,94643
97886,94627
97892,94677
97914,94631
97930,94713
97963,94693
97950,94682
98007,94714
97988,94723
98033,94724
98038,94748
98045,94717
98089,94749
98099,94737
98105,94761
98128,94770
98081,94749
98117,94775
98132,94755
98154,94785
98154,94770
98154,94780
98148,94765
98185,94794
98207,94817
98221,94825
98226,94776
98233,94849
98254,94793
98287,94832
98300,94840
98249,94793
98299,94826
98273,94860
98290,94849
98293,94842
98281,94788
98304,94857
98285,94816
98310,94853
98307,94825
98260,94828
98299,94847
98291,94836
98303,94846
98310,94872
98272,94846
98269,94871
98355,94843
98346,94877
98296,94872
98328,94843
98324,94878
98320,94890
98311,94856
98360,94892
98321,94827
98370,94851
98381,94872
98408,94906
98368,94877
98371,94865
98398,94909
98448,94880
98454,94924
98451,94918
98394,94880
98453,94906
98479,94925
98475,94924
98469,94928
98440,94892
98512,94946
98533,94933
98527,94938
98526,94929
98512,94921
98549,94944
98587,94957
98623,94972
98590,94963
98601,94953
98601,94972
98676,95009
98656,94989
98637,94980
98658,94956
98673,95005
98716,95037
98739,95025
98698,95004
98703,94993
98754,95019
98748,95027
98783,95046
98784,95036
98764,95029
98802,95035
98851,95062
98851,95076
98849,95079
98848,95051
98909,95084
98911,95104
98951,95105
98916,95093
98916,95074
98948,95105
98988,95147
99027,95141
99000,95112
99002,95099
99035,95123
99108,95167
99081,95165
99104,95159
99055,95137
99121,95155
99135,95184
99159,95151
99155,95177
99133,95172
99146,95182
99140,95195
99078,95149
98981,95084
98823,95014
98728,94973
98587,94914
98437,94867
98312,94803
98166,94721
98049,94712
97975,94672
97856,94614
97770,94582
97649,94516
97631,94525
97597,94507
97523,94492
97446,94452
97377,94427
97390,94439
97351,94438
97310,94403
97248,94362
97219,94353
97226,94371
97244,94372
97216,94332
97185,94360
97155,94332
97217,94362
97221,94366
97220,94363
97234,94362
97224,94359
97242,94379
97251,94389
97299,94384
97318,94378
97294,94389
97341,94413
97356,94429
97345,94414
97391,94432
97365,94431
97404,94454
97435,94436
97433,94469
97422,94459
97395,94445
97433,94474
97449,94488
97451,94462
97412,94480
97411,94436
97430,94482
97448,94500
97437,94487
97427,94483
97401,94463
97414,94479
97465,94500
97448,94472
97438,94485
97446,94465
97448,94505
97500,94521
97473,94514
97505,94493
97500,94476
97534,94531
97572,94532
97552,94532
97553,94532
97543,94487
97551,94511
97540,94537
97546,94529
97528,94514
97516,94474
97541,94517
97541,94545
97565,94535
97519,94508
97515,94482
97507,94502
97537,94504
97528,94486
97518,94518
97500,94470
97517,94519
97557,94508
97521,94514
97538,94487
97505,94467
97530,94494
97544,94514
97542,94502
97538,94491
97512,94486
97573,94504
97577,94526
97589,94517
97596,94532
97576,94513
97592,94530
97632,94551
97631,94522
97660,94527
97624,94526
97711,94569
97713,94581
97707,94578
97718,94573
97705,94590
97788,94581
97781,94635
97773,94593
97794,94628
97789,94594
97836,94639
97855,94644
97815,94634
97855,94638
97825,94620
97904,94679
97927,94680
97911,94666
97933,94686
97922,94669
97978,94705
97969,94704
97996,94704
97976,94712
97995,94705
98047,94710
98055,94756
98043,94739
98075,94740
98058,94717
98106,94764
98143,94758
98149,94793
98153,94753
98117,94746
98184,94784
98195,94811
98211,94787
98238,94815
98212,94806
98263,94819
98293,94832
98274,94827
98327,94822
98273,94832
98365,94856
98370,94870
98379,94825
98390,94853
98417,94857
98449,94883
98458,94871
98444,94890
98475,94891
98455,94885
98531,94928
98554,94925
98526,94898
98548,94919
98535,94940
98595,94948
98599,94974
98579,94930
98633,94951
98609,94938
98679,94940
98688,94978
98667,94955
98677,94951
98693,94962
98687,94972
98705,95002
98717,94994
98699,94954
98718,94971
98708,94969
98713,95022
98719,95002
98714,95001
98715,94954
98720,95034
98709,95024
98688,94976
98702,94993
98725,94985
98702,95005
98739,95034
98738,94970
98701,95013
98744,94977
98784,95010
98775,95034
98821,94971
98775,95029
98792,95017
98874,95027
98898,95083
98846,95047
98891,95068
98842,95041
98914,95067
98953,95114
98920,95058
98944,95080
98908,95071
98966,95113
98988,95086
98965,95095
98959,95091
98923,95104
99011,95109
99023,95118
98997,95114
98992,95088
99014,95117
99097,95120
99075,95147
99040,95138
99087,95119
99070,95153
99135,95155
99136,95148
99127,95151
99126,95173
99125,95123
99203,95215
99210,95172
99184,95169
99199,95190
99230,95184
99227,95206
99240,95208
99273,95217
99272,95188
99287,95193
99299,95204
99327,95218
99284,95228
99270,95215
99291,95182
99259,95250
99267,95227
99278,95214
99160,95173
99111,95123
99018,95062
98909,95022
98721,94984
98537,94876
98423,94801
98268,94760
98134,94727
98011,94654
97918,94617
97762,94595
97761,94560
97644,94543
97532,94494
97488,94439
97384,94400
97387,94412
97321,94371
97273,94357
97201,94330
97219,94334
97207,94326
97164,94366
97134,94284
97107,94278
97056,94276
97123,94318
97072,94306
97116,94299
97075,94276
97086,94279
97070,94304
97150,94292
97117,94344
97109,94308
97118,94304
97174,94326
97164,94348
97200,94352
97164,94319
97228,94317
97203,94368
97212,94377
97223,94341
97234,94348
97237,94422
97309,94379
97299,94420
97283,94374
97300,94387
97238,94395
97305,94438
97298,94418
97288,94377
97262,94396
97258,94374
97296,94435
97309,94424
97319,94396
97296,94404
97321,94415
97362,94417
97335,94446
97347,94420
97305,94408
97358,94426
97386,94451
97449,94452
97375,94486
97366,94444
97419,94475
97408,94462
97452,94462
97401,94484
97423,94453
97447,94469
97422,94462
97487,94456
97455,94449
97455,94451
97414,94442
97486,94468
97461,94496
97438,94448
97399,94433
97448,94469
97487,94451
97436,94461
97463,94478
97433,94463
97460,94480
97435,94493
97440,94464
97463,94463
97433,94447
97426,94447
97461,94483
97434,94469
97482,94467
97475,94456
97459,94471
97506,94477
97484,94464
97538,94518
97489,94467
97543,94500
97510,94486
97589,94521
97562,94504
97544,94509
97617,94539
97607,94565
97660,94545
97614,94559
97659,94539
97687,94553
97722,94598
97702,94598
97761,94579
97741,94560
97749,94586
97802,94643
97773,94603
97852,94653
97813,94603
97853,94628
97895,94638
97900,94686
97939,94623
97915,94661
97943,94677
97989,94707
97939,94670
97999,94720
97983,94691
97969,94686
98044,94733
98029,94725
98029,94713
98058,94697
98055,94752
98139,94752
98132,94770
98106,94738
98128,94718
98212,94741
98201,94813
98199,94773
98239,94815
98244,94780
98251,94821
98299,94817
98331,94838
98298,94789
98320,94824
98348,94836
98396,94869
98345,94850
98362,94874
98312,94807
98370,94844
98377,94873
98387,94865
98411,94872
98375,94837
98394,94839
98442,94857
98423,94896
98449,94857
98406,94868
98449,94893
98501,94923
98459,94907
98521,94936
98496,94894
98525,94908
98571,94922
98541,94901
98585,94930
98559,94919
98625,94955
98638,94966
98621,94955
98678,94972
98617,94958
98674,94960
98685,94980
98727,94977
98695,94984
98699,94975
98743,94981
98748,95021
98781,94986
98767,95033
98791,94983
98840,95052
98830,95052
98888,95040
98870,95033
98907,95065
98898,95081
98979,95065
98985,95107
98988,95098
98979,95070
99066,95096
99079,95130
99057,95146
99124,95154
99101,95114
99096,95138
99185,95177
99168,95141
99205,95194
99212,95156
99255,95205
99299,95196
99310,95252
99318,95194
99323,95212
99374,95259
99423,95230
99408,95285
99452,95273
99426,95244
99488,95283
99536,95309
99539,95285
99512,95326
99542,95284
99590,95312
99645,95350
99619,95350
99659,95360
99659,95345
99728,95346
99750,95390
99803,95385
99788,95384
99801,95389
99877,95444
99888,95451
99941,95417
99930,95469
99955,95455
100027,95518
100053,95526
100069,95504
100076,95497
100064,95502
100097,95538
100110,95546
100074,95488
100014,95471
99925,95403
99864,95402
99731,95355
99578,95280
99386,95178
99174,95072
99025,95026
98872,94951
98684,94863
98485,94813
98329,94732
98254,94698
98119,94655
98030,94622
97984,94586
97881,94534
97867,94558
97833,94569
97752,94505
97688,94503
97684,94458
97683,94472
97665,94510
97667,94426
97617,94440
97621,94437
97613,94450
97687,94479
97636,94492
97677,94485
97649,94463
97697,94494
97735,94506
97753,94537
97792,94537
97752,94538
97836,94568
97865,94567
97853,94583
97874,94592
97882,94588
97922,94600
97993,94649
97959,94657
97982,94648
97964,94601
98015,94680
98042,94659
98065,94687
98062,94675
98015,94660
98104,94674
98089,94703
98077,94651
98092,94683
98079,94681
98149,94712
98136,94710
98145,94733
98161,94703
98139,94694
98207,94743
98209,94777
98225,94769
98244,94767
98251,94739
98287,94801
98361,94806
98407,94833
98422,94822
98369,94827
98477,94878
98464,94880
98493,94841
98484,94845
98452,94848
98546,94881
98495,94907
98498,94839
98492,94835
98448,94853
98494,94900
98486,94861
98509,94893
98509,94866
98470,94828
98521,94875
98507,94873
98515,94858
98511,94843
98447,94841
98478,94834
98541,94891
98536,94867
98505,94858
98480,94820
98498,94871
98508,94857
98489,94884
98465,94858
98501,94848
98488,94872
98575,94874
98503,94828
98513,94849
98511,94878
98592,94892
98594,94933
98602,94863
98641,94862
98608,94906
98691,94960
98705,94932
98728,94984
98741,94940
98732,94942
98777,94986
98817,94978
98797,94986
98809,94966
98861,94984
98857,95039
98887,94994
98924,95013
98912,95029
98875,95018
98991,95065
98968,95081
99003,95069
98988,95072
99023,95053
99021,95086
99110,95099
99110,95093
99100,95108
99112,95078
99206,95116
99201,95129
99187,95180
99207,95150
99227,95127
99270,95159
99288,95195
99305,95157
99299,95179
99284,95129
99339,95223
99355,95214
99299,95227
99299,95182
99355,95180
99369,95240
99366,95203
99410,95247
99373,95227
99418,95198
99449,95264
99425,95235
99437,95259
99402,95239
99472,95265
99463,95259
99469,95240
99515,95278
99494,95249
99505,95244
99512,95295
99532,95264
99538,95314
99510,95281
99568,95288
99583,95282
99587,95307
99566,95265
99620,95299
99544,95297
99606,95304
99596,95305
99653,95352
99600,95316
99614,95317
99658,95312
99659,95371
99658,95313
99685,95339
99656,95316
99707,95370
99742,95380
99712,95368
99674,95333
99747,95391
99772,95387
99782,95389
99753,95363
99766,95341
99736,95354
99768,95392
99815,95419
99769,95341
99807,95366
99792,95402
99813,95413
99848,95403
99805,95401
99835,95364
99808,95433
99884,95435
99841,95411
99839,95411
99866,95435
99853,95409
99860,95431
99924,95437
99917,95421
99909,95413
99881,95421
99957,95452
99962,95479
99977,95442
99941,95442
99976,95473
100022,95502
100037,95454
99996,95506
100008,95491
100066,95501
100062,95501
100094,95511
100084,95493
100105,95509
100067,95517
100150,95551
100134,95544
100164,95563
100125,95505
100122,95527
100116,95550
100102,95505
100093,95532
99964,95439
99889,95397
99829,95338
99672,95306
99493,95250
99288,95140
99145,95082
99001,95003
98857,94962
98668,94866
98508,94792
98375,94781
98287,94702
98190,94723
98128,94637
98027,94641
97990,94632
97951,94590
97940,94562
97869,94568
97829,94544
97826,94571
97785,94520
97801,94555
97787,94501
97741,94521
97740,94548
97757,94530
97797,94545
97776,94508
97789,94512
97808,94524
97855,94591
97837,94562
97847,94593
97869,94573
97926,94598
97935,94644
97947,94595
98005,94620
97977,94627
98018,94673
98047,94650
98104,94661
98071,94657
98095,94674
98120,94683
98134,94737
98179,94695
98181,94720
98170,94684
98203,94736
98209,94754
98238,94740
98211,94740
98217,94735
98275,94779
98257,94746
98243,94789
98305,94782
98259,94750
98340,94819
98331,94818
98406,94795
98391,94822
98414,94823
98487,94854
98488,94895
