11111,11111
0,0
81655,79038
104200,94113
104308,94166
104442,94223
104482,94203
104375,94196
104244,94105
104361,94149
104536,94181
104478,94184
104463,94164
104300,94151
104384,94177
104566,94221
104538,94182
104506,94198
104385,94185
104478,94188
104617,94268
104594,94240
104585,94197
104431,94153
104541,94210
104713,94280
104657,94245
104654,94234
104489,94205
104607,94242
104758,94302
104724,94310
104682,94264
104554,94199
104678,94233
104834,94322
104779,94264
104768,94315
104579,94239
104766,94301
104877,94350
104878,94312
104825,94345
104611,94227
104815,94311
104937,94336
104936,94352
104871,94356
104671,94233
104854,94359
104944,94353
104959,94347
104877,94349
104732,94305
104860,94375
104980,94361
105005,94374
104921,94345
104775,94304
104914,94376
105068,94380
104999,94424
104958,94372
104795,94305
104982,94407
105079,94421
105020,94415
105017,94363
104820,94354
105049,94416
105087,94445
105117,94419
105037,94408
104919,94305
105077,94419
105169,94449
105162,94449
105106,94402
104963,94368
105078,94451
105148,94446
105194,94433
105075,94439
104938,94336
105081,94452
105117,94430
105071,94386
104988,94339
104821,94270
104867,94352
104885,94294
104740,94287
104569,94216
104337,94119
104418,94169
104374,94107
104174,94054
103993,93944
103816,93877
103924,93940
103951,93899
103733,93853
103626,93802
103397,93758
103539,93748
103589,93799
103454,93732
103322,93717
103164,93627
103327,93709
103363,93723
103272,93644
103176,93623
103033,93578
103218,93674
103207,93664
103174,93633
103074,93606
102958,93595
103117,93638
103153,93637
103079,93624
102988,93579
102839,93510
103018,93603
103101,93620
102982,93565
103154,93645
103194,93674
103039,93602
103167,93666
103213,93635
103072,93592
103186,93661
103347,93687
103311,93698
103496,93777
103440,93712
103291,93678
103393,93712
103512,93807
103526,93752
103515,93790
103325,93710
103452,93793
103566,93807
103621,93805
103545,93784
103443,93729
103536,93783
103641,93847
103684,93827
103639,93803
103497,93759
103561,93798
103712,93877
103700,93888
103712,93793
103543,93798
103625,93797
103784,93876
103792,93871
103738,93860
103564,93788
103730,93864
103865,93924
103830,93875
103807,93872
103669,93816
103772,93882
103918,93923
103922,93920
103816,93906
103702,93856
103859,93918
103942,93943
103963,93925
103902,93894
103771,93884
103911,93923
104059,93984
103987,93948
103986,93949
103777,93898
103997,93938
104145,94001
104114,94009
103985,93966
103845,93887
104034,94011
104168,94010
104142,93983
104082,93997
103901,93952
104095,93978
104232,94038
104145,94025
104132,94005
103957,93984
104163,94028
104268,94066
104235,94048
104198,93999
104047,93968
104192,94028
104334,94086
104282,94089
104263,94016
104084,93997
104265,94083
104367,94090
104355,94114
104306,94054
104163,94044
104315,94087
104460,94104
104422,94069
104357,94082
104230,94042
104395,94121
104485,94191
104473,94117
104384,94096
104238,94060
104464,94142
104545,94180
104504,94147
104427,94096
104339,94096
104514,94125
104630,94179
104559,94171
104462,94124
104385,94111
104562,94176
104673,94215
104578,94185
104538,94148
104403,94133
104600,94179
104683,94221
104637,94205
104511,94191
104435,94120
104637,94241
104752,94222
104653,94211
104608,94182
104471,94156
104701,94231
104744,94240
104713,94224
104637,94207
104556,94165
104701,94212
104828,94278
104741,94269
104669,94196
104557,94197
104799,94251
104831,94306
104818,94256
104713,94241
104608,94184
104800,94298
104852,94297
104772,94261
104698,94172
104583,94213
104700,94208
104727,94219
104616,94192
104414,94104
104312,94064
104395,94107
104410,94083
104212,94018
103998,93914
103876,93886
103931,93876
103941,93866
103751,93818
103504,93710
103404,93692
103517,93710
103485,93701
103311,93669
103149,93558
103090,93571
103222,93597
103251,93590
103100,93582
102946,93478
102915,93485
103038,93517
103081,93549
102983,93489
102822,93479
102776,93443
102942,93499
102993,93535
102858,93484
102692,93396
102680,93424
102802,93468
102908,93464
102819,93463
102648,93412
102599,93407
102803,93448
102837,93491
102709,93408
102587,93384
102573,93385
102701,93404
102776,93434
102664,93447
102543,93361
102499,93358
102718,93416
102715,93443
102631,93400
102541,93315
102493,93376
102679,93401
102695,93403
102629,93368
102471,93333
102494,93330
102611,93409
102669,93415
102597,93422
102477,93325
102524,93342
102607,93427
102705,93376
102603,93398
102493,93347
102541,93348
102696,93468
102700,93426
102640,93414
102481,93351
102590,93390
102769,93458
102778,93475
102755,93428
102562,93358
102635,93404
102782,93451
102803,93452
102766,93472
102602,93380
102688,93439
102863,93478
102836,93482
102805,93463
102646,93413
102676,93465
102875,93484
102896,93484
102791,93485
102614,93371
102736,93458
102840,93473
102889,93464
102805,93465
102650,93421
102701,93415
102860,93501
102848,93465
102806,93433
102683,93393
102708,93431
102874,93486
102875,93459
102794,93458
102654,93371
102720,93465
102890,93478
102858,93493
102832,93438
102678,93375
102732,93433
102882,93499
102894,93496
102849,93461
102685,93411
102774,93432
102903,93471
102897,93467
102877,93486
102675,93408
102842,93472
102914,93508
102957,93492
102906,93466
102731,93391
102839,93490
103006,93572
102982,93503
102932,93513
102739,93411
102882,93500
103067,93564
103025,93530
102958,93509
102842,93438
102968,93528
103114,93586
103098,93542
103034,93529
102874,93484
103032,93544
103200,93595
103157,93571
103100,93559
102947,93509
103163,93585
103248,93615
103217,93603
103196,93599
103045,93565
103227,93649
103351,93664
103354,93665
103281,93663
103131,93557
103320,93686
103466,93703
103398,93698
103384,93671
103238,93601
103424,93719
103563,93741
103489,93729
103516,93695
103363,93660
103511,93763
103656,93780
103637,93756
103595,93758
103429,93679
103618,93757
103731,93815
103727,93809
103707,93779
103544,93745
103732,93820
103822,93840
103824,93836
103737,93788
103628,93764
103799,93870
103901,93856
103868,93879
103822,93812
103713,93831
103871,93864
103947,93909
103975,93924
103866,93885
103738,93842
103978,93917
104057,93952
104004,93927
103924,93906
103824,93845
104027,93960
104128,93965
104063,93942
104014,93932
103862,93904
104061,93932
104146,93972
104127,93953
104024,93926
103952,93885
104132,93985
104219,94021
104202,93978
104064,93930
104008,93899
104156,94007
104284,94048
104249,94001
104159,93975
104067,93955
104253,94013
104314,94039
104309,94042
104211,93957
104106,93974
104285,94038
104385,94080
104332,94049
104235,93973
104180,93984
104366,94071
104418,94086
104358,94065
104277,94014
104230,94002
104396,94086
104474,94093
104403,94065
104323,94009
104251,94031
104416,94098
104508,94109
104480,94094
104334,94041
104303,94004
104470,94125
104549,94139
104486,94074
104359,94063
104306,94050
104567,94118
104625,94150
104548,94104
104414,94053
104385,94104
104614,94106
104664,94145
104574,94130
104459,94077
104450,94065
104609,94146
104695,94144
104651,94166
104475,94102
104479,94082
104704,94148
104761,94179
104729,94170
104546,94145
104541,94120
104755,94204
104796,94222
104762,94161
104597,94182
104593,94140
104807,94224
104842,94202
104699,94183
104591,94098
104597,94136
104699,94155
104718,94149
104598,94128
104399,94043
104353,94026
104400,94098
104327,94000
104200,93974
103947,93854
103862,93822
103876,93885
103836,93823
103715,93751
103509,93645
103413,93654
103444,93648
103461,93638
103339,93628
103094,93512
103104,93510
103181,93585
103206,93539
103080,93479
102916,93435
102924,93480
103080,93500
103067,93526
102959,93452
102785,93397
102833,93391
102932,93475
102932,93472
102851,93446
102709,93336
102740,93425
102882,93393
102891,93417
102775,93406
102622,93331
102678,93336
102822,93439
102808,93429
102734,93415
102528,93304
102628,93373
102792,93393
102814,93383
102698,93387
102497,93343
102618,93311
102763,93396
102788,93393
102684,93344
102540,93306
102603,93319
102725,93410
102768,93384
102681,93360
102515,93286
102604,93375
102756,93363
102762,93383
102696,93366
102533,93340
102587,93334
102788,93429
102753,93392
102717,93358
102592,93337
102677,93408
102847,93420
102829,93440
102823,93416
102622,93358
102739,93407
102899,93474
102881,93444
102893,93424
102696,93398
102786,93427
102945,93504
102937,93463
102927,93424
102751,93406
102842,93449
103005,93513
102979,93496
102924,93453
102784,93384
102909,93503
103054,93502
103034,93516
102957,93498
102768,93415
102904,93445
103065,93505
103006,93527
102949,93455
102776,93431
102904,93464
103080,93485
103025,93486
102966,93460
102738,93394
102916,93482
103100,93519
103010,93486
102946,93421
102793,93412
102915,93485
103045,93484
103012,93500
102949,93466
102789,93402
102960,93484
103060,93517
103036,93495
103021,93475
102843,93406
103030,93507
103119,93525
103070,93490
103037,93486
102862,93423
103038,93516
103149,93587
103133,93526
103056,93488
102942,93450
103092,93526
103168,93581
103154,93511
103134,93537
102967,93473
103102,93534
103213,93604
103193,93564
103138,93526
103037,93494
103183,93605
103301,93603
103275,93584
103227,93545
103088,93499
103252,93583
103431,93657
103377,93613
103261,93595
103194,93538
103346,93634
103491,93682
103401,93645
103351,93613
103267,93606
103461,93684
103500,93694
103504,93642
103441,93687
103347,93601
103544,93689
103639,93734
103576,93677
103494,93696
103390,93633
103574,93704
103690,93789
103622,93750
103589,93685
103426,93706
103642,93703
103749,93758
103678,93757
103607,93731
103493,93680
103759,93760
103825,93809
103752,93767
103696,93745
103593,93739
103811,93823
103855,93807
103817,93792
103780,93745
103695,93741
103839,93863
103929,93826
103917,93831
103782,93794
103739,93781
103964,93877
104005,93856
103973,93855
103848,93801
103828,93777
104000,93896
104073,93871
103998,93883
103905,93836
103838,93871
104063,93867
104091,93927
104037,93884
103920,93836
103876,93826
104093,93929
104128,93907
104115,93873
103971,93877
103945,93865
104147,93923
104202,93943
104153,93916
104011,93891
103997,93864
104179,93972
104221,93943
104193,93938
104016,93901
104037,93910
104240,93972
104299,93947
104235,93979
104072,93889
104109,93934
104274,94000
104325,94012
104251,93966
104128,93917
104089,93940
104309,94021
104369,94007
104327,93994
104181,93930
104150,93969
104327,93966
104422,94031
104344,94016
104202,93960
104227,93968
104382,94021
104462,94017
104384,94004
104283,93950
104263,93991
104449,94068
104502,94028
104417,94063
104308,93961
104276,94000
104507,94070
104536,94040
104468,94046
104363,93994
104384,94030
104580,94123
104564,94062
104505,94049
104400,94010
104409,94073
104611,94089
104562,94098
104520,94072
104349,94023
104412,94037
104591,94093
104508,94077
104475,94038
104270,93952
104259,93956
104419,94044
104282,93950
104160,93904
103867,93821
103888,93802
103954,93837
103845,93759
103673,93718
103428,93611
103438,93623
103445,93625
103355,93567
103241,93564
103005,93432
103045,93474
103132,93474
103064,93457
103014,93424
102769,93368
102854,93386
102959,93453
102900,93368
102835,93398
102652,93298
102729,93365
102825,93357
102804,93371
102738,93342
102523,93292
102636,93287
102717,93378
102680,93311
102652,93327
102419,93234
102525,93283
102682,93347
102615,93306
102580,93297
102388,93194
102469,93260
102600,93327
102553,93284
102503,93254
102352,93202
102413,93281
102569,93260
102534,93239
102426,93268
102245,93141
102444,93237
102506,93286
102489,93242
102434,93223
102206,93145
102396,93224
102494,93283
102467,93240
102403,93228
102234,93152
102377,93228
102493,93240
102433,93209
102403,93223
102224,93141
102399,93209
102518,93236
102507,93256
102419,93273
102232,93194
102458,93259
102563,93283
102555,93261
102477,93283
102318,93182
102518,93283
102612,93268
102574,93281
102525,93298
102349,93201
102582,93293
102673,93325
102638,93318
102552,93295
102406,93256
102568,93278
102689,93325
102661,93322
102613,93283
102450,93232
102613,93324
102715,93334
102633,93300
102617,93291
102442,93232
102620,93310
102720,93339
102681,93314
102578,93252
102460,93228
102612,93317
102721,93332
102678,93314
102585,93266
102447,93246
102654,93319
102710,93327
102689,93284
102565,93273
102450,93269
102634,93300
102726,93331
102659,93276
102593,93305
102494,93237
102639,93305
102765,93351
102677,93317
102634,93271
102481,93246
102715,93327
102786,93332
102743,93338
102647,93295
102542,93265
102712,93341
102830,93372
102752,93371
102670,93291
102540,93311
102764,93352
102857,93396
102800,93336
102690,93325
102616,93324
102821,93372
102909,93399
102859,93385
102742,93349
102654,93325
102876,93401
102937,93432
102900,93367
102817,93396
102747,93370
102911,93449
103007,93423
102988,93421
102852,93378
102798,93400
103009,93444
103059,93477
103011,93444
102948,93414
102887,93419
103053,93487
103114,93485
103067,93509
102992,93416
102969,93435
103135,93486
103186,93518
103108,93496
103052,93419
102999,93460
103188,93538
103258,93557
103213,93512
103077,93475
103060,93441
103277,93580
103337,93566
103246,93523
103146,93476
103115,93484
103300,93576
103390,93577
103306,93553
103201,93523
103136,93533
103376,93550
103399,93610
103347,93561
103207,93524
103222,93542
103402,93606
103452,93596
103401,93559
103248,93571
103232,93552
103472,93605
103460,93620
103452,93607
103289,93552
103296,93593
103490,93619
103501,93625
103478,93622
103329,93599
103319,93587
103537,93642
103536,93662
103517,93638
103417,93569
103383,93623
103554,93643
103625,93702
103526,93649
103453,93599
103399,93641
103633,93696
103618,93705
103566,93644
103476,93621
103463,93639
103681,93694
103709,93712
103602,93681
103549,93638
103539,93664
103736,93715
103722,93707
103715,93673
103542,93668
103596,93670
103798,93736
103773,93769
103768,93715
103601,93645
103690,93721
103848,93753
103830,93765
103794,93747
103680,93690
103705,93734
103914,93824
103918,93752
103843,93770
103725,93672
103786,93731
103955,93828
103935,93776
103924,93795
103758,93739
103859,93748
103998,93859
103966,93810
103957,93792
103771,93793
103882,93820
104083,93853
104044,93849
104011,93820
103843,93809
103939,93802
104113,93883
104131,93877
104072,93851
103891,93811
104014,93843
104161,93884
104170,93887
104141,93884
103947,93817
104084,93904
104233,93887
104224,93931
104226,93891
104011,93845
104104,93892
104317,93960
104254,93924
104248,93877
104070,93833
104192,93913
104327,93975
104271,93925
104243,93899
104035,93875
104115,93882
104249,93930
104206,93885
104077,93864
103859,93751
103914,93805
103958,93781
103875,93727
103709,93680
103440,93572
103475,93630
103492,93561
103354,93539
103240,93500
102955,93373
103041,93398
103089,93447
103019,93393
102874,93343
102689,93263
102765,93352
102882,93311
102781,93340
102680,93257
102469,93195
102632,93260
102715,93306
102641,93234
102528,93221
102375,93173
102540,93212
102611,93250
102553,93215
102493,93216
102269,93096
102439,93190
102550,93188
102488,93180
102391,93156
102186,93099
102386,93147
102443,93176
102401,93162
102285,93137
102138,93081
102291,93155
102415,93142
102312,93136
102296,93112
102096,93067
102294,93119
102305,93160
102262,93091
102249,93116
102049,93055
102241,93106
102320,93122
102248,93104
102167,93049
102076,93082
102236,93122
102257,93138
102225,93123
102168,93063
102078,93053
102196,93127
102282,93146
102237,93107
102175,93064
102040,93079
102225,93094
102353,93161
102271,93125
102224,93079
102108,93080
102287,93151
102387,93168
102312,93161
102221,93083
102164,93071
102360,93176
102456,93178
102389,93177
102287,93143
102189,93078
102398,93150
102466,93172
102451,93191
102307,93151
102197,93122
102432,93223
102498,93211
102440,93205
102332,93117
102210,93136
102405,93158
102487,93215
102445,93169
102368,93146
102208,93145
102413,93156
102466,93221
102447,93189
102332,93140
102247,93125
102374,93180
102482,93200
102394,93185
102319,93113
102233,93126
102410,93182
102494,93201
102429,93180
102330,93122
102268,93120
102423,93179
102453,93234
102410,93135
102339,93139
102258,93098
102390,93190
102507,93211
102456,93199
102308,93096
102274,93149
102437,93170
102527,93249
102434,93186
102356,93134
102284,93144
102481,93208
102545,93235
102477,93207
102319,93121
102340,93183
102512,93203
102553,93222
102510,93193
102411,93156
102335,93164
102528,93222
102628,93204
102536,93245
102384,93168
102354,93204
102600,93248
102641,93231
102570,93222
102407,93208
102428,93199
102573,93248
102684,93254
102615,93264
102462,93167
102448,93244
102643,93289
102706,93276
102680,93258
102489,93260
102533,93229
102700,93311
102757,93285
102712,93258
102560,93246
102561,93248
102680,93293
102782,93336
102698,93263
102585,93219
102579,93264
102762,93350
102842,93304
102753,93319
102605,93219
102622,93273
102784,93325
102809,93357
102758,93290
102640,93281
102631,93267
102805,93338
102824,93321
102775,93284
102664,93247
102701,93322
102826,93351
102854,93311
102815,93294
102644,93263
102680,93308
102862,93328
102867,93363
102806,93323
102674,93280
102696,93321
102929,93337
102877,93373
102840,93352
102663,93271
102769,93311
102941,93396
102926,93336
102882,93362
102711,93312
102821,93325
102946,93389
102988,93372
102854,93370
102734,93278
102798,93333
102948,93406
102987,93351
102904,93360
102710,93333
102799,93337
102997,93394
103003,93354
102922,93389
102768,93317
102849,93351
102978,93399
102996,93396
102963,93378
102760,93309
102890,93385
103051,93449
102998,93382
102972,93396
102839,93317
102925,93395
103078,93417
103046,93434
103045,93408
102876,93359
102966,93414
103106,93468
103101,93409
103051,93389
102876,93364
102972,93398
103149,93451
103112,93451
103080,93427
102923,93372
103033,93413
103158,93481
103164,93469
103077,93437
102925,93380
103064,93439
103227,93471
103165,93464
103168,93438
102953,93370
103106,93443
103257,93511
103209,93498
103174,93434
102972,93426
103113,93464
103303,93488
103262,93509
103159,93484
103030,93446
103206,93499
103337,93512
103328,93492
103253,93513
103058,93421
103268,93504
103362,93535
103355,93517
103329,93526
103118,93447
103281,93528
103439,93569
103372,93557
103324,93480
103165,93501
103295,93538
103449,93558
103357,93568
103308,93485
103135,93477
103251,93489
103324,93519
103216,93483
103157,93400
102878,93309
103018,93401
103006,93405
102954,93321
102839,93292
102640,93213
102718,93266
102728,93282
102654,93206
102552,93168
102340,93116
102448,93173
102516,93184
102418,93128
102320,93082
102111,93063
102249,93072
102343,93126
102202,93070
102089,93028
101988,92953
102133,93047
102151,93033
102107,93002
101924,92962
101848,92918
101979,92979
102038,92991
101978,92947
101856,92893
101698,92904
101887,92934
101984,92938
101900,92910
101773,92904
101625,92852
101797,92911
101846,92903
101810,92878
101646,92887
101551,92780
101723,92875
101759,92892
101728,92853
101587,92806
101438,92790
101635,92823
101691,92848
101641,92833
101512,92769
101381,92748
101608,92824
101618,92863
101582,92789
101487,92778
101389,92734
101558,92822
101585,92811
101541,92804
101455,92735
101382,92762
101503,92812
101606,92815
101514,92809
101439,92748
101397,92766
101563,92819
101642,92830
101566,92825
101505,92765
101406,92774
101604,92830
101659,92879
101603,92842
101513,92783
101445,92778
101648,92845
101719,92871
101659,92827
101522,92792
101483,92781
101661,92879
101736,92845
101625,92852
101500,92790
101505,92798
101648,92851
101716,92838
101638,92836
101476,92774
101476,92780
101621,92824
101735,92835
101629,92854
101445,92788
101453,92812
101608,92831
101698,92840
101646,92810
101441,92797
101460,92749
101627,92808
101687,92871
101617,92786
101474,92782
101444,92778
101597,92834
101658,92837
101625,92796
101472,92748
101444,92807
101607,92806
101657,92844
101604,92822
101477,92745
101469,92771
101592,92860
101680,92821
101594,92836
101431,92761
101492,92797
101630,92844
101672,92862
101607,92792
101470,92763
101479,92772
101658,92853
101693,92853
101620,92793
101488,92771
101492,92786
101669,92850
101733,92849
101621,92806
101533,92761
101523,92808
101716,92834
101765,92885
101692,92835
101477,92777
101534,92829
101764,92864
101752,92913
101741,92860
101534,92798
101635,92817
101817,92899
101774,92838
101755,92883
101519,92817
101677,92863
101801,92904
101828,92901
101767,92894
101598,92817
101705,92851
101874,92929
101872,92926
101791,92897
101657,92828
101722,92869
101909,92934
101919,92923
101887,92908
101649,92880
101758,92906
101923,92954
101941,92950
101860,92892
101719,92859
101808,92896
101968,92952
101971,92951
101874,92911
101753,92868
101843,92941
101973,92960
102017,92954
101951,92949
101769,92872
101913,92906
101994,93002
102049,92938
101964,92949
101795,92873
101922,92940
102046,92994
102037,92974
101987,92905
101809,92906
101952,92938
102076,93007
102068,92975
102005,92950
101825,92909
101953,92960
102136,93001
102097,92996
102020,92969
101877,92904
102011,92996
102122,93003
102088,92993
102054,92972
101850,92916
102059,92985
102168,93038
102158,93006
102068,93003
101877,92930
102067,92992
102224,93042
102142,93005
102128,92989
101910,92955
102107,92982
102249,93041
102203,93002
102148,93014
101962,92931
102157,93033
102248,93065
102278,93032
102203,93035
101988,92995
102158,92998
102304,93062
102301,93099
102219,93040
102069,92967
102254,93067
102315,93088
102330,93069
102281,93034
102107,93022
102238,93092
102368,93083
102358,93104
102295,93034
102136,93024
102282,93082
102409,93115
102403,93074
102351,93052
102146,93031
102332,93105
102472,93137
102418,93073
102360,93059
102196,93057
102396,93112
102481,93132
102471,93099
102387,93095
102225,93028
102464,93122
102576,93186
102533,93128
102414,93126
102313,93048
102532,93147
102604,93206
102576,93172
102451,93139
102362,93112
102536,93172
102642,93175
102612,93168
102523,93151
102336,93114
102578,93172
102691,93214
102587,93160
102490,93122
102341,93099
102531,93137
102574,93163
102535,93139
102342,93098
102188,93004
102339,93056
102397,93087
102291,93023
102096,93011
101942,92898
102079,93003
102133,92970
102010,92891
101859,92849
101699,92854
101836,92862
101884,92863
101789,92829
101636,92762
101474,92756
101618,92781
101683,92792
101528,92748
101429,92667
101338,92650
101435,92725
101473,92718
101420,92697
101271,92658
101172,92612
101307,92669
101361,92653
101290,92641
101109,92582
101077,92538
101174,92645
101244,92599
101177,92605
100985,92522
100961,92506
101075,92557
101129,92595
101071,92553
100927,92470
100881,92455
101000,92533
101060,92571
100983,92510
100821,92447
100757,92443
100971,92527
100979,92508
100904,92489
100756,92417
100717,92419
100917,92487
100921,92489
100855,92474
100685,92411
100655,92420
100852,92472
100900,92456
100831,92442
100658,92412
100603,92407
100838,92435
100877,92472
100857,92452
100666,92402
100668,92399
100869,92455
100922,92484
100861,92450
100722,92410
100724,92431
100905,92497
100996,92490
100932,92466
100783,92424
100784,92452
101007,92528
101000,92544
100973,92517
100881,92450
100840,92468
101008,92498
101052,92547
101032,92493
100841,92467
100864,92476
101036,92540
101089,92554
101011,92507
100895,92433
100916,92480
101053,92566
101122,92530
101065,92505
100866,92463
100902,92510
101052,92521
101100,92521
101032,92521
100911,92439
100910,92478
101141,92558
101125,92565
101072,92499
100916,92470
100931,92492
101148,92536
101109,92550
101076,92535
100872,92446
100992,92493
101180,92560
101149,92554
101095,92533
100907,92469
100975,92520
101144,92572
101145,92581
101078,92510
100947,92495
101000,92516
101163,92555
101146,92554
101113,92531
100952,92507
101009,92491
101195,92568
101198,92573
101133,92532
100983,92494
101040,92540
101233,92589
101253,92613
101189,92541
101021,92532
101127,92538
101264,92623
101265,92584
101243,92579
101086,92506
101165,92594
101324,92631
101303,92636
101301,92581
101113,92530
101243,92590
101372,92635
101348,92618
101343,92589
101135,92563
101264,92590
101434,92676
101385,92624
101369,92650
101151,92546
101344,92661
101465,92692
101489,92664
101437,92662
101198,92564
101390,92680
101532,92694
101475,92669
101403,92662
101285,92611
101408,92709
101536,92706
101530,92696
101464,92701
101282,92611
101465,92697
101602,92698
101590,92730
101473,92673
101327,92631
101512,92677
101643,92732
101580,92711
101573,92699
101382,92686
101578,92709
101663,92766
101637,92742
101612,92704
101396,92710
101649,92725
101753,92784
101675,92747
101631,92739
101488,92684
101631,92768
101792,92796
101740,92738
101688,92748
101512,92713
101701,92756
101839,92841
101767,92778
101723,92758
101532,92736
101745,92768
101849,92821
101803,92827
101776,92758
101612,92730
101793,92832
101882,92821
101822,92826
101776,92757
101695,92767
101836,92803
101950,92866
101885,92838
101781,92789
101699,92767
101916,92836
102026,92891
101982,92836
101883,92824
101753,92792
101922,92847
102053,92863
101978,92878
101939,92828
101799,92818
101992,92853
102132,92895
102006,92901
101969,92852
101860,92807
102028,92888
102178,92908
102050,92885
102003,92865
101879,92846
102100,92930
102164,92948
102120,92902
102041,92905
101908,92894
102173,92914
102264,92993
102170,92935
102084,92890
101967,92907
102220,92932
102299,92980
102243,92986
102137,92920
101992,92907
102267,92973
102338,93016
102271,92985
102161,92929
102109,92885
102296,93031
102313,92978
102318,93005
102214,92924
102125,92923
102360,93004
102348,93026
102377,92979
102273,92987
102210,92941
102401,93014
102477,93033
102412,93014
102304,93020
102267,92938
102443,93067
102553,93082
102441,93035
102353,92974
102286,93036
102499,93062
102630,93116
102519,93052
102386,93014
102323,93022
102571,93064
102647,93108
102559,93095
102435,93033
102395,93062
102583,93104
102601,93126
102560,93051
102378,93027
102307,93003
102517,93021
102511,93055
102378,92951
102169,92911
102069,92906
102209,92960
102223,92913
102079,92875
101862,92765
101838,92792
101991,92839
101950,92806
101812,92759
101640,92675
101566,92719
101730,92712
101734,92713
101671,92685
101449,92597
101400,92625
101573,92674
101558,92659
101469,92627
101304,92539
101272,92552
101446,92633
101374,92559
101351,92562
101176,92477
101114,92526
101301,92617
101267,92518
101246,92517
101033,92485
101028,92442
101205,92512
101155,92504
101114,92455
100946,92437
100931,92401
101067,92497
101087,92450
101031,92432
100852,92345
100851,92418
101021,92419
101004,92444
100983,92431
100767,92342
100830,92367
100946,92438
100960,92398
100915,92407
100701,92322
100788,92368
100945,92394
100947,92387
100865,92381
100704,92296
100744,92306
100938,92374
100934,92401
100839,92336
100691,92285
100761,92343
100931,92397
100940,92352
100859,92372
100656,92315
100781,92379
100984,92439
100904,92401
100893,92363
100758,92344
100798,92383
100988,92422
100986,92412
100969,92432
100819,92348
100864,92397
101090,92463
101036,92459
101002,92444
100833,92368
100955,92407
101110,92470
101104,92477
101093,92434
100905,92399
100985,92426
101132,92448
101162,92505
101078,92435
100946,92377
101004,92443
101136,92479
101164,92485
101096,92446
100937,92416
101016,92402
101222,92515
101170,92442
101094,92463
100921,92388
101067,92439
101240,92501
101150,92491
101133,92465
100930,92407
101071,92468
101272,92498
101185,92504
101148,92471
100961,92413
101124,92469
101252,92540
101236,92457
101173,92492
101009,92429
101149,92496
101306,92558
101257,92471
101201,92504
101040,92447
101216,92482
101341,92558
101327,92555
101244,92534
101023,92449
101272,92542
101400,92562
101341,92549
101290,92520
101096,92510
101275,92500
101412,92593
101394,92541
101304,92515
101148,92512
101315,92537
101462,92590
101391,92592
101348,92536
101209,92530
101405,92573
101510,92650
101480,92559
101430,92565
101254,92537
101450,92612
101544,92636
101522,92602
101511,92596
101311,92562
101500,92630
101652,92700
101577,92660
101552,92585
101395,92601
101557,92619
101706,92679
101641,92668
101586,92654
101427,92616
101607,92684
101710,92722
101695,92674
101625,92658
101469,92595
101685,92716
101781,92742
101783,92700
101626,92678
101538,92637
101768,92722
101874,92758
101787,92727
101729,92694
101598,92640
101823,92751
101882,92760
101858,92739
101718,92717
101675,92669
101816,92749
101937,92793
101894,92766
101766,92749
101686,92724
101901,92767
102024,92812
101970,92777
101818,92740
101734,92743
101955,92810
102044,92824
101989,92807
101897,92787
101794,92740
102007,92819
102108,92827
102024,92819
101947,92761
101853,92778
102072,92832
102160,92870
102077,92824
102025,92805
101910,92810
102111,92861
102220,92904
102126,92885
102042,92813
102006,92797
102157,92862
102283,92913
102203,92887
102103,92848
102062,92788
102209,92923
102311,92896
102304,92893
102138,92855
102138,92864
102308,92955
102428,92927
102319,92931
102180,92891
102194,92878
102410,92955
102506,93026
102429,92943
102293,92890
102237,92917
102505,92991
102567,93034
102469,92965
102337,92934
102376,92996
102529,93000
102610,93028
102566,93032
102433,92967
102425,92963
102616,93063
102667,93043
102666,93062
102482,93004
102478,92996
102662,93066
102784,93071
102670,93091
102518,93053
102542,93023
102730,93114
102791,93102
102737,93120
102584,93056
102577,93041
102799,93119
102833,93149
102808,93094
102653,93059
102651,93095
102824,93156
102898,93118
102850,93147
102717,93079
102707,93094
102927,93185
102950,93207
102900,93159
102782,93095
102781,93131
102952,93203
103013,93187
103009,93209
102839,93138
102845,93160
103001,93240
103089,93208
103009,93223
102881,93149
102937,93173
103076,93280
103133,93247
103043,93204
102906,93163
102936,93234
103083,93227
103169,93228
103042,93233
102818,93155
102863,93168
103035,93200
102921,93190
102822,93076
102560,92987
102530,93031
102664,93008
102518,92924
102367,92936
102115,92798
102132,92831
102252,92833
102207,92813
102033,92796
101801,92693
101858,92727
101968,92720
101988,92707
101807,92667
101608,92623
101647,92669
101794,92671
101792,92654
101649,92673
101409,92568
101491,92568
101674,92635
101644,92642
101525,92590
101325,92497
101401,92564
101546,92576
101547,92579
101406,92517
101223,92484
101307,92501
101454,92542
101415,92555
101340,92466
101184,92446
101237,92507
101389,92545
101345,92502
101279,92479
101079,92390
101202,92466
101302,92489
101283,92476
101266,92443
101043,92417
101108,92420
101281,92499
101239,92487
101187,92407
100989,92352
101059,92397
101225,92484
101178,92408
101124,92417
100953,92325
101036,92427
101176,92481
101164,92418
101069,92408
100897,92359
101076,92406
101212,92459
101138,92438
101113,92423
100929,92377
101076,92402
101221,92463
101246,92463
101114,92423
100986,92368
101130,92479
101311,92491
101239,92463
101210,92444
100997,92415
101203,92451
101370,92504
101287,92484
101217,92498
101027,92421
101240,92499
101353,92504
101381,92487
101271,92502
101088,92446
101243,92485
101408,92501
101323,92518
101276,92448
101122,92429
101305,92491
101417,92554
101323,92466
101307,92482
101078,92449
101272,92480
101384,92529
101350,92508
101293,92480
101118,92434
101294,92516
101393,92553
101348,92493
101287,92468
101126,92423
101334,92545
101416,92519
101309,92525
101313,92492
101161,92434
101346,92524
101420,92531
101422,92488
101308,92465
101202,92432
101369,92547
101437,92548
101441,92529
101298,92516
101174,92452
101435,92531
101502,92544
101408,92551
101346,92517
101214,92489
101427,92522
101521,92576
101517,92559
101377,92543
101265,92483
101481,92566
101574,92577
101528,92583
101425,92521
101328,92526
101507,92556
101641,92608
101587,92600
101493,92558
101347,92554
101571,92601
101667,92630
101669,92648
101559,92586
101428,92564
101622,92654
101738,92626
101736,92674
101629,92581
101512,92612
101733,92670
101856,92687
101743,92670
101698,92577
101588,92612
101774,92697
101850,92704
101852,92702
101718,92646
101660,92622
101850,92750
101925,92718
101903,92709
101776,92703
101734,92656
101908,92775
101996,92740
101967,92747
101856,92673
101793,92693
102002,92791
102080,92807
102057,92751
101917,92729
101855,92712
102078,92805
102118,92847
102102,92772
101945,92757
101942,92743
102114,92804
102210,92820
102133,92789
102015,92748
101997,92776
102156,92843
102265,92827
102219,92840
102043,92807
102028,92778
102235,92875
102332,92886
102203,92859
102107,92813
102055,92843
102285,92877
102349,92893
102296,92855
102128,92820
102111,92814
102354,92894
102428,92946
102328,92864
102173,92822
102177,92838
102409,92935
102426,92943
102387,92885
102235,92882
102204,92886
102393,92912
102461,92952
102416,92903
102291,92883
102251,92887
102441,92975
102492,92952
102491,92943
102363,92905
102316,92919
102544,92996
102575,92957
102529,92938
102395,92873
102364,92946
102555,92966
102645,92988
102541,92962
102430,92913
102440,92952
102592,92978
102684,93004
102601,93022
102490,92944
102496,92980
102674,93061
102722,93044
102654,93030
102500,92925
102554,92992
102743,93029
102795,93074
102695,93028
102584,92970
102590,93036
102778,93083
102824,93098
102766,93052
102625,93007
102654,93021
102871,93127
102901,93116
102811,93083
102643,93038
102749,93072
102910,93130
102976,93102
102902,93090
102698,93045
102826,93127
102979,93143
103043,93138
102952,93150
102807,93101
102838,93128
103076,93197
103091,93190
103024,93143
102850,93106
102949,93140
103120,93230
103138,93212
103101,93173
102931,93159
103020,93182
103165,93253
103200,93215
103178,93223
102961,93140
103036,93212
103215,93226
103201,93218
103073,93195
102909,93079
102960,93200
103046,93137
102974,93138
102825,93038
102579,92967
102599,92987
102625,93020
102510,92882
102360,92867
102104,92763
102140,92779
102245,92808
102131,92788
102022,92680
101799,92660
101887,92686
101977,92738
101929,92674
101802,92619
101601,92571
101707,92608
101838,92646
101758,92602
101693,92575
101458,92515
101595,92567
101691,92604
101647,92580
101566,92556
101352,92491
101497,92541
101633,92572
101567,92542
101467,92515
101269,92464
101455,92498
101550,92523
101505,92486
101436,92486
101228,92437
101389,92479
101546,92513
101407,92499
101383,92483
101151,92421
101336,92428
101425,92495
101382,92484
101333,92441
101132,92407
101298,92450
101421,92482
101381,92461
101279,92416
101132,92397
101234,92459
101377,92486
101335,92460
101290,92384
101120,92399
101259,92432
101337,92508
101314,92445
101261,92382
101084,92379
101277,92433
101398,92502
101348,92476
101315,92430
101184,92407
101337,92469
101453,92530
101400,92480
101391,92468
101228,92425
101444,92516
101538,92557
101457,92492
101424,92506
101286,92431
101465,92493
101614,92592
101537,92531
101455,92527
101298,92471
101533,92539
101635,92591
101551,92552
101476,92523
101346,92501
101543,92546
101686,92580
101576,92559
101474,92523
101328,92473
101562,92534
101654,92573
101569,92557
101474,92496
101333,92484
101526,92536
101670,92559
101584,92533
101437,92495
101377,92489
101524,92538
101663,92560
101571,92550
101453,92457
101392,92482
101538,92564
101619,92569
101597,92586
101509,92497
101371,92491
101588,92560
101685,92602
101604,92541
101508,92531
101429,92476
101649,92588
101670,92590
101664,92558
101552,92521
101508,92515
101674,92608
101735,92633
101710,92566
101599,92547
101509,92542
101696,92611
101800,92618
101725,92617
101605,92531
101564,92576
101763,92615
101872,92646
101785,92643
101644,92543
101652,92605
101846,92641
101921,92704
101834,92650
101715,92606
101712,92610
101882,92707
101961,92711
101936,92668
101736,92635
101765,92631
101972,92696
102046,92716
101945,92711
101815,92660
101797,92658
102032,92726
102102,92729
102033,92753
101899,92689
101889,92701
102088,92778
102137,92765
102129,92743
101920,92745
101942,92728
102177,92779
102228,92796
102193,92770
102071,92766
102020,92779
102239,92816
102326,92824
102225,92842
102109,92744
102152,92786
102288,92874
102407,92844
102303,92853
102191,92827
102163,92795
102388,92922
102421,92888
102381,92866
102296,92809
102258,92860
102442,92935
102494,92942
102449,92869
102317,92816
102340,92880
102482,92950
102586,92905
102474,92892
102366,92861
102397,92911
102552,92919
102598,92949
102566,92916
102422,92850
102461,92943
102646,93012
102667,93010
102597,92944
102475,92883
102505,92961
102713,92979
102699,93011
102616,92975
102492,92933
102577,92950
102747,93024
102735,92994
102674,92964
102529,92949
102605,92972
102799,93045
102808,93007
102744,93036
102554,92983
102670,93012
102863,93039
102848,93032
102783,93075
102654,92967
102764,93034
102911,93106
102928,93088
102850,93044
102713,93043
102781,93041
102984,93098
102995,93118
102915,93105
102770,93017
102872,93101
102991,93121
103024,93128
103002,93112
102788,93077
102913,93083
103065,93151
103083,93157
103050,93143
102880,93046
102970,93134
103149,93188
103110,93195
103074,93124
102925,93059
103028,93161
103206,93201
103173,93202
103122,93134
102968,93124
103118,93190
103229,93213
103258,93226
103180,93223
103015,93135
103170,93223
103294,93233
103302,93242
103263,93208
103050,93186
103204,93250
103374,93289
103324,93238
103279,93234
103096,93186
103260,93255
103414,93286
103319,93263
103226,93219
103016,93141
103141,93194
103224,93185
103079,93132
102967,93097
102690,92998
102793,93026
102852,93022
102651,92953
102508,92912
102189,92777
102269,92807
102356,92820
102234,92770
102145,92724
101859,92662
102009,92691
102083,92687
101967,92660
101895,92596
101684,92564
101774,92630
101916,92656
101836,92613
101764,92544
101536,92541
101662,92521
101761,92609
101699,92545
101617,92494
101462,92463
101565,92552
101695,92563
101615,92515
101535,92492
101337,92418
101531,92541
101615,92517
101567,92517
101462,92474
101280,92410
101418,92476
101512,92505
101465,92464
101426,92443
101210,92421
101421,92448
101478,92472
101462,92431
101325,92385
101229,92381
101330,92459
101470,92493
101406,92453
101276,92380
101173,92359
101317,92472
101466,92478
101397,92430
101303,92401
101146,92381
101341,92388
101424,92467
101383,92421
101262,92385
101187,92365
101331,92422
101478,92505
101406,92433
101333,92422
101189,92410
101427,92427
101503,92487
101478,92467
101342,92443
101279,92431
101481,92519
101621,92519
101522,92490
101417,92429
101336,92453
101514,92513
101627,92542
101579,92537
101467,92436
101380,92440
101514,92530
101658,92548
101586,92518
101496,92488
101372,92439
101587,92544
101682,92548
101593,92521
101521,92457
101406,92475
101614,92528
101686,92549
101617,92522
101496,92445
101396,92484
101589,92551
101679,92534
101556,92500
101500,92446
101423,92460
101599,92522
101675,92530
101589,92512
101484,92472
101394,92452
101625,92545
101686,92554
101626,92513
101493,92472
101410,92475
101692,92560
101723,92571
101654,92538
101519,92477
101471,92469
101686,92591
101756,92550
101713,92534
101535,92499
101525,92514
101710,92543
101835,92580
101717,92590
101579,92501
101575,92541
101750,92567
101880,92610
101762,92616
101608,92507
101625,92559
101796,92582
101869,92614
101831,92623
101677,92577
101670,92597
101878,92597
101928,92640
101894,92606
101713,92578
101712,92594
101930,92642
101946,92682
101899,92673
101793,92583
101753,92617
101974,92712
102039,92675
102002,92670
101850,92609
101829,92634
102028,92711
102091,92722
102035,92700
101910,92650
101929,92683
102091,92735
102159,92738
102091,92706
101975,92662
101985,92676
102128,92744
102230,92757
102153,92711
102011,92671
102055,92705
102234,92799
102304,92798
102194,92740
102043,92707
102070,92737
102315,92803
102332,92815
102253,92790
102115,92699
102160,92742
102353,92814
102384,92804
102282,92797
102129,92740
102223,92772
102399,92840
102395,92853
102341,92795
102163,92772
102247,92806
102427,92850
102473,92835
102355,92861
102186,92779
102263,92819
102477,92864
102483,92851
102415,92864
102224,92784
102374,92821
102498,92905
102550,92870
102472,92875
102324,92796
102413,92887
102544,92881
102600,92905
102529,92888
102368,92845
102438,92907
102627,92907
102644,92924
102572,92880
102404,92825
102480,92928
102689,92970
102693,92953
102618,92931
102479,92861
102537,92937
102728,92940
102733,92965
102683,92948
102497,92858
102626,92923
102760,93013
102722,92989
102744,92928
102555,92912
102649,92974
102858,93014
102841,93021
102720,92987
102562,92881
102742,92992
102886,93041
102847,93017
102825,93007
102580,92922
102790,92995
102936,93093
102868,93042
102883,93021
102662,92970
102804,93008
103019,93099
102964,93069
102904,93022
102747,92996
102875,93052
103069,93064
103039,93121
102949,93086
102762,93002
102987,93067
103148,93118
103123,93103
103015,93102
102858,93011
103082,93129
103228,93140
103136,93110
103135,93105
102908,93069
103151,93134
103272,93148
103241,93158
103146,93139
103018,93117
103163,93130
103333,93247
103237,93202
103229,93159
102993,93107
103174,93196
103274,93168
103205,93142
103066,93120
102862,93012
102937,93072
103019,93078
102850,93004
102746,92918
102434,92872
102515,92853
102530,92883
102415,92803
102276,92719
102022,92674
102114,92690
102153,92741
102103,92649
101982,92599
101747,92554
101880,92654
101985,92617
101890,92619
101771,92531
101610,92482
101774,92568
101814,92570
101762,92521
101628,92510
101445,92451
101637,92503
101707,92544
101628,92460
101530,92465
101379,92401
101549,92446
101644,92509
101574,92439
101396,92445
101300,92348
101495,92459
101590,92467
101458,92443
101394,92384
101212,92327
101413,92431
101517,92404
101428,92391
101322,92394
101164,92340
101384,92391
101428,92426
101342,92382
101253,92358
101125,92322
101305,92363
101360,92411
101310,92338
101229,92324
101102,92321
101274,92366
101367,92361
101322,92361
101175,92294
101099,92300
101306,92379
101333,92365
101293,92354
101226,92321
101099,92303
101304,92352
101398,92384
101352,92378
101232,92338
101147,92311
101361,92381
101426,92417
101426,92389
101276,92363
101249,92326
101399,92450
101468,92410
101471,92434
101326,92386
101269,92350
101482,92428
101508,92453
101493,92404
101308,92396
101302,92392
101476,92458
101541,92516
101497,92439
101309,92389
101319,92374
101516,92451
101559,92460
101517,92434
101306,92408
101305,92357
101560,92464
101564,92468
101514,92419
101376,92362
101337,92390
101508,92415
101596,92454
101513,92432
101323,92395
101312,92371
101564,92474
101612,92428
101536,92427
101328,92427
101308,92387
101573,92459
101641,92453
101519,92444
101393,92404
101380,92384
101515,92469
101613,92442
101600,92419
101383,92422
101406,92403
101584,92459
101672,92489
101583,92471
101481,92386
101449,92447
101659,92474
101709,92466
101626,92473
101497,92405
101502,92470
101669,92489
101727,92527
101686,92488
101518,92442
101564,92450
101702,92565
101812,92552
101707,92484
101604,92464
101592,92502
101739,92526
101849,92584
101752,92543
101594,92475
101636,92504
101870,92576
101885,92611
101803,92567
101692,92478
101727,92557
101933,92615
101934,92646
101857,92550
101711,92534
101765,92567
101980,92611
101972,92619
101926,92607
101793,92535
101824,92609
102026,92604
102029,92650
101966,92614
101840,92577
101889,92635
102069,92625
102131,92666
102034,92652
101850,92566
101946,92628
102149,92704
102191,92709
102040,92693
101885,92619
101999,92680
102156,92737
102178,92680
102149,92687
101954,92650
102053,92685
102204,92763
102213,92726
102179,92672
101980,92665
102075,92671
102258,92757
102281,92726
102220,92713
102032,92645
102182,92701
102279,92761
102311,92752
102257,92719
102117,92698
102175,92736
102324,92750
102374,92769
102308,92763
102137,92682
102257,92754
102376,92835
102367,92772
102356,92742
102164,92697
102277,92753
102426,92794
102431,92803
102362,92798
102215,92712
102324,92769
102462,92873
102430,92831
102398,92776
102249,92718
102386,92809
102537,92840
102510,92835
102424,92793
102279,92754
102391,92826
102603,92879
102565,92847
102485,92826
102299,92741
102506,92814
102611,92899
102600,92861
102531,92884
102372,92819
102536,92875
102674,92902
102655,92864
102583,92888
102376,92828
102587,92873
102723,92886
102671,92901
102639,92895
102422,92811
102621,92923
102745,92939
102707,92929
102699,92874
102474,92898
102659,92896
102826,92983
102800,92956
102765,92921
102552,92909
102693,92937
102898,93011
102874,93003
102772,92946
102646,92932
102776,92993
102931,93022
102879,92998
102824,92934
102668,92919
102856,92984
102975,93012
102940,93009
102910,92960
102708,92902
102896,93017
103034,93055
103002,93034
102917,92998
102790,92974
102956,93073
103075,93055
103091,93056
102975,93046
102845,93000
103021,93095
103153,93127
103122,93098
103073,93051
102910,93025
103098,93074
103246,93147
103143,93094
103046,93059
102890,93037
103046,93075
103162,93110
103006,93061
102879,92974
102691,92894
102839,92959
102805,92950
102698,92902
102487,92802
102274,92764
102383,92763
102402,92751
102272,92717
102100,92649
101891,92583
102076,92638
102133,92636
101996,92587
101860,92541
101700,92515
101853,92557
101931,92531
101811,92529
101689,92502
101538,92451
101681,92486
101777,92514
101692,92469
101558,92412
101414,92391
101591,92433
101659,92452
101571,92425
101480,92359
101344,92356
101460,92410
101562,92400
101498,92395
101343,92346
101286,92323
101413,92397
101513,92418
101409,92385
101302,92265
101196,92281
101367,92333
101449,92363
101383,92338
101252,92268
101112,92271
101324,92347
101382,92345
101309,92326
101147,92232
101113,92245
101308,92314
101338,92331
101247,92306
101123,92257
101097,92229
101262,92304
101337,92330
101238,92272
101086,92249
101075,92236
101272,92319
101354,92316
101227,92286
101153,92236
101105,92263
101291,92312
101381,92324
101284,92312
101129,92270
101135,92283
101357,92319
101438,92345
101358,92325
101189,92306
101195,92293
101428,92376
101482,92372
101402,92351
101254,92304
101256,92316
101456,92413
101559,92399
101459,92372
101323,92333
101268,92334
101480,92405
101517,92391
101489,92402
101343,92326
101308,92353
101464,92416
101534,92384
101502,92379
101331,92333
101326,92323
101488,92419
101565,92386
101449,92367
101341,92319
101314,92352
101456,92395
101555,92416
101501,92394
101317,92301
101309,92342
101530,92415
101542,92378
101508,92393
101308,92284
101342,92328
101532,92438
101576,92371
101485,92362
101361,92327
101395,92362
101575,92412
101589,92439
101519,92402
101383,92322
101433,92348
101574,92455
101608,92453
101538,92423
101380,92348
101431,92371
101587,92429
101674,92433
101598,92432
101386,92330
101488,92415
101663,92469
101658,92486
101617,92406
101442,92408
101529,92433
101696,92474
101769,92465
101663,92464
101475,92368
101598,92435
101740,92515
101789,92462
101673,92457
101536,92453
101639,92479
101793,92511
101820,92507
101772,92495
101577,92463
101700,92509
101907,92569
101854,92553
101787,92519
101659,92463
101760,92532
101909,92582
101864,92530
101892,92531
101673,92490
101776,92547
101979,92564
101969,92563
101914,92580
101748,92441
101861,92576
101979,92602
102025,92616
101919,92594
101810,92512
101902,92568
102040,92656
102077,92614
102029,92580
101835,92561
101950,92599
102087,92653
102137,92647
102047,92604
101864,92564
102017,92612
102130,92654
102156,92673
102079,92634
101900,92548
102043,92623
102214,92673
102195,92672
102138,92637
101924,92564
102091,92663
102268,92687
102214,92687
102168,92650
101969,92602
102168,92688
102321,92718
102253,92712
102185,92663
102006,92631
102205,92691
102350,92707
102302,92718
102256,92695
102034,92654
102234,92696
102396,92727
102372,92733
102278,92712
102084,92646
102281,92740
102439,92765
102380,92743
102349,92718
102163,92681
102308,92739
102475,92771
102419,92764
102407,92732
102187,92683
102397,92734
102502,92770
102488,92771
102444,92750
102280,92732
102450,92791
102569,92839
102541,92807
102487,92767
102344,92750
102504,92816
102621,92853
102591,92845
102564,92792
102405,92780
102539,92845
102711,92883
102672,92844
102584,92821
102463,92782
102620,92864
102764,92909
102699,92866
102642,92852
102505,92784
102708,92919
102849,92953
102737,92898
102681,92886
102557,92834
102764,92934
102842,92952
102805,92919
102742,92901
102607,92835
102827,92941
102922,92945
102871,92943
102748,92887
102671,92873
102877,92950
103011,92997
102945,92981
102812,92940
102728,92917
102952,92980
103038,93011
103010,93008
102880,92956
102806,92951
103014,93011
103121,93041
103088,93040
102986,92998
102864,92982
103075,93040
103210,93097
103144,93083
103057,93038
102948,93023
103153,93071
103256,93129
103211,93077
103095,93029
102982,93011
103173,93087
103274,93122
103192,93071
103068,93020
102954,93017
103078,93046
103099,93024
102986,92977
102824,92891
102661,92845
102737,92912
102738,92863
102520,92787
102334,92701
102187,92636
102293,92699
102290,92668
102172,92593
101997,92575
101868,92514
102026,92570
102026,92608
101903,92519
101770,92468
101700,92416
101828,92491
101858,92500
101796,92455
101577,92405
101538,92371
101702,92450
101755,92454
101645,92446
101492,92312
101394,92343
101620,92393
101606,92396
101554,92362
101353,92335
101337,92324
101512,92351
101552,92380
101429,92349
101257,92291
101272,92285
101422,92342
101529,92379
101400,92321
101235,92223
101236,92276
101390,92315
101438,92307
101371,92281
101180,92262
101179,92230
101380,92323
101379,92299
101304,92249
101174,92242
101145,92244
101335,92279
101394,92287
101304,92285
101143,92178
101117,92233
101287,92281
101314,92326
101272,92256
101128,92247
101145,92238
101292,92286
101346,92318
101270,92266
101188,92228
101182,92249
101342,92320
101374,92334
101347,92283
101220,92268
101222,92262
101431,92347
101433,92331
101386,92279
101258,92308
101295,92314
101448,92332
101506,92397
101410,92330
101313,92273
101335,92295
101513,92383
101568,92384
101452,92356
101281,92238
101336,92313
101519,92371
101550,92379
101477,92315
101272,92305
101319,92320
101554,92379
101525,92370
101461,92355
101293,92289
101368,92319
101546,92369
101525,92363
101430,92346
101290,92275
101360,92327
101547,92388
101550,92350
101480,92359
101282,92296
101337,92310
101541,92375
101565,92355
101467,92341
101271,92274
101364,92315
101561,92395
101550,92357
101480,92348
101311,92309
101427,92351
101555,92377
101579,92367
101512,92363
101339,92314
101444,92352
101583,92408
101586,92394
101554,92368
101388,92307
101510,92354
101614,92412
101618,92384
101573,92367
101431,92341
101531,92376
101660,92441
101674,92410
101650,92372
101437,92336
101603,92408
101733,92453
101735,92434
101685,92419
101502,92359
101632,92417
101801,92465
101797,92457
101748,92461
101537,92385
101676,92441
101852,92530
101853,92490
101780,92476
101595,92420
101744,92473
101921,92543
101899,92512
101851,92499
101629,92438
101821,92501
102001,92565
101980,92525
101894,92505
101706,92458
101856,92510
102035,92574
102032,92568
101933,92526
101735,92487
101929,92540
102080,92592
102080,92568
101977,92563
101793,92498
101968,92557
102162,92601
102109,92589
102009,92582
101845,92524
102030,92583
102187,92641
102151,92599
102090,92604
101882,92536
102054,92612
102235,92658
102163,92634
102136,92613
101930,92567
102130,92629
102263,92667
102209,92653
102184,92620
101986,92568
102166,92663
102279,92699
102267,92674
102231,92652
102035,92612
102236,92682
102362,92718
102341,92696
102290,92629
102097,92610
102281,92703
102397,92753
102372,92727
102311,92670
102150,92625
102309,92701
102452,92743
102425,92730
102342,92655
102183,92644
102387,92737
102521,92772
102451,92725
102368,92702
102230,92652
102480,92749
102584,92804
102484,92754
102447,92752
102318,92711
102539,92779
102638,92821
102577,92779
102489,92781
102387,92733
102577,92801
102711,92836
102640,92798
102539,92806
102443,92758
102657,92826
102754,92863
102672,92841
102605,92832
102502,92796
102675,92861
102821,92886
102758,92859
102646,92825
102536,92825
102752,92896
102853,92898
102819,92897
102693,92853
102582,92848
102823,92899
102925,92955
102889,92926
102747,92879
102677,92880
102907,92941
102999,92974
102938,92926
102833,92905
102769,92907
102993,92977
103089,92993
103034,92966
102910,92913
102872,92955
103071,93026
103115,93031
103105,93025
103016,92966
102969,92971
103149,93067
103214,93077
103190,93078
103104,93004
103009,93011
103211,93074
103267,93104
103232,93077
103072,93015
103033,93024
103205,93069
103262,93092
103197,93044
102965,92951
102871,92941
102988,92982
102995,92959
102845,92905
102601,92794
102512,92767
102587,92774
102542,92745
102339,92682
102123,92590
102033,92560
102199,92621
102180,92588
102062,92556
101862,92482
101769,92466
101981,92503
101970,92499
101897,92436
101650,92385
101630,92432
101799,92435
101813,92427
101752,92410
101549,92364
101537,92355
101670,92399
101748,92420
101640,92378
101469,92343
101413,92309
101638,92383
101649,92416
101557,92357
101407,92299
101351,92309
101557,92369
101576,92391
101520,92335
101361,92245
101295,92304
101511,92349
101536,92323
101463,92313
101320,92272
101308,92256
101464,92347
101526,92342
101403,92316
101293,92210
101259,92270
101439,92316
101473,92332
101408,92274
101280,92220
101269,92252
101440,92311
101458,92326
101393,92277
101263,92252
101278,92248
101454,92310
101495,92332
101391,92273
101288,92224
101316,92306
101474,92312
101581,92353
101481,92306
101332,92256
101362,92326
101582,92323
101583,92399
101529,92342
101399,92303
101417,92338
101679,92419
101629,92381
101643,92361
101401,92300
101536,92354
101695,92417
101698,92427
101622,92400
101480,92315
101548,92372
101723,92404
101792,92426
101688,92417
101459,92307
101542,92387
101747,92423
101774,92432
101669,92406
101534,92340
101594,92390
101758,92445
101779,92413
101666,92385
101511,92344
101572,92385
101778,92445
101758,92444
101690,92420
101484,92376
101605,92406
101753,92451
101740,92417
101694,92395
101569,92376
101621,92408
101785,92445
101747,92447
101739,92399
101565,92391
101678,92424
101825,92486
101796,92448
101789,92417
101570,92393
101679,92438
101847,92479
101837,92475
101782,92431
101613,92374
101759,92462
101876,92499
101882,92485
101822,92453
101684,92425
101829,92461
101990,92564
101933,92481
101903,92495
101737,92429
101863,92512
101991,92556
102028,92545
101942,92510
101767,92423
101948,92527
102075,92597
102109,92563
102004,92569
101856,92485
101995,92583
102159,92635
102155,92591
102055,92569
101863,92517
102060,92600
102253,92642
102174,92614
102162,92594
101942,92530
102137,92617
102341,92621
102299,92651
102194,92645
102059,92545
102229,92671
102365,92677
102365,92668
102267,92665
102066,92611
102250,92670
102452,92732
102360,92679
102337,92657
102149,92655
102350,92706
102471,92761
102454,92717
102384,92700
102182,92603
102382,92719
102522,92780
102444,92738
102435,92696
102272,92666
102410,92767
102568,92755
102539,92775
102483,92722
102290,92685
102488,92719
102613,92808
102572,92740
102499,92717
102319,92705
102496,92753
102660,92846
102617,92760
102522,92756
102342,92709
102572,92778
102659,92869
102650,92798
102539,92765
102395,92739
102611,92793
102733,92838
102694,92806
102564,92769
102482,92741
102639,92850
102749,92832
102675,92854
102602,92800
102518,92759
102677,92871
102797,92846
102727,92850
102656,92813
102498,92775
102724,92823
102855,92917
102781,92832
102663,92822
102558,92800
102753,92879
102906,92874
102793,92857
102725,92837
102567,92851
102827,92904
102922,92902
102884,92903
102744,92874
102657,92843
102860,92926
102987,92921
102908,92905
102828,92906
102699,92824
102925,92919
102982,92979
102924,92919
102893,92873
102727,92917
102950,92953
103068,92959
103018,92959
102885,92936
102812,92912
102996,92977
103115,92984
103083,92973
102943,92940
102897,92928
103062,92996
103191,93033
103140,92997
103025,92965
102964,92942
103127,93021
103260,93037
103199,93016
103070,93005
103049,92971
103234,93095
103342,93060
103268,93059
103145,93008
103072,92985
103313,93086
103373,93144
103322,93088
103171,93004
103096,93014
103316,93058
103312,93077
103219,93029
103008,92949
102932,92919
103087,92951
103054,92965
102898,92878
102643,92790
102477,92730
102624,92731
102540,92761
102405,92680
102139,92585
102074,92539
102264,92596
102219,92590
102090,92524
101912,92501
101851,92488
101982,92497
102030,92528
101930,92474
101699,92412
101694,92428
101834,92444
101925,92474
101796,92405
101559,92388
101589,92333
101718,92411
101779,92416
101701,92391
101457,92311
101481,92336
101654,92367
101666,92392
101603,92359
101441,92273
101399,92313
101552,92334
101629,92352
101528,92315
101356,92258
101400,92262
101525,92369
101569,92293
101489,92300
101318,92242
101292,92238
101487,92311
101484,92305
101431,92275
101284,92244
101262,92240
101446,92309
101471,92298
101407,92272
101241,92209
101287,92250
101424,92312
101440,92282
101382,92263
101248,92208
101265,92233
101414,92305
101487,92305
101409,92246
101227,92201
101285,92261
101499,92336
101520,92322
101401,92290
101323,92209
101352,92278
101534,92312
101535,92328
101487,92323
101321,92248
101403,92309
101610,92365
101593,92341
101557,92350
101354,92284
101432,92333
101636,92366
101616,92360
101572,92343
101325,92287
101473,92323
101660,92405
101609,92348
101563,92323
101400,92266
101483,92348
101626,92385
101651,92367
101570,92376
101350,92272
101500,92313
101628,92407
101667,92323
101568,92338
101394,92294
101452,92305
101608,92394
101665,92365
101576,92341
101378,92273
101493,92336
101621,92392
101673,92336
101610,92359
101410,92292
101538,92301
101644,92401
101665,92336
101615,92344
101438,92300
101517,92329
101684,92388
101658,92415
101634,92371
101411,92318
101533,92339
101747,92430
101676,92401
101632,92373
101461,92299
101620,92374
101786,92429
101737,92425
101664,92405
101490,92364
101650,92369
101837,92462
101783,92423
101714,92394
101561,92348
101693,92391
101873,92488
101841,92409
101802,92428
101565,92407
101727,92406
101953,92480
101864,92476
101825,92440
101654,92410
101780,92459
102002,92470
101933,92510
101825,92478
101667,92400
101869,92498
102056,92498
101938,92517
101866,92494
101703,92456
101926,92492
102045,92563
102018,92510
101954,92493
101740,92451
101970,92493
102127,92578
102048,92521
102039,92514
101824,92484
102041,92546
102147,92598
102168,92550
102077,92556
101874,92537
102092,92536
102185,92597
102184,92628
102109,92557
101926,92506
102140,92583
102236,92640
102222,92578
102154,92578
101959,92552
102146,92571
102307,92686
102234,92614
102181,92584
102004,92599
102196,92592
102324,92665
102281,92605
102252,92591
102074,92540
102254,92626
102327,92692
102361,92654
102233,92611
102103,92570
102284,92625
102443,92723
102392,92657
102283,92632
102130,92561
102361,92680
102450,92712
102442,92691
102306,92647
102158,92605
102396,92667
102510,92729
102418,92701
102337,92623
102208,92640
102394,92691
102512,92727
102463,92705
102360,92683
102254,92616
102436,92694
102552,92760
102506,92700
102390,92698
102245,92670
102485,92735
102621,92738
102518,92767
102399,92690
102297,92697
102522,92715
102632,92761
102546,92717
102468,92718
102348,92706
102521,92755
102667,92773
102583,92746
102505,92729
102399,92710
102597,92784
102681,92791
102606,92777
102526,92705
102429,92687
102629,92778
102718,92838
102690,92793
102559,92758
102464,92707
102684,92794
102754,92854
102696,92820
102612,92766
102511,92759
102711,92822
102773,92828
102760,92839
102637,92767
102582,92738
102773,92874
102863,92853
102758,92835
102700,92799
102617,92775
102792,92875
102927,92856
102860,92845
102713,92822
102685,92838
102866,92879
102953,92945
102921,92885
102779,92845
102756,92821
102989,92898
103017,92962
102969,92928
102835,92833
102811,92859
103033,92921
103037,92946
102975,92924
102815,92843
102764,92839
102920,92888
102948,92897
102839,92818
102577,92754
102486,92734
102642,92731
102571,92747
102418,92674
102205,92600
102101,92595
102269,92574
102243,92581
102115,92526
101904,92447
101848,92417
102006,92460
102029,92461
101904,92459
101683,92369
101617,92352
101841,92389
101825,92443
101743,92365
101538,92290
101532,92307
101649,92366
101757,92373
101624,92309
101455,92256
101389,92264
101583,92289
101605,92350
101524,92295
101350,92212
101317,92232
101495,92324
101537,92264
101455,92257
101270,92195
101286,92208
101417,92269
101436,92263
101352,92233
101251,92154
101174,92187
101355,92206
101424,92246
101348,92202
101144,92150
101176,92174
101335,92244
101347,92214
101264,92182
101116,92137
101140,92127
101317,92246
101316,92201
101220,92179
101062,92104
101117,92169
101265,92229
101334,92178
101234,92177
101056,92119
101133,92163
101271,92199
101312,92195
101240,92168
101050,92094
101116,92180
101330,92193
101327,92225
101252,92203
101116,92140
101184,92187
101383,92218
101399,92255
101295,92247
101159,92149
101233,92218
101390,92229
101476,92281
101349,92226
101201,92155
101229,92226
101458,92239
101479,92285
101394,92253
101227,92168
101307,92234
101473,92251
101496,92281
101394,92236
101238,92179
101314,92250
101486,92260
101474,92237
101408,92253
101246,92183
101313,92227
101468,92318
101503,92241
101421,92231
101235,92164
101364,92244
101468,92291
101494,92241
101427,92225
101255,92150
101353,92211
101487,92321
101519,92245
101430,92228
101290,92213
101365,92230
101525,92279
101464,92296
101461,92269
101295,92170
101382,92262
101516,92272
101543,92292
101459,92256
101316,92198
101434,92263
101589,92306
101532,92289
101512,92256
101326,92212
101450,92277
101604,92315
101614,92319
101543,92280
101315,92209
101530,92292
101654,92376
101658,92310
101608,92300
101419,92252
101548,92336
101696,92322
101687,92378
101603,92322
101412,92261
101619,92316
101752,92402
101747,92356
101664,92341
101469,92286
101644,92348
101839,92401
101756,92373
101711,92361
101499,92307
101695,92366
101865,92403
101816,92392
101737,92386
101517,92314
101756,92384
101873,92430
101875,92410
101788,92382
101618,92346
101797,92414
101926,92431
101912,92422
101838,92402
101661,92378
101834,92417
102007,92465
101950,92446
101887,92412
101700,92363
101900,92418
102008,92498
101962,92493
101932,92423
101752,92381
101924,92475
102050,92521
102030,92467
101971,92454
101784,92417
101986,92497
102116,92543
102046,92476
101971,92460
101798,92432
102008,92482
102133,92554
102067,92488
102019,92462
101904,92454
102066,92553
102179,92516
102132,92534
101999,92467
101917,92417
102085,92518
102253,92589
102139,92523
102061,92467
101897,92444
102142,92522
102227,92601
102229,92513
102084,92500
101962,92453
102174,92543
102220,92593
102258,92558
102112,92536
101983,92503
102225,92571
102285,92616
102281,92550
102147,92541
102044,92502
102221,92597
102360,92584
102240,92599
102156,92545
102060,92531
102293,92595
102383,92600
102332,92584
102212,92574
102093,92511
102343,92601
102442,92639
102395,92617
102260,92569
102173,92593
102397,92645
102480,92675
102417,92619
102303,92604
102246,92560
102443,92650
102516,92686
102498,92642
102357,92626
102278,92583
102456,92687
102591,92672
102529,92670
102408,92646
102308,92639
102521,92681
102629,92718
102522,92694
102477,92650
102395,92626
102562,92741
102636,92722
102575,92702
102511,92660
102439,92648
102604,92754
102678,92718
102643,92731
102545,92678
102430,92685
102664,92735
102786,92804
102698,92727
102571,92703
102514,92726
102724,92774
102820,92838
102778,92750
102634,92729
102574,92756
102848,92798
102904,92821
102804,92800
102681,92742
102671,92762
102874,92822
102910,92839
102850,92836
102711,92739
102656,92771
102848,92792
102889,92820
102779,92787
102560,92706
102473,92702
102600,92667
102622,92727
102469,92610
102242,92555
102164,92540
102283,92557
102326,92532
102107,92481
101896,92412
101889,92432
102007,92459
102035,92404
101865,92426
101697,92335
101650,92347
101802,92349
101889,92381
101763,92334
101543,92274
101490,92272
101669,92297
101729,92339
101637,92261
101447,92202
101437,92230
101561,92285
101620,92250
101521,92207
101335,92181
101334,92166
101520,92267
101511,92229
101427,92209
101279,92140
101268,92174
101399,92251
101482,92209
101388,92158
101250,92099
101244,92166
101358,92185
101426,92212
101361,92145
101160,92092
101169,92124
101344,92172
101387,92197
101323,92150
101162,92077
101141,92104
101341,92177
101336,92137
101255,92137
101135,92062
101106,92109
101288,92144
101331,92145
101277,92113
101077,92079
101096,92103
101341,92190
101354,92141
101282,92132
101116,92072
101151,92118
101333,92149
101383,92194
101265,92126
101122,92098
101193,92147
101388,92169
101407,92207
101344,92142
101208,92107
101253,92152
101479,92199
101483,92244
101409,92186
101238,92130
101289,92186
101527,92209
