11111,11111
0,0
81592,81036
104290,101952
104250,101903
104175,101873
104181,101886
104271,101930
104312,101941
104274,101947
104223,101877
104224,101925
104340,101944
104374,101973
104336,101974
104306,101902
104309,101902
104422,101978
104433,102031
104400,101948
104397,101951
104388,101961
104471,102012
104518,102007
104443,102024
104427,101943
104435,101968
104548,102037
104499,102025
104539,102013
104484,102004
104462,101970
104601,102036
104629,102061
104542,102010
104477,102000
104540,102036
104629,102071
104666,102093
104665,102116
104601,102038
104606,102074
104726,102083
104747,102116
104678,102105
104620,102055
104647,102093
104773,102132
104802,102170
104752,102114
104706,102083
104733,102116
104825,102181
104786,102157
104802,102098
104756,102059
104771,102112
104828,102174
104838,102146
104798,102099
104795,102076
104756,102135
104843,102172
104884,102156
104841,102140
104825,102107
104811,102113
104976,102209
104941,102185
104902,102174
104883,102120
104854,102185
104992,102202
104962,102232
104929,102175
104876,102120
104909,102198
105012,102234
104992,102190
105013,102196
104947,102149
104994,102231
105052,102248
105052,102204
105030,102223
104964,102156
105020,102207
105122,102286
105130,102251
105097,102274
105006,102178
105130,102276
105224,102329
105175,102247
105171,102302
105110,102253
105197,102303
105298,102359
105268,102335
105312,102330
105202,102295
105315,102349
105381,102367
105383,102377
105397,102377
105284,102312
105406,102342
105483,102445
105430,102358
105440,102385
105312,102319
105341,102334
105369,102362
105258,102327
105178,102248
105072,102161
105022,102168
105022,102185
104913,102098
104819,102089
104639,101981
104664,101982
104652,101998
104505,101914
104444,101896
104311,101770
103617,101481
103939,101649
103873,101585
104058,101708
104068,101684
103996,101636
104227,101777
104207,101724
104170,101718
104162,101680
104372,101777
104533,101891
104519,101884
104527,101914
104476,101871
104495,101828
104583,101930
104635,101941
104592,101929
104597,101899
104548,101908
104696,101944
104689,101982
104676,101952
104673,101935
104595,101929
104772,101998
104746,102033
104744,101968
104722,101972
104716,101957
104809,102037
104831,102015
104819,102043
104809,102015
104765,101972
104895,102047
104934,102096
104878,102022
104857,102011
104837,102016
104946,102084
104966,102104
104979,102041
104923,102075
104924,102034
105028,102129
105042,102117
105037,102100
104973,102071
104974,102034
105023,102137
105074,102160
105081,102131
105025,102042
105043,102104
105132,102151
105136,102157
105113,102157
105070,102091
105067,102057
105158,102161
105214,102181
105163,102149
105120,102145
105127,102119
105212,102203
105217,102200
105201,102188
105152,102120
105193,102187
105287,102207
105286,102215
105278,102207
105200,102184
105232,102163
105326,102236
105330,102250
105326,102267
105261,102199
105297,102197
105403,102277
105349,102252
105353,102241
105314,102202
105296,102258
105408,102283
105449,102295
105403,102265
105365,102253
105360,102247
105507,102304
105507,102347
105518,102281
105471,102286
105472,102291
105561,102373
105585,102355
105574,102334
105478,102308
105490,102313
105564,102358
105531,102295
105477,102307
105352,102213
105291,102154
105320,102237
105212,102187
105075,102063
104972,102006
104903,101968
104921,102038
104792,101986
104704,101912
104609,101820
104491,101797
104520,101868
104446,101767
104344,101761
104249,101650
104204,101650
104204,101697
104150,101646
104060,101607
103947,101510
103948,101545
104013,101587
103909,101563
103883,101500
103862,101459
103817,101491
103886,101517
103862,101506
103816,101515
103747,101397
103816,101483
103895,101516
103858,101483
103843,101464
103788,101451
103793,101497
103921,101521
103925,101529
103888,101491
103841,101480
103872,101522
103956,101564
103922,101560
103915,101522
103853,101473
103908,101512
104018,101582
103993,101585
104020,101533
103923,101516
103976,101556
104081,101617
104083,101595
104009,101557
103986,101504
104011,101612
104109,101623
104134,101627
104103,101622
104046,101548
104169,101637
104213,101675
104195,101676
104233,101650
104175,101615
104216,101698
104303,101715
104310,101705
104288,101699
104229,101645
104291,101686
104332,101752
104338,101722
104312,101709
104262,101644
104342,101724
104417,101787
104337,101746
104351,101687
104294,101668
104370,101713
104421,101757
104376,101700
104394,101712
104276,101669
104378,101701
104430,101732
104401,101729
104382,101718
104306,101665
104370,101672
104439,101768
104398,101740
104383,101679
104320,101654
104413,101716
104429,101736
104452,101746
104431,101730
104358,101678
104450,101714
104528,101788
104494,101764
104465,101726
104403,101696
104503,101734
104593,101795
104529,101804
104555,101741
104530,101743
104591,101797
104655,101834
104663,101809
104672,101822
104615,101793
104757,101839
104805,101892
104768,101872
104804,101866
104727,101868
104836,101880
104936,101948
104888,101911
104877,101921
104865,101896
104972,101960
105017,101991
105039,101953
105060,101977
104978,101954
105106,101986
105177,102064
105117,102006
105180,102050
105068,101979
105203,102068
105278,102107
105276,102081
105257,102106
105213,102014
105305,102122
105396,102161
105357,102115
105350,102143
105330,102103
105398,102159
105493,102209
105427,102177
105445,102168
105405,102118
105471,102204
105536,102212
105506,102178
105484,102178
105471,102139
105527,102233
105611,102208
105580,102240
105567,102205
105539,102178
105594,102236
105664,102251
105616,102257
105612,102199
105550,102168
105680,102285
105730,102279
105655,102292
105641,102251
105601,102216
105723,102284
105749,102307
105696,102284
105714,102232
105669,102240
105754,102279
105779,102327
105808,102305
105749,102301
105677,102228
105831,102367
105848,102318
105852,102317
105817,102314
105754,102277
105906,102347
105883,102397
105881,102326
105859,102320
105801,102289
105937,102398
105925,102377
105934,102380
105896,102348
105860,102329
105968,102370
105982,102406
106002,102342
105927,102374
105906,102315
106008,102385
106061,102416
106034,102428
105987,102424
105984,102346
106079,102462
106098,102450
106119,102466
106085,102420
106065,102401
106154,102477
106203,102493
106228,102466
106192,102465
106178,102469
106234,102537
106299,102520
106304,102539
106269,102484
106227,102454
106300,102536
106308,102562
106226,102457
106132,102409
106025,102346
105977,102391
105884,102278
105787,102280
105619,102145
105513,102100
105523,102107
105423,102056
105296,101991
105192,101929
105044,101898
105069,101922
105007,101871
104889,101829
104766,101715
104720,101731
104739,101736
104736,101714
104624,101702
104528,101618
104476,101617
104547,101633
104546,101628
104472,101596
104447,101560
104376,101527
104497,101635
104507,101614
104452,101583
104442,101573
104432,101533
104526,101640
104571,101656
104515,101632
104505,101592
104566,101637
104678,101697
104663,101705
104714,101719
104669,101641
104675,101697
104824,101772
104836,101764
104866,101771
104829,101740
104870,101785
105028,101832
105041,101894
105091,101865
105068,101837
105090,101845
105212,101907
105264,101931
105239,101908
105219,101889
105249,101914
105384,101989
105382,101985
105421,101995
105387,101945
105429,101992
105527,102070
105545,102070
105569,102086
105534,102035
105574,102061
105663,102146
105688,102127
105679,102124
105600,102088
105609,102069
105727,102152
105725,102122
105684,102130
105636,102084
105688,102100
105708,102191
105741,102123
105666,102093
105633,102057
105598,102086
105699,102133
105718,102111
105655,102069
105605,102034
105587,102075
105646,102101
105671,102071
105594,102070
105548,102023
105552,102080
105632,102072
105624,102075
105591,102047
105512,101989
105506,102048
105611,102081
105565,102086
105562,102009
105473,101993
105497,102049
105577,102068
105581,102042
105548,102034
105516,101983
105556,102020
105669,102126
105592,102063
105629,102084
105528,101996
105580,102052
105703,102103
105676,102116
105668,102089
105620,102049
105719,102097
105786,102184
105731,102100
105741,102150
105705,102098
105734,102150
105833,102156
105805,102214
105823,102133
105750,102142
105826,102167
105909,102224
105858,102192
105911,102210
105838,102169
105885,102221
106003,102249
105961,102251
105981,102227
105896,102191
105982,102270
106047,102280
106067,102290
106048,102282
105997,102218
106073,102295
106188,102318
106159,102340
106141,102321
106118,102249
106162,102302
106258,102383
106216,102364
106256,102330
106172,102314
106270,102346
106332,102383
106282,102409
106284,102356
106283,102285
106309,102364
106387,102420
106369,102411
106348,102376
106339,102335
106376,102434
106470,102453
106445,102405
106422,102423
106337,102341
106452,102466
106494,102466
106455,102447
106454,102449
106392,102376
106495,102441
106509,102477
106485,102446
106475,102429
106403,102378
106478,102442
106574,102482
106509,102481
106506,102439
106443,102429
106557,102474
106579,102512
106589,102477
106572,102467
106506,102459
106602,102461
106650,102520
106618,102488
106604,102486
106504,102453
106673,102519
106702,102573
106607,102527
106648,102512
106586,102492
106690,102499
106739,102558
106683,102552
106659,102536
106613,102470
106698,102573
106731,102567
106753,102560
106692,102548
106658,102500
106761,102547
106792,102604
106756,102571
106762,102538
106713,102520
106781,102591
106830,102630
106817,102545
106803,102586
106711,102510
106838,102603
106892,102625
106883,102601
106849,102558
106786,102555
106916,102626
106957,102614
106947,102648
106888,102604
106882,102562
106952,102659
106982,102627
106966,102635
106969,102627
106941,102602
106997,102648
107059,102691
106970,102676
106962,102629
106908,102599
106944,102608
106915,102603
106711,102491
106624,102445
106413,102328
106346,102360
106267,102318
106069,102182
105922,102130
105751,102016
105742,102047
105671,102031
105536,101931
105429,101857
105242,101772
105314,101855
105264,101811
105129,101751
105026,101669
104950,101633
104928,101672
104972,101673
104864,101595
104793,101590
104738,101540
104791,101599
104826,101604
104730,101577
104728,101538
104639,101494
104780,101585
104774,101606
104734,101557
104713,101573
104655,101530
104778,101592
104787,101596
104810,101604
104754,101567
104750,101569
104849,101653
104865,101644
104851,101639
104849,101577
104861,101608
104932,101656
104975,101692
104965,101657
104932,101671
104882,101612
105035,101723
105029,101708
104985,101684
104972,101652
104973,101649
105027,101725
105080,101718
105038,101719
105029,101655
104998,101659
105112,101755
105158,101767
105111,101715
105108,101716
105086,101718
105190,101772
105176,101788
105185,101783
105121,101725
105150,101717
105239,101789
105263,101784
105201,101822
105180,101691
105207,101759
105245,101795
105269,101803
105263,101765
105179,101739
105173,101711
105233,101818
105245,101781
105233,101759
105195,101730
105136,101684
105250,101789
105244,101755
105211,101759
105150,101712
105104,101694
105204,101769
105229,101766
105211,101747
105138,101700
105092,101723
105199,101767
105187,101740
105167,101753
105074,101677
105131,101708
105223,101739
105159,101722
105158,101752
105103,101676
105163,101717
105244,101757
105207,101771
105226,101739
105156,101700
105183,101716
105266,101757
105259,101770
105274,101802
105212,101734
105233,101735
105340,101783
105360,101849
105345,101803
105276,101752
105303,101753
105438,101845
105403,101885
105420,101795
105388,101800
105389,101832
105480,101883
105499,101884
105470,101828
105471,101806
105466,101854
105568,101918
105565,101871
105546,101889
105511,101864
105553,101875
105617,101927
105652,101952
105653,101956
105594,101906
105596,101892
105723,102016
105713,101948
105672,101966
105649,101909
105697,101925
105775,102039
105778,101960
105773,101990
105732,101940
105760,101972
105879,102049
105848,102038
105877,102002
105805,101963
105857,102027
105938,102078
105900,102063
105921,102015
105837,101995
105923,102046
106009,102101
105965,102069
105957,102068
105874,102013
105942,102083
106028,102122
106013,102057
105991,102095
105898,102019
105983,102046
106076,102116
106048,102089
105972,102099
105948,102051
106011,102056
106116,102139
106071,102088
106059,102100
106007,102070
106086,102092
106180,102152
106137,102146
106153,102136
106100,102079
106123,102111
106240,102196
106194,102148
106236,102123
106129,102117
106232,102166
106285,102216
106244,102168
106241,102187
106163,102130
106290,102176
106330,102243
106310,102186
106286,102182
106272,102162
106283,102186
106398,102247
106366,102205
106359,102239
106302,102162
106344,102223
106440,102233
106432,102264
106440,102231
106368,102165
106444,102263
106507,102297
106511,102282
106497,102236
106467,102208
106513,102272
106599,102314
106618,102302
106564,102309
106538,102237
106631,102323
106724,102358
106681,102358
106672,102308
106651,102274
106696,102367
106817,102412
106788,102375
106757,102394
106660,102278
106771,102416
106782,102385
106761,102391
106686,102323
106501,102250
106522,102232
106402,102228
106291,102123
106145,102038
105901,101948
105903,101976
105789,101917
105637,101838
105520,101779
105327,101670
105344,101713
105291,101684
105169,101631
105108,101584
104964,101502
105001,101560
104939,101532
104852,101472
104829,101456
104694,101382
104721,101415
104712,101421
104685,101412
104643,101371
104535,101324
104624,101378
104603,101389
104578,101339
104580,101349
104483,101300
104596,101395
104636,101363
104628,101400
104602,101359
104576,101324
104677,101388
104709,101421
104697,101413
104714,101420
104674,101380
104776,101436
104813,101483
104839,101477
104827,101449
104758,101424
104862,101491
104916,101510
104890,101501
104868,101473
104825,101453
104914,101524
104978,101536
104941,101505
104924,101506
104890,101447
104969,101561
105031,101559
105002,101551
105023,101521
104988,101497
105081,101628
105116,101597
105109,101595
105098,101578
105073,101554
105167,101607
105250,101620
105179,101616
105178,101622
105126,101555
105257,101632
105270,101696
105229,101601
105198,101616
105174,101616
105263,101636
105261,101649
105211,101633
105197,101616
105086,101594
105227,101634
105248,101645
105215,101634
105122,101587
105101,101539
105176,101634
105218,101620
105171,101584
105134,101587
105059,101537
105167,101633
105176,101604
105174,101574
105120,101592
105079,101542
105166,101587
105212,101599
105168,101592
105112,101588
105121,101546
105169,101637
105212,101638
105185,101587
105189,101587
105136,101581
105221,101641
105268,101655
105238,101641
105178,101606
105229,101579
105286,101673
105335,101687
105319,101676
105273,101659
105290,101615
105375,101704
105423,101745
105418,101719
105352,101659
105391,101654
105457,101743
105504,101733
105487,101761
105460,101729
105465,101702
105532,101782
105572,101794
105547,101763
105526,101743
105515,101707
105598,101819
105631,101814
105625,101786
105618,101760
105577,101787
105685,101862
105747,101839
105705,101804
105686,101814
105658,101793
105774,101890
105825,101892
105787,101858
105745,101843
105744,101829
105814,101925
105841,101909
105867,101894
105810,101878
105803,101845
105914,101945
105937,101928
105889,101918
105884,101869
105879,101890
106000,101984
106013,101957
105972,101962
105973,101910
105991,101914
106080,101983
106076,102008
106084,101984
105996,101960
106018,101945
106149,102036
106121,102011
106135,102014
106058,101981
106075,101961
106186,102051
106167,102038
106152,102046
106104,101959
106113,102018
106219,102060
106215,102036
106197,102038
106122,102018
106166,102008
106269,102071
106234,102065
106230,102052
106177,102013
106208,102026
106304,102080
106302,102082
106283,102084
106233,102044
106263,102035
106328,102118
106335,102103
106300,102060
106295,102051
106292,102073
106386,102119
106348,102112
106346,102085
106303,102064
106324,102072
106395,102152
106376,102133
106339,102128
106303,102067
106354,102111
106444,102152
106415,102123
106387,102161
106326,102045
106393,102110
106499,102192
106475,102156
106471,102168
106400,102104
106418,102159
106508,102213
106545,102168
106490,102163
106454,102116
106486,102186
106572,102228
106541,102215
106517,102212
106423,102121
106468,102178
106486,102194
106446,102173
106332,102091
106182,101964
106084,102012
106053,101945
105909,101877
105765,101795
105594,101726
105492,101667
105478,101703
105327,101627
105240,101558
105049,101475
105014,101507
105038,101451
104953,101436
104805,101383
104663,101286
104677,101299
104697,101335
104572,101260
104566,101238
104426,101192
104447,101191
104500,101241
104380,101170
104397,101199
104294,101090
104343,101174
104385,101224
104342,101140
104362,101163
104264,101115
104368,101143
104422,101233
104375,101202
104375,101186
104331,101108
104409,101222
104465,101238
104445,101191
104466,101240
104417,101179
104494,101238
104543,101308
104545,101228
104551,101260
104480,101196
104573,101261
104592,101319
104599,101272
104581,101276
104543,101201
104616,101298
104638,101313
104619,101276
104622,101260
104574,101252
104656,101283
104723,101315
104670,101316
104683,101285
104656,101273
104707,101311
104797,101377
104757,101346
104749,101334
104727,101285
104762,101379
104840,101392
104840,101372
104841,101362
104769,101339
104820,101374
104904,101426
104888,101383
104851,101383
104778,101321
104879,101413
104891,101398
104898,101380
104846,101391
104795,101308
104849,101375
104909,101439
104892,101370
104857,101384
104770,101291
104870,101349
104922,101402
104865,101386
104817,101336
104810,101298
104828,101393
104894,101398
104847,101347
104841,101388
104751,101264
104888,101418
104906,101390
104852,101356
104849,101371
104795,101298
104907,101401
104912,101407
104936,101385
104928,101378
104848,101336
104977,101415
104974,101423
104997,101420
104985,101421
104929,101361
105060,101471
105097,101503
105059,101443
105079,101460
104978,101420
105129,101500
105169,101517
105189,101488
105160,101485
105097,101445
105233,101545
105248,101546
105243,101526
105277,101524
105204,101483
105320,101601
105354,101579
105330,101545
105362,101560
105331,101546
105433,101598
105494,101650
105449,101625
105452,101601
105452,101591
105513,101639
105601,101673
105550,101680
105548,101623
105500,101636
105634,101713
105640,101720
105665,101717
105635,101701
105632,101647
105712,101744
105729,101765
105742,101734
105737,101738
105722,101722
105793,101755
105836,101786
105823,101783
105775,101750
105795,101716
105874,101819
105891,101820
105910,101793
105866,101793
105809,101732
105970,101835
105969,101864
105957,101805
105892,101771
105902,101811
105971,101855
106024,101847
105975,101867
105979,101827
105954,101845
106033,101876
106065,101878
106019,101868
105999,101849
105979,101804
106088,101893
106117,101890
106054,101883
106061,101875
106009,101856
106116,101918
106133,101926
106100,101900
106078,101882
106082,101871
106176,101953
106187,101935
106165,101944
106125,101900
106111,101911
106232,101974
106229,101985
106217,101929
106183,101906
106158,101908
106250,101972
106285,101989
106280,101968
106259,101931
106215,101954
106347,102009
106302,102020
106307,101964
106323,101962
106277,101977
106373,102037
106432,102045
106372,101996
106374,101986
106324,101990
106438,102053
106481,102059
106424,102024
106431,101996
106365,102040
106482,102101
106509,102105
106510,102076
106460,102060
106472,102018
106549,102139
106578,102114
106561,102112
106494,102085
106562,102072
106661,102148
106657,102138
106684,102148
106588,102115
106632,102143
106737,102188
106717,102178
106713,102176
106563,102082
106533,102064
106558,102097
106469,102059
106321,101945
106118,101881
106006,101790
105945,101805
105791,101736
105646,101631
105444,101575
105331,101484
105317,101530
105205,101458
105091,101413
104971,101307
104865,101307
104892,101332
104821,101284
104719,101231
104612,101134
104548,101184
104574,101186
104533,101137
104481,101116
104405,101073
104339,101022
104430,101121
104436,101092
104363,101078
104324,101011
104318,101075
104383,101100
104406,101105
104346,101073
104329,101030
104328,101096
104444,101117
104419,101125
104421,101098
104390,101031
104406,101115
104491,101167
104530,101140
104493,101137
104456,101097
104497,101162
104589,101198
104543,101170
104563,101189
104513,101112
104568,101166
104657,101237
104624,101184
104630,101211
104570,101127
104597,101166
104692,101219
104676,101242
104645,101161
104599,101163
104651,101184
104722,101238
104717,101231
104733,101249
104634,101212
104738,101225
104807,101320
104813,101267
104798,101269
104769,101230
104793,101255
104925,101358
104864,101320
104823,101311
104794,101263
104866,101274
104930,101364
104873,101296
104898,101311
104791,101261
104816,101292
104914,101313
104925,101351
104855,101289
104805,101250
104871,101323
104929,101359
104909,101310
104854,101312
104790,101243
104836,101278
104894,101299
104864,101321
104850,101257
104794,101224
104796,101281
104893,101322
104826,101290
104825,101296
104737,101209
104849,101305
104874,101301
104840,101281
104824,101273
104800,101244
104846,101264
104908,101346
104874,101277
104898,101280
104826,101253
104889,101274
104950,101351
104948,101325
104925,101343
104875,101277
104930,101327
104997,101352
105004,101348
104962,101350
104936,101279
104977,101370
105031,101425
105041,101365
105038,101388
104965,101310
105066,101380
105113,101411
105068,101417
105117,101425
105032,101356
105159,101428
105191,101473
105180,101423
105171,101445
105154,101376
105202,101443
105283,101495
105286,101474
105283,101471
105229,101420
105343,101513
105376,101557
105337,101505
105385,101520
105322,101468
105414,101565
105449,101566
105439,101560
105397,101520
105384,101500
105473,101554
105502,101588
105500,101558
105523,101593
105400,101521
105540,101593
105578,101610
105620,101616
105587,101583
105498,101580
105587,101593
105685,101671
105636,101621
105617,101617
105574,101603
105689,101647
105675,101670
105691,101664
105683,101658
105605,101623
105701,101649
105729,101690
105732,101693
105691,101643
105626,101620
105731,101650
105772,101701
105716,101693
105707,101628
105696,101636
105775,101684
105812,101742
105809,101721
105750,101685
105725,101635
105811,101733
105859,101776
105820,101711
105833,101690
105784,101662
105886,101737
105885,101773
105863,101726
105852,101735
105858,101686
105918,101773
105916,101770
105965,101752
105933,101758
105850,101718
106001,101810
106008,101795
106020,101794
105971,101764
105947,101751
106049,101817
106106,101841
106072,101761
106044,101816
106012,101740
106162,101852
106129,101848
106182,101851
106119,101811
106083,101812
106233,101900
106271,101894
106227,101909
106229,101872
106226,101828
106341,101933
106351,101955
106349,101938
106331,101929
106307,101902
106436,101998
106442,101986
106476,102012
106455,101965
106415,101944
106538,102053
106516,102016
106535,102015
106412,101936
106338,101887
106334,101941
106237,101859
106104,101802
105924,101688
105744,101634
105694,101636
105597,101547
105438,101522
105272,101401
105189,101330
105145,101354
105093,101320
104952,101279
104868,101171
104757,101165
104775,101163
104764,101170
104641,101116
104575,101057
104456,101027
104561,101076
104506,101100
104438,101011
104375,100984
104356,100987
104422,101018
104395,101036
104379,100983
104331,100970
104317,100965
104429,101045
104415,101001
104412,101021
104365,100971
104380,100958
104469,101061
104509,101058
104495,101028
104501,101046
104443,101004
104566,101124
104591,101119
104613,101095
104561,101068
104595,101066
104659,101159
104699,101157
104707,101168
104648,101106
104680,101111
104799,101202
104843,101188
104783,101186
104761,101151
104747,101167
104858,101209
104904,101229
104860,101238
104839,101166
104862,101180
104994,101250
104982,101290
104960,101239
104971,101242
104988,101247
105107,101320
105087,101320
105098,101330
105042,101271
105127,101308
105183,101365
105198,101379
105199,101340
105133,101332
105129,101278
105237,101388
105224,101343
105166,101381
105102,101303
105151,101337
105228,101380
105182,101328
105188,101362
105133,101291
105130,101305
105191,101395
105166,101333
105173,101347
105096,101282
105068,101299
105147,101344
105147,101323
105115,101310
105095,101276
105070,101288
105173,101333
105176,101332
105105,101316
105055,101246
105101,101323
105171,101365
105181,101320
105132,101305
105110,101264
105119,101291
105235,101347
105224,101326
105178,101344
105173,101302
105192,101333
105266,101418
105253,101353
105271,101391
105221,101327
105295,101382
105357,101437
105367,101416
105341,101421
105319,101382
105362,101432
105444,101479
105460,101449
105464,101470
105444,101397
105491,101466
105591,101503
105567,101537
105562,101513
105545,101473
105578,101527
105699,101581
105686,101568
105677,101558
105647,101509
105689,101573
105792,101631
105777,101590
105793,101613
105724,101575
105781,101606
105872,101630
105882,101665
105859,101646
105799,101589
105887,101634
105976,101721
105936,101672
105947,101695
105894,101656
105958,101675
106064,101761
106047,101684
106015,101733
105970,101675
106076,101721
106134,101783
106138,101739
106086,101743
106058,101736
106101,101749
106224,101807
106154,101793
106122,101755
106093,101728
106151,101817
106194,101831
106235,101792
106187,101805
106106,101714
106196,101808
106242,101840
106263,101809
106237,101822
106134,101755
106239,101816
106293,101835
106277,101838
106228,101821
106186,101753
106272,101811
106314,101896
106260,101797
106239,101806
106208,101768
106254,101853
106269,101864
106279,101817
106270,101781
106214,101751
106258,101803
106300,101860
106288,101851
106275,101804
106230,101776
106285,101839
106357,101896
106314,101841
106313,101804
106225,101797
106336,101864
106395,101911
106376,101836
106316,101846
106313,101811
106370,101902
106479,101938
106418,101904
106406,101900
106349,101815
106467,101940
106483,101953
106518,101925
106504,101898
106425,101880
106557,101947
106578,101987
106582,101960
106584,101942
106506,101901
106582,101970
106625,101982
106530,101918
106450,101861
106302,101798
106264,101785
106206,101776
106028,101670
105888,101617
105645,101484
105634,101497
105498,101448
105409,101409
105248,101305
105133,101240
105121,101241
105076,101230
104935,101194
104879,101129
104749,101087
104751,101089
104734,101113
104653,101022
104620,101020
104477,100974
104513,100975
104574,101002
104480,100959
104472,100933
104371,100924
104469,100949
104472,101013
104465,100954
104402,100930
104400,100927
104441,100958
104489,100985
104468,100989
104491,100963
104462,100944
104555,101015
104576,101016
104583,101046
104559,100980
104570,100988
104611,101045
104652,101064
104687,101110
104661,101025
104669,101037
104734,101112
104829,101121
104740,101100
104798,101102
104718,101081
104838,101139
104906,101185
104855,101126
104848,101145
104807,101082
104901,101188
104997,101210
104923,101205
104872,101175
104917,101158
104968,101221
105057,101238
105038,101201
105037,101207
104985,101191
105134,101253
105152,101306
105126,101251
105130,101277
105112,101218
105198,101331
105179,101283
105197,101325
105163,101250
105096,101236
105239,101336
105224,101301
105199,101328
105159,101273
105134,101229
105224,101308
105211,101323
105210,101280
105176,101260
105100,101279
105194,101278
105206,101289
105144,101296
105096,101208
105096,101243
105124,101251
105160,101280
105100,101234
105050,101221
105071,101213
105109,101276
105143,101225
105133,101249
105076,101208
105044,101224
105157,101257
105192,101294
105135,101221
105101,101222
105073,101229
105205,101271
105204,101322
105187,101215
105194,101252
105147,101258
105231,101316
105276,101342
105261,101337
105229,101263
105270,101287
105312,101346
105345,101344
105373,101346
105347,101360
105333,101311
105460,101418
105459,101403
105468,101415
105432,101368
105432,101362
105578,101429
105582,101483
105578,101445
105554,101422
105568,101431
105673,101498
105713,101523
105734,101476
105679,101493
105709,101473
105799,101570
105829,101545
105846,101577
105786,101518
105858,101540
105932,101611
105972,101602
105938,101586
105944,101602
105924,101628
106055,101677
106057,101675
106056,101645
106051,101644
106018,101636
106161,101727
106169,101720
106143,101726
106123,101677
106146,101700
106250,101754
106269,101739
106228,101747
106183,101709
106216,101744
106326,101781
106354,101810
106305,101750
106276,101754
106309,101768
106398,101869
106388,101783
106383,101822
106318,101770
106358,101807
106421,101840
106437,101833
106415,101819
106425,101797
106374,101822
106486,101881
106475,101882
106485,101865
106418,101807
106452,101867
106531,101875
106539,101892
106519,101897
106500,101839
106510,101834
106626,101918
106586,101938
106563,101878
106543,101880
106556,101926
106622,101938
106657,101915
106619,101933
106614,101891
106589,101902
106725,101992
106699,101978
106691,101933
106708,101934
106686,101917
106799,101998
106769,101976
106738,101998
106734,101931
106743,102010
106835,102049
106865,102025
106813,102002
106791,101977
106823,101996
106946,102090
106922,102066
106919,102041
106844,102000
106906,102074
106993,102114
107019,102082
106996,102084
106954,102063
106987,102094
107088,102130
107110,102150
107065,102124
107035,102096
107138,102149
107228,102226
107177,102205
107172,102184
107138,102141
107201,102189
107275,102235
107231,102217
107247,102171
107128,102155
107109,102122
107148,102164
106962,102081
106836,101988
106585,101894
106453,101805
106380,101785
106140,101682
105949,101608
105753,101471
105654,101450
105620,101425
105476,101376
105349,101308
105217,101215
105209,101224
105137,101251
105065,101152
104976,101103
104857,101059
104873,101080
104911,101114
104848,101033
104751,101059
104664,100940
104708,101025
104720,101041
104658,101002
104643,100942
104627,100955
104633,100951
104712,101019
104650,100978
104663,101021
104619,100921
104677,101048
104726,101028
104730,101043
104737,101042
104701,100991
104782,101076
104855,101071
104873,101095
104858,101069
104852,101014
104910,101127
104981,101149
104979,101121
104974,101150
104935,101101
105036,101175
105079,101179
105054,101184
105056,101146
105039,101129
105097,101198
105181,101236
105142,101211
105144,101197
105077,101171
105194,101216
105212,101236
105226,101224
105221,101264
105140,101168
105311,101292
105291,101284
105306,101295
105323,101272
105268,101243
105355,101308
105428,101341
105389,101314
105368,101305
105318,101287
105402,101345
105415,101345
105404,101323
105384,101321
105311,101249
105370,101322
105430,101356
105384,101326
105341,101296
105262,101242
105370,101288
105389,101317
105351,101327
105350,101315
105251,101238
105343,101300
105378,101283
105330,101276
105299,101257
105227,101235
105331,101289
105326,101308
105292,101248
105273,101238
105187,101215
105295,101282
105364,101318
105289,101271
105306,101265
105224,101232
105362,101294
105343,101340
105338,101255
105329,101256
105246,101232
105390,101293
105403,101335
105370,101293
105370,101283
105350,101267
105450,101354
105504,101379
105459,101318
105474,101313
105387,101295
105529,101381
105572,101406
105536,101389
105534,101371
105526,101314
105601,101420
105665,101433
105661,101417
105660,101420
105596,101362
105721,101508
105781,101488
105730,101450
105767,101480
105687,101395
105807,101538
105864,101545
105895,101528
105865,101523
105814,101523
105956,101576
105962,101589
105994,101542
105936,101561
105955,101539
106053,101621
106095,101650
106068,101590
106067,101587
106055,101595
106150,101661
106174,101684
106179,101655
106147,101636
106112,101616
106253,101684
106276,101729
106220,101719
106222,101674
106201,101656
106273,101743
106338,101712
106308,101718
106271,101682
106291,101693
106352,101761
106401,101746
106363,101770
106358,101721
106345,101708
106418,101778
106443,101787
106427,101752
106407,101741
106365,101733
106463,101794
106498,101819
106421,101785
106446,101779
106384,101791
106494,101845
106514,101847
106533,101802
106475,101820
106462,101769
106547,101868
106586,101847
106542,101816
106522,101780
106490,101804
106583,101870
106619,101866
106588,101839
106585,101816
106559,101814
106676,101891
106621,101905
106634,101854
106624,101839
106636,101824
106712,101921
106737,101947
106734,101882
106678,101876
106680,101882
106723,101947
106800,101943
106779,101895
106735,101902
106723,101916
106847,101971
106830,101964
106837,101964
106803,101922
106761,101898
106904,101996
106913,102007
106854,101967
106837,101926
106803,101946
106969,102034
106914,101998
106922,102013
106875,101984
106865,101964
107016,102035
106995,102057
106948,102002
106935,102002
106943,102014
107080,102074
107041,102093
107063,102052
106994,102032
107035,102029
107124,102115
107131,102091
107118,102096
107067,102054
107110,102096
107214,102145
107183,102140
107207,102142
107122,102080
107149,102112
107279,102150
107181,102153
107141,102101
106993,102014
106877,101948
106852,101963
106620,101883
106404,101758
106235,101642
106048,101564
106006,101562
105792,101483
105657,101364
105514,101303
105386,101256
105359,101266
105277,101209
105131,101155
105040,101065
104991,101070
105019,101105
104912,101049
104867,101021
104746,100935
104738,100964
104771,101008
104704,100947
104656,100913
104587,100871
104582,100848
104672,100941
104616,100924
104574,100923
104494,100832
104537,100901
104616,100942
104612,100872
104590,100911
104541,100850
104567,100898
104700,100967
104637,100960
104642,100914
104628,100875
104641,100949
104757,101015
104759,100969
104730,100947
104709,100929
104773,100980
104861,101058
104852,100998
104812,101013
104756,101003
104855,101016
104927,101077
104904,101048
104869,101019
104835,101018
104868,101033
104974,101101
104945,101051
104931,101042
104860,101009
104951,101087
104998,101115
104987,101081
105017,101091
104914,101045
104972,101079
105086,101140
105047,101086
105064,101134
104959,101040
105069,101113
105097,101155
105103,101137
105108,101093
105005,101097
105056,101104
105124,101145
105081,101133
105055,101107
105003,101039
105025,101131
105096,101134
105044,101106
105038,101074
104966,101048
104992,101058
105080,101136
104998,101092
104992,101073
104919,101006
104939,101030
105037,101074
104951,101090
104973,101056
104863,100992
104943,101047
104954,101089
104967,101037
104928,101048
104880,100963
104900,101058
104980,101098
104932,101046
104963,101010
104905,100991
104971,101092
105002,101086
104999,101049
104989,101058
104904,101031
105033,101087
105090,101102
105040,101099
105031,101072
105002,100995
105048,101100
105136,101117
105114,101113
105112,101103
105047,101041
105165,101132
105190,101165
105166,101113
105195,101122
105117,101096
105220,101145
105293,101194
105257,101154
105267,101186
105188,101091
105312,101218
105321,101211
105344,101228
105334,101223
105312,101169
105412,101253
105483,101276
105407,101220
105452,101237
105409,101238
105499,101271
105549,101289
105498,101323
105538,101294
105441,101277
105565,101331
105599,101356
105600,101352
105619,101327
105525,101266
105682,101392
105665,101389
105668,101371
105695,101355
105617,101323
105740,101377
105748,101438
105727,101431
105723,101366
105672,101331
105776,101435
105819,101458
105772,101391
105792,101401
105713,101374
105795,101426
105834,101473
105847,101446
105788,101421
105786,101395
105845,101447
105890,101491
105868,101451
105826,101430
105819,101414
105897,101447
105931,101494
105911,101448
105886,101469
105864,101433
105944,101481
105970,101519
105929,101472
105944,101480
105930,101448
105976,101539
105999,101503
106025,101537
105997,101491
105956,101472
106072,101547
106057,101550
106086,101547
106034,101525
106027,101495
106147,101566
106168,101573
106138,101569
106079,101532
106093,101496
106178,101599
106227,101624
106165,101610
106181,101549
106141,101570
106250,101615
106299,101634
106280,101626
106217,101593
106210,101570
106342,101653
106357,101701
106356,101638
106338,101656
106271,101623
106406,101681
106456,101715
106420,101638
106395,101667
106375,101667
106495,101736
106503,101722
106500,101747
106491,101699
106448,101713
106600,101753
106612,101767
106616,101783
106602,101743
106592,101728
106707,101811
106706,101831
106735,101818
106736,101798
106695,101808
106809,101867
106838,101882
106809,101852
106767,101822
106740,101813
106796,101846
106698,101827
106583,101751
106383,101637
106235,101568
106158,101556
106000,101478
105844,101377
105652,101273
105475,101175
105475,101214
105321,101158
105217,101085
105045,101004
104965,100977
104996,100990
104903,100930
104830,100926
104705,100831
104677,100791
104676,100864
104668,100811
104566,100785
104504,100737
104470,100729
104477,100755
104487,100766
104451,100708
104380,100670
104398,100668
104437,100736
104466,100726
104423,100703
104393,100665
104343,100682
104450,100761
104495,100759
104437,100733
104413,100730
104462,100721
104558,100791
104568,100783
104577,100803
104531,100775
104569,100770
104674,100854
104667,100848
104698,100831
104671,100828
104673,100784
104764,100883
104782,100920
104753,100864
104768,100835
104752,100894
104843,100925
104902,100933
104846,100913
104801,100867
104844,100928
104950,100976
104940,100954
104936,100963
104883,100922
104938,100940
105059,101016
105042,100992
105067,101000
104979,100947
105046,101019
105102,101055
105083,101076
105062,101025
105062,100987
105051,101018
105137,101068
105117,101037
105111,101040
105024,100955
105057,100997
105085,101022
105105,101028
105054,101004
105040,100944
105059,100985
105074,101054
105057,100998
105049,101016
104979,100923
104982,100953
105081,100993
105059,101003
105024,100963
104942,100901
104972,100984
105006,100998
105051,100985
104965,100923
104942,100894
104988,100951
105016,100982
105049,100973
104989,100975
104939,100870
104977,100961
105046,100987
105056,100983
105054,100967
104995,100955
105038,100971
105123,101023
105132,101007
105132,100998
105079,100974
105091,101004
105235,101043
105203,101038
105194,101034
105152,101001
105194,101048
105298,101072
105286,101094
105312,101091
105234,101053
105336,101075
105427,101167
105365,101091
105386,101124
105321,101068
105420,101128
105515,101182
105515,101165
105492,101189
105428,101123
105539,101203
105619,101242
105617,101180
105631,101217
105575,101220
105662,101237
105755,101276
105758,101276
105736,101289
105673,101216
105789,101319
105828,101318
105848,101345
105838,101325
105815,101288
105868,101332
105969,101383
105961,101390
105952,101350
105900,101353
105959,101387
106052,101458
106037,101400
106027,101403
105984,101380
106072,101408
106106,101474
106144,101439
106101,101449
106074,101381
106172,101464
106204,101493
106163,101488
106172,101477
106155,101445
106194,101460
106299,101537
106252,101525
106254,101486
106223,101505
106302,101521
106349,101571
106320,101545
106331,101567
106263,101504
106340,101566
106385,101578
106402,101576
106356,101575
106322,101502
106410,101600
106440,101595
106465,101589
106410,101621
106387,101544
106454,101616
106545,101640
106473,101644
106480,101602
106464,101605
106543,101649
106529,101656
106534,101630
106530,101639
106453,101620
106580,101656
106583,101669
106574,101659
106537,101621
106535,101633
106607,101648
106648,101708
106639,101685
106606,101650
106572,101619
106670,101735
106661,101745
106678,101709
106692,101711
106621,101674
106729,101762
106743,101749
106791,101759
106757,101753
106717,101730
106800,101801
106863,101766
106812,101801
106792,101749
106737,101730
106789,101734
106745,101759
106651,101665
106471,101620
106290,101480
106199,101489
106068,101438
105886,101318
105712,101229
105530,101120
105447,101119
105385,101087
105223,101006
105120,100938
104990,100890
104979,100925
104930,100868
104859,100851
104778,100770
104631,100701
104694,100785
104640,100769
104614,100713
104516,100679
104474,100627
104472,100681
104497,100689
104449,100672
104446,100604
104361,100589
104438,100667
104491,100690
104448,100658
104402,100646
104381,100602
104458,100669
104526,100707
104512,100657
104500,100676
104421,100635
104569,100716
104592,100733
104573,100705
104584,100723
104551,100666
104640,100782
104660,100778
104697,100782
104645,100727
104644,100719
104768,100839
104756,100830
104805,100794
104724,100781
104742,100762
104813,100841
104853,100861
104822,100830
104817,100794
104797,100804
104906,100875
104945,100892
104883,100855
104913,100857
104866,100847
104966,100905
105027,100915
104987,100888
104984,100893
104922,100877
105089,100966
105069,100955
105017,100919
105013,100886
104966,100887
105049,100958
105046,100917
105022,100946
104985,100885
104964,100878
105071,100905
105001,100933
105002,100899
104958,100877
104903,100865
105040,100907
104999,100953
104961,100884
104951,100890
104887,100848
104968,100884
104957,100923
104904,100842
104869,100811
104862,100844
104908,100863
104927,100859
104895,100864
104833,100830
104851,100833
104912,100876
104939,100861
104894,100854
104876,100813
104869,100817
104955,100889
104970,100876
104958,100906
104880,100834
104909,100859
105016,100922
104991,100912
105019,100893
104959,100873
104952,100893
105054,100948
105075,100953
105025,100890
105052,100892
105016,100922
105117,100976
105155,100966
105139,100959
105096,100898
105105,100949
105224,101021
105234,101020
105232,100999
105172,100943
105216,101003
105292,101040
105345,101067
105329,101018
105271,100999
105347,101032
105397,101092
105447,101089
105426,101097
105409,101079
105424,101080
105506,101140
105513,101129
105518,101135
105484,101093
105527,101107
105621,101153
105634,101206
105607,101138
105602,101143
105601,101151
105715,101214
105730,101239
105689,101194
105653,101178
105674,101215
105795,101232
105772,101251
105791,101256
105727,101222
105752,101224
105865,101301
105872,101295
105833,101269
105777,101232
105828,101273
105894,101326
105929,101325
105906,101288
105832,101263
105861,101276
105926,101345
105954,101341
105955,101322
105932,101281
105922,101310
105990,101379
105998,101333
105990,101329
105956,101305
105986,101352
106083,101425
106039,101372
106072,101366
105973,101328
106048,101362
106123,101406
106066,101395
106057,101368
106030,101340
106038,101344
106155,101440
106108,101411
106071,101386
106082,101336
106066,101410
106170,101427
106165,101424
106106,101368
106069,101377
106109,101376
106212,101478
106186,101430
106178,101442
106073,101382
106148,101422
106198,101486
106217,101460
106196,101422
106148,101373
106218,101442
106292,101533
106225,101430
106248,101453
106212,101428
106263,101440
106360,101521
106278,101502
106286,101471
106244,101413
106345,101506
106390,101549
106385,101546
106380,101514
106286,101477
106386,101503
106424,101586
106383,101502
106333,101522
106229,101414
106158,101424
106118,101416
105978,101323
105807,101254
105603,101097
105546,101108
105420,101090
105263,100965
105144,100911
104954,100834
104934,100827
104865,100831
104770,100745
104666,100699
104529,100603
104504,100657
104519,100630
104425,100592
104344,100561
104237,100490
104216,100511
104239,100520
104189,100528
104130,100476
104078,100387
104070,100471
104105,100456
104064,100429
104036,100430
103966,100351
104045,100428
104072,100456
104071,100417
104024,100448
103988,100361
104057,100439
104134,100488
104075,100429
104091,100440
104019,100367
104095,100455
104216,100491
104131,100461
104184,100490
104095,100449
104193,100521
104289,100536
104237,100530
104240,100494
104158,100484
104240,100504
104308,100578
104254,100504
104262,100518
104170,100481
104307,100532
104337,100544
104320,100569
104291,100533
104246,100496
104323,100597
104369,100559
104380,100572
104339,100536
104311,100526
104387,100612
104431,100611
104415,100609
104393,100560
104343,100551
104440,100627
104472,100623
104418,100605
104432,100585
104334,100553
104422,100608
104449,100637
104432,100564
104373,100583
104314,100541
104397,100568
104446,100602
104377,100576
104347,100547
104264,100497
104361,100551
104423,100602
104345,100556
104314,100530
104291,100509
104321,100585
104361,100547
104339,100575
104286,100507
104240,100477
104323,100548
104298,100549
104327,100534
104258,100489
104206,100473
104301,100548
104338,100594
104284,100522
104291,100524
104257,100457
104302,100534
104332,100555
104295,100498
104319,100507
104254,100507
104318,100552
104377,100556
104379,100576
104340,100529
104312,100473
104437,100602
104416,100607
104406,100582
104385,100549
104372,100502
104462,100629
104483,100614
104475,100590
104441,100568
104397,100570
104492,100650
104520,100658
104510,100597
104494,100626
104460,100572
104593,100653
104602,100646
104626,100667
104576,100660
104546,100612
104656,100700
104684,100694
104651,100688
104646,100656
104636,100677
104715,100700
104745,100745
104744,100692
104710,100706
104703,100698
104802,100777
104827,100746
104807,100758
104803,100712
104780,100704
104874,100802
104896,100821
104885,100772
104856,100763
104834,100754
104933,100834
104943,100793
104970,100832
104903,100824
104877,100795
105003,100858
105021,100849
104989,100837
104963,100785
104917,100841
105036,100866
105070,100879
105044,100851
105018,100830
104979,100825
105099,100884
105087,100897
105060,100890
105032,100832
105059,100844
105126,100937
105146,100899
105154,100897
105065,100850
105102,100861
105154,100906
105163,100916
105187,100922
105170,100887
105119,100884
105201,100953
105236,100941
105196,100962
105154,100894
105181,100890
105255,100964
105297,100967
105253,100962
105215,100903
105220,100954
105317,101005
105309,101004
105281,100967
105276,100921
105245,100960
105328,100983
105384,100995
105311,100959
105282,100945
105312,100974
105367,101031
105412,101057
105375,100995
105296,100991
105332,100956
105422,101060
105426,101016
105402,101024
105370,100969
105350,100979
105466,101060
105437,101069
105457,101031
105411,100996
105407,101016
105547,101092
105549,101093
105497,101094
105468,101028
105500,101095
105586,101128
105629,101111
105563,101107
105567,101065
105556,101102
105637,101129
105645,101117
105678,101156
105643,101114
105626,101119
105761,101164
105744,101193
105681,101163
105676,101090
105627,101096
105698,101149
105600,101120
105496,101025
105312,100954
105232,100879
105145,100877
105029,100812
104856,100732
104749,100653
104610,100606
104585,100613
104515,100558
104340,100490
104252,100461
104151,100377
104183,100444
104063,100349
103990,100314
103902,100240
103849,100278
103831,100254
103811,100253
103731,100193
103603,100139
103597,100182
103611,100157
103609,100141
103560,100139
103482,100054
103518,100119
103511,100168
103531,100105
103483,100110
103456,100031
103483,100101
103528,100133
103521,100146
103530,100136
103511,100049
103528,100107
103614,100195
103605,100158
103607,100116
103591,100132
103616,100141
103712,100194
103711,100183
103676,100199
103604,100104
103667,100197
103734,100224
103719,100198
103736,100186
103647,100164
103680,100179
103789,100231
103735,100241
103748,100219
103656,100159
103745,100217
103771,100280
103794,100224
103760,100211
103705,100172
103761,100219
103840,100279
103828,100246
103814,100262
103768,100184
103823,100246
103903,100303
103875,100243
103862,100273
103788,100215
103868,100258
103914,100319
103885,100248
103871,100276
103767,100183
103842,100275
103906,100289
103859,100233
103831,100243
103805,100218
103805,100233
103927,100274
103846,100257
103804,100188
103771,100175
103807,100239
103853,100285
103835,100241
103779,100220
103742,100175
103773,100206
103849,100262
103808,100224
103782,100205
103724,100177
103774,100206
103853,100280
103806,100204
103791,100201
103752,100174
103819,100206
103859,100261
103815,100250
103819,100228
103779,100185
103832,100251
103904,100267
103848,100251
103882,100253
103804,100179
103891,100276
103960,100296
103906,100269
103890,100256
103859,100191
103946,100296
103984,100348
103955,100292
103943,100287
103922,100247
103970,100332
104036,100295
104024,100319
104018,100297
103966,100257
104016,100332
104103,100344
104055,100369
104059,100330
104029,100299
104097,100359
104130,100407
104154,100394
104174,100377
104083,100343
104207,100401
104242,100412
104223,100390
104220,100414
104144,100361
104228,100418
104308,100433
104283,100435
104274,100428
104233,100378
104337,100471
104394,100516
104366,100456
104354,100454
104298,100412
104420,100495
104409,100534
104442,100472
104407,100480
104367,100446
104458,100491
104509,100579
104489,100502
104459,100516
104381,100475
104490,100522
104539,100563
104501,100525
104504,100541
104435,100486
104506,100553
104584,100584
104533,100545
104563,100537
104484,100510
104591,100592
104588,100609
104589,100560
104574,100562
104526,100525
104612,100580
104614,100618
104617,100605
104602,100548
104543,100549
104643,100599
104667,100633
104623,100595
104659,100590
104576,100564
104662,100635
104691,100668
104694,100613
104653,100581
104621,100574
104724,100642
104728,100674
104717,100639
104723,100630
104676,100584
104745,100648
104797,100652
104772,100666
104747,100626
104706,100633
104807,100667
104834,100689
104804,100684
104773,100638
104733,100614
104819,100697
104904,100707
104853,100692
104814,100668
104766,100649
104889,100725
104870,100722
104874,100716
104864,100688
104813,100654
104962,100749
104959,100764
104922,100730
104888,100694
104864,100696
105017,100763
105004,100764
104948,100759
104946,100735
104913,100729
105046,100780
105061,100784
104984,100773
105003,100770
104965,100743
105075,100826
105091,100821
105076,100789
105069,100813
105030,100789
105166,100849
105177,100857
105158,100825
105146,100817
105116,100789
105234,100867
105220,100895
105235,100878
105210,100844
105195,100842
105323,100919
105284,100918
105270,100899
105236,100852
105188,100885
105252,100875
105195,100901
105102,100813
104970,100706
104808,100684
104790,100645
104676,100590
104500,100526
104395,100460
104276,100388
104228,100409
104158,100381
104032,100272
103912,100224
103792,100177
103753,100173
103680,100145
103608,100075
103459,99985
103390,99979
103406,100019
103344,99977
103258,99938
103195,99896
103137,99840
103147,99897
103131,99881
103086,99859
103016,99796
102976,99769
103068,99847
103038,99862
102978,99811
102954,99795
102954,99770
103003,99835
103048,99835
102981,99831
102981,99809
102994,99796
103046,99843
103070,99855
103044,99847
103047,99843
103045,99827
103119,99910
103145,99889
103143,99874
103099,99874
103074,99845
103176,99929
103179,99913
103142,99895
103103,99865
103110,99859
103179,99920
103192,99934
103186,99906
103095,99864
103122,99905
103218,99932
103215,99920
103171,99894
103145,99860
103159,99898
103230,99942
103262,99917
103227,99917
103183,99908
103202,99916
103280,99957
103297,99966
103276,99957
103264,99931
103214,99922
103328,99982
103326,99971
103281,99928
103227,99898
103245,99916
103321,99974
103306,99959
103279,99960
103230,99880
103225,99909
103317,99954
103300,99927
103263,99942
103238,99897
103239,99919
103308,99959
103258,99915
103262,99935
103211,99889
103194,99891
103308,99965
103254,99941
103243,99900
103198,99851
103220,99876
103239,99946
103249,99927
103225,99898
103225,99862
103212,99897
103310,99951
103244,99915
103263,99896
103207,99866
103271,99912
103349,100005
103310,99933
103318,99910
103265,99891
103315,99943
103358,100018
103396,99982
103362,99970
103321,99914
103356,99994
103440,100000
103449,100005
103398,99986
103385,99945
103408,99992
103511,100044
103511,100026
103501,100022
103467,99991
103475,100066
103566,100059
103574,100063
103569,100045
103524,100018
103561,100051
103688,100112
103601,100097
103625,100097
103597,100068
103644,100082
103752,100150
103704,100124
103714,100149
103666,100078
103740,100125
103825,100208
103811,100144
103816,100149
103786,100121
103841,100196
103894,100210
103906,100240
103894,100219
103852,100153
103928,100246
103954,100246
103974,100233
103944,100241
103892,100204
103969,100243
104012,100276
104041,100260
103996,100283
103943,100201
103990,100274
104097,100336
104041,100300
104070,100286
103998,100269
104114,100308
104128,100347
104122,100332
104094,100289
104085,100273
104127,100325
104194,100380
104150,100324
104193,100347
104085,100298
104166,100372
104194,100383
104199,100386
104196,100363
104136,100293
104243,100375
104267,100409
104281,100400
104253,100375
104188,100329
104276,100401
104334,100457
104310,100396
104300,100412
104210,100347
104304,100397
104411,100474
104341,100410
104348,100433
104283,100379
104356,100422
104458,100493
104448,100437
104424,100451
104393,100413
104404,100480
104540,100507
104479,100475
104483,100480
104396,100430
104494,100526
104544,100519
104542,100512
104492,100492
104482,100470
104580,100536
104600,100543
104596,100521
104570,100552
104505,100467
104599,100567
104686,100556
104677,100582
104610,100543
104601,100515
104740,100585
104732,100622
104751,100610
104737,100602
104718,100551
104812,100644
104837,100661
104844,100656
104875,100642
104805,100621
104890,100669
104945,100686
104935,100670
104951,100701
104853,100607
104935,100706
104974,100681
104903,100675
104824,100606
104678,100538
104664,100564
104540,100483
104415,100410
104246,100337
104120,100245
104101,100271
103978,100224
103872,100152
103731,100130
103610,100012
103608,100053
103531,100017
103455,99961
103376,99917
103256,99860
103254,99899
103236,99859
103152,99815
103090,99793
102989,99737
103042,99796
103052,99798
102952,99742
102938,99707
102893,99710
102939,99732
102994,99773
102905,99717
102905,99676
102864,99696
102918,99773
102990,99773
102926,99737
102942,99685
102920,99739
103011,99781
103065,99777
103064,99806
103081,99762
103009,99757
103145,99857
103154,99857
103167,99813
103130,99802
103097,99777
103246,99903
103241,99917
103223,99855
103215,99863
103178,99839
103301,99901
103316,99941
103294,99897
103305,99898
103240,99859
103361,99949
103423,99949
103378,99964
103340,99896
103355,99959
103445,99985
103486,100023
103455,99991
103449,99989
103448,99968
103531,100014
103600,100049
103576,100015
103522,100024
103509,99995
103587,100060
103572,100054
103565,100014
103542,100010
103508,100015
103561,100051
103608,100061
103565,100032
103549,100032
103474,99963
103579,100049
103545,100073
103540,99985
103523,100012
103454,99956
103546,100018
103579,100048
103516,100021
103467,99978
103438,99957
103565,100053
103561,100000
103558,100017
103461,99989
103485,99969
103544,100015
103557,100021
103534,100002
103488,99928
103509,99999
103582,100052
103559,100021
103565,99997
103558,100008
103505,99989
103614,100063
103640,100057
103629,100038
103563,100015
103575,100029
103683,100090
103677,100107
103671,100077
103630,100066
103659,100047
103757,100125
103805,100094
103753,100121
103705,100066
103743,100116
103818,100170
103842,100140
103851,100122
103774,100138
103822,100124
103915,100199
103941,100189
103933,100194
103889,100154
103931,100176
103992,100237
104013,100220
104004,100227
103936,100204
104003,100229
104082,100280
104080,100286
104083,100239
104024,100233
104080,100251
104187,100333
104184,100333
104154,100306
104132,100284
104146,100261
104260,100364
104261,100340
104239,100348
104224,100313
104214,100337
104310,100369
104317,100375
104306,100384
104274,100358
104273,100361
104364,100422
104380,100412
104353,100383
104322,100368
104352,100417
104459,100459
104425,100439
104405,100443
104366,100390
104435,100409
104480,100472
104496,100492
104466,100436
104447,100414
104450,100435
104514,100503
104547,100479
104519,100485
104441,100407
104521,100481
104584,100554
104605,100526
104554,100517
104507,100433
104523,100506
104636,100556
104622,100515
104605,100507
104554,100494
104610,100517
104670,100558
104689,100524
104662,100541
104577,100479
104644,100544
104732,100586
104691,100570
104661,100531
104601,100506
104632,100551
104732,100590
104704,100565
104703,100533
104689,100529
104705,100571
104811,100597
104768,100589
104790,100580
104703,100574
104787,100605
104844,100652
104824,100646
104808,100584
104808,100580
104864,100615
104948,100691
104923,100684
104886,100632
104874,100596
104930,100641
104988,100728
104982,100678
104937,100676
104826,100597
104818,100584
104804,100589
104638,100516
104543,100457
104358,100387
104275,100337
104196,100320
104019,100227
103915,100176
103769,100080
103710,100081
103692,100097
103571,100011
103477,99973
103330,99905
103322,99892
103312,99895
103209,99869
103154,99867
103042,99748
103066,99782
103074,99807
102984,99758
102920,99720
102861,99692
102907,99708
102903,99739
102895,99704
102843,99720
102786,99640
102857,99699
102866,99720
102887,99708
102867,99685
102799,99678
102878,99745
102950,99729
102926,99783
102907,99708
102922,99724
102982,99775
103031,99800
103023,99818
103003,99764
103016,99760
103080,99814
103097,99831
103137,99843
103138,99819
103041,99769
103114,99838
103197,99899
103153,99846
103179,99823
103096,99827
103160,99845
103248,99901
103211,99861
103196,99880
103186,99782
103223,99901
103281,99931
103262,99874
103244,99884
103227,99841
103308,99916
103362,99933
103345,99923
103325,99907
103297,99865
103382,99919
103386,99937
103399,99955
103406,99930
103280,99899
103390,99959
103394,99980
103386,99937
103391,99954
103278,99870
103361,99927
103438,99960
103351,99935
103324,99910
103294,99897
103372,99918
103409,99962
103332,99916
103318,99904
103249,99880
103334,99941
103371,99916
103365,99913
103305,99910
103252,99860
103361,99931
103338,99921
103344,99920
103363,99893
103234,99850
103334,99923
103379,99929
103343,99933
103314,99898
103281,99905
103356,99947
103404,99929
103405,99944
103373,99937
103341,99881
103424,99969
103454,99973
103427,99934
103453,99972
103355,99888
103495,99999
103522,100058
103502,99987
103507,99983
103422,99943
103567,100011
103610,100062
103535,99992
103586,100019
103508,99970
103638,100083
103693,100107
103636,100085
103621,100014
103606,100005
103724,100098
103715,100114
103710,100081
103718,100108
103715,100073
103789,100164
103833,100189
103805,100147
103829,100096
103762,100130
103865,100183
103953,100190
103915,100201
103898,100120
103838,100158
103918,100228
103989,100213
103996,100205
103958,100211
103933,100197
103991,100244
104047,100276
104028,100235
104006,100201
103973,100229
104027,100266
104113,100304
104073,100303
104026,100242
104013,100254
104099,100282
104159,100348
104154,100308
104084,100276
104074,100288
104152,100334
104206,100327
104177,100309
104139,100283
104115,100285
104241,100336
104243,100344
104201,100334
104210,100327
104164,100298
104272,100376
104282,100381
104227,100347
104265,100308
104172,100335
104307,100392
104324,100422
104266,100395
104255,100333
104240,100369
104321,100394
104370,100398
104334,100419
104277,100352
104242,100355
104377,100440
104398,100423
104347,100430
104350,100350
104292,100389
104411,100443
104396,100431
104418,100423
104388,100406
104337,100398
104446,100459
104470,100476
104436,100453
104385,100383
104384,100419
104492,100480
104492,100474
104459,100436
104431,100467
104466,100433
104487,100522
104512,100528
104495,100480
104504,100490
104496,100462
104556,100542
104634,100562
104626,100529
104549,100493
104605,100499
104673,100589
104706,100563
104669,100572
104631,100508
104663,100554
104741,100610
104764,100611
104740,100586
104709,100562
104726,100541
104784,100618
104769,100604
104764,100572
104637,100555
104599,100523
104567,100518
104478,100445
104301,100367
104157,100284
104022,100205
103964,100225
103862,100207
103717,100105
103610,100022
103497,99964
103484,100015
103378,99940
103303,99882
103140,99826
103047,99814
103095,99822
103006,99753
102935,99739
102791,99696
102776,99654
102805,99682
102728,99631
102700,99604
102595,99588
102610,99558
102605,99605
102629,99614
102593,99551
102539,99525
102541,99509
102646,99593
102618,99595
102616,99554
102547,99569
102583,99559
102655,99636
102705,99614
102688,99613
102611,99596
102687,99619
102752,99675
102756,99678
102739,99639
102688,99627
102741,99651
102838,99701
102807,99686
102828,99650
102759,99666
102779,99665
102893,99716
102839,99715
102824,99660
102800,99663
102831,99678
102891,99731
102878,99724
102890,99708
102846,99659
102846,99688
102925,99750
102911,99718
102925,99733
102905,99684
102907,99715
102998,99784
102992,99762
102990,99758
102947,99701
102978,99735
103054,99817
103046,99788
102998,99742
102958,99707
102996,99775
103080,99806
103040,99779
103004,99766
102974,99695
102996,99764
103066,99784
103011,99774
102984,99756
102954,99710
102990,99756
103052,99785
103026,99761
102977,99739
102875,99690
102965,99763
103040,99781
102969,99728
102953,99748
102893,99686
102939,99729
102986,99744
102970,99760
102955,99716
102871,99672
102932,99717
103012,99734
102995,99747
102933,99751
102857,99688
102905,99728
103016,99777
102995,99727
102990,99762
102922,99681
102984,99756
103028,99788
103047,99763
103006,99765
102999,99749
103066,99782
103131,99831
103091,99776
103097,99815
103050,99775
103112,99852
103187,99834
103177,99827
103138,99817
103087,99823
103154,99804
103264,99910
103211,99846
103222,99868
103153,99835
103255,99856
103309,99933
103292,99878
103256,99892
103209,99861
103277,99901
103370,99968
103337,99912
103349,99922
103280,99855
103360,99945
103453,99978
103396,99970
103419,99970
103402,99909
103445,100014
103523,99996
103469,99980
103477,99995
103438,99939
103520,100020
103532,100030
103522,100003
103524,100009
103462,99938
103560,100018
103571,100055
103581,100041
103561,99995
103483,99963
103569,100064
103642,100031
103611,100057
103586,100045
103551,99995
103666,100066
103696,100108
103625,100069
103632,100051
103569,100043
103679,100101
103720,100098
103685,100111
103657,100106
103646,100043
103718,100094
103764,100129
103743,100126
103723,100128
103680,100048
103771,100120
103815,100166
103795,100147
103754,100134
103698,100117
103775,100145
103850,100207
103829,100154
103801,100144
103770,100127
103865,100167
103895,100206
103881,100209
103849,100172
103814,100140
103928,100221
103974,100209
103937,100206
103910,100204
103870,100208
104000,100224
103996,100252
103961,100236
104017,100224
103945,100182
104077,100293
104064,100268
104052,100275
104068,100264
104017,100246
104119,100285
104137,100320
104116,100305
104122,100271
104108,100270
104162,100343
104217,100331
104190,100319
104194,100297
104148,100303
104222,100381
104316,100404
104282,100356
104286,100355
104214,100341
104312,100391
104398,100418
104377,100425
104344,100372
104329,100400
104438,100442
104467,100419
104470,100436
104449,100431
104443,100427
104507,100479
104546,100510
104489,100470
104471,100453
104401,100424
104418,100446
104407,100416
104247,100370
104127,100273
103954,100176
103911,100171
103814,100169
103663,100055
103556,99997
103369,99909
103399,99947
103289,99888
103215,99845
103070,99789
102930,99690
102970,99735
102911,99704
102810,99674
102683,99586
102606,99556
102685,99619
102597,99558
102555,99512
102484,99497
102391,99460
102471,99492
102472,99474
102428,99467
102385,99452
102334,99380
102434,99478
102423,99474
102430,99450
102375,99463
102379,99413
102490,99518
102478,99499
102489,99519
102483,99488
102433,99471
102568,99550
102573,99565
102606,99527
102549,99532
102553,99537
102679,99592
102694,99614
102654,99594
102694,99598
102630,99547
102767,99651
102740,99632
102733,99626
102749,99618
102661,99591
102788,99644
102802,99641
102799,99645
102765,99609
102749,99653
102820,99670
102888,99708
102878,99690
102825,99634
102853,99658
102937,99734
102976,99727
102936,99755
102914,99696
102955,99691
103023,99750
103026,99769
102988,99746
103000,99707
102949,99734
103073,99796
103041,99766
103016,99781
103000,99695
102967,99711
103067,99779
103084,99804
103045,99782
102994,99724
103001,99742
103056,99766
103088,99757
103048,99746
102978,99743
102971,99692
103077,99795
103058,99747
102975,99724
102978,99702
102949,99727
103012,99783
103044,99741
102989,99755
102960,99704
102932,99697
103038,99733
103043,99790
103006,99731
102994,99715
102989,99724
103101,99778
103054,99761
103059,99738
103023,99744
103013,99733
103164,99815
103130,99801
103121,99817
103100,99737
103101,99807
103204,99842
103208,99819
103218,99860
103194,99834
103185,99844
103304,99935
103316,99908
103285,99867
103289,99845
103305,99884
103361,99959
103446,99952
103402,99942
103344,99918
103379,99924
103509,99961
103468,100009
103490,99954
103466,99960
103513,99972
103551,100055
103588,100039
103591,100040
103551,99989
103593,100039
103718,100099
103711,100076
103697,100093
103656,100051
103707,100076
103784,100145
103779,100136
103800,100133
103759,100100
103791,100122
103877,100193
103868,100142
103874,100145
103804,100106
103854,100164
103936,100212
103920,100166
103919,100179
103884,100157
103904,100183
104035,100241
103969,100222
103969,100185
103932,100168
103967,100208
104067,100291
104051,100275
104015,100224
103992,100220
104006,100223
104100,100292
104090,100274
104067,100272
104021,100199
104090,100276
104146,100309
104134,100301
104131,100292
104077,100225
104107,100313
104161,100339
104169,100329
104128,100293
104083,100252
104145,100308
104245,100383
104188,100295
104166,100308
104146,100286
104165,100306
104269,100370
104220,100344
104243,100326
104181,100311
104204,100349
104304,100411
104303,100361
104266,100349
104242,100379
104299,100391
104352,100398
104310,100405
104313,100396
104244,100369
104316,100386
104431,100477
104382,100424
104369,100410
104329,100393
104409,100444
104477,100486
104458,100465
104424,100453
104383,100439
104470,100490
104554,100525
104532,100485
104516,100489
104509,100472
104551,100525
104649,100578
104599,100537
104615,100540
104583,100509
104629,100556
104636,100560
104608,100565
104559,100515
104418,100418
104390,100415
104310,100408
104207,100342
104039,100248
103897,100173
103839,100172
103788,100151
103636,100068
103528,100017
103413,99915
103380,99965
103322,99918
103207,99873
103126,99823
103006,99751
103026,99799
102996,99747
102904,99723
102824,99701
102785,99631
102753,99656
102786,99716
102722,99669
102671,99632
102655,99581
102692,99651
102722,99643
102674,99637
102699,99625
102593,99559
102673,99606
102738,99682
102694,99678
102703,99639
102635,99601
102742,99651
102812,99714
102792,99700
102783,99693
102745,99672
102832,99691
102918,99761
102865,99722
102899,99747
102827,99702
102950,99778
102964,99753
102934,99772
102981,99748
102893,99731
103004,99749
103065,99853
103030,99796
102993,99786
102986,99761
103066,99847
103124,99829
103112,99793
103037,99835
103003,99776
103124,99826
103188,99909
103151,99864
103151,99839
103108,99857
103182,99885
103241,99896
103227,99884
103197,99894
103185,99864
103234,99930
103287,99926
103236,99931
103206,99878
103157,99865
103256,99928
103296,99915
103273,99911
103240,99898
103153,99870
103256,99918
103290,99927
103206,99925
103193,99888
103149,99844
103256,99902
103263,99950
103194,99893
103191,99845
103109,99838
103229,99899
103201,99914
103205,99907
103179,99868
103136,99818
103198,99894
103230,99911
103202,99884
103151,99858
103159,99831
103225,99931
103255,99907
103240,99897
103195,99898
103149,99843
103256,99905
103275,99969
103276,99898
103261,99895
103198,99869
103334,99978
103362,99980
103345,99958
103320,99941
103288,99945
103377,99991
103437,100011
103400,99972
103383,99991
103362,99963
103504,100002
103495,100063
103469,100024
103519,100020
103456,100010
103555,100045
103587,100113
103602,100083
103571,100032
103600,100042
103652,100157
103711,100125
103684,100132
103687,100108
103672,100128
103761,100205
103851,100198
103811,100178
103792,100177
103761,100148
103926,100247
103936,100245
103935,100234
103907,100232
103861,100205
103997,100272
104021,100310
104006,100290
104019,100252
103986,100277
104076,100366
104154,100324
104095,100334
104055,100326
104068,100299
104193,100389
104221,100372
104215,100381
104171,100355
104141,100328
104255,100405
104246,100399
104264,100418
104226,100382
104209,100358
104322,100454
104308,100430
104290,100409
104305,100412
104298,100404
104344,100458
104405,100480
104320,100447
104281,100419
104274,100420
104401,100475
104371,100476
104359,100434
104371,100479
104337,100466
104446,100498
104450,100523
104381,100500
104400,100454
104361,100457
104478,100502
104461,100549
104433,100485
104463,100501
104404,100463
