11111,11111
0,0
81440,82236
103501,109417
103455,109391
103442,109352
103480,109407
103560,109433
103532,109415
103496,109432
103488,109398
103568,109454
103601,109437
103632,109436
103582,109429
103614,109428
103640,109461
103687,109465
103683,109494
103637,109417
103692,109465
103755,109494
103753,109476
103782,109486
103711,109477
103695,109462
103776,109508
103792,109488
103742,109468
103723,109456
103670,109460
103739,109455
103759,109482
103709,109477
103664,109384
103665,109421
103642,109412
103680,109433
103635,109431
103579,109340
103619,109378
103603,109376
103631,109457
103538,109381
103549,109332
103548,109366
103580,109393
103557,109372
103578,109361
103525,109332
103572,109349
103561,109405
103594,109403
103545,109374
103516,109306
103561,109343
103609,109379
103614,109399
103601,109378
103520,109328
103515,109331
103611,109404
103633,109380
103619,109350
103573,109372
103562,109353
103642,109412
103636,109402
103657,109390
103634,109348
103639,109368
103692,109353
103694,109432
103680,109373
103696,109369
103703,109399
103760,109416
103787,109424
103775,109430
103723,109384
103761,109410
103832,109439
103889,109491
103844,109495
103818,109404
103861,109470
103909,109505
103919,109519
103893,109461
103929,109485
103921,109512
104003,109497
104032,109533
103985,109543
104011,109475
104031,109523
104068,109534
104090,109551
104089,109549
104057,109502
104065,109520
104112,109615
104124,109552
104086,109585
103995,109496
103980,109517
104023,109542
103927,109475
103860,109390
103727,109350
103660,109348
103575,109272
103519,109251
103362,109147
103222,109095
103116,109094
103041,109016
102946,108957
102833,108890
102677,108871
102592,108812
102526,108816
102473,108785
102378,108702
102294,108696
102237,108640
102113,108610
102463,108720
102483,108738
102388,108678
102374,108660
102413,108719
102570,108743
102519,108750
102506,108722
102570,108760
102757,108800
102749,108859
102745,108829
102747,108843
102755,108800
102827,108858
102820,108831
102837,108857
102818,108873
102794,108825
102875,108860
102839,108893
102851,108864
102843,108848
102781,108840
102806,108823
102723,108783
102710,108768
102559,108750
102475,108672
102428,108674
102311,108586
102262,108528
102071,108469
101951,108390
101903,108394
101776,108340
101665,108243
101539,108250
101404,108159
101386,108156
101303,108078
101203,108053
101140,108040
101065,107993
101069,107971
101021,107999
100975,107951
100934,107936
100878,107894
100863,107920
100885,107905
100834,107892
100811,107865
100801,107885
100800,107857
100826,107896
100856,107889
100813,107855
100791,107850
100796,107882
100818,107890
100803,107853
100808,107880
100799,107848
100876,107901
100885,107886
100884,107916
100895,107865
100848,107906
100901,107899
100937,107954
100923,107885
100957,107907
100944,107919
101024,107940
101076,107992
101049,107961
101083,107959
101127,107979
101149,108053
101187,108029
101217,108030
101211,108060
101256,108070
101286,108105
101328,108098
101374,108117
101318,108075
101363,108100
101407,108142
101397,108153
101413,108112
101399,108159
101425,108137
101453,108139
101477,108169
101434,108163
101431,108135
101437,108145
101463,108151
101489,108166
101486,108160
101406,108102
101438,108104
101463,108162
101458,108168
101454,108141
101420,108111
101418,108123
101406,108159
101442,108127
101459,108145
101398,108150
101391,108113
101457,108149
101467,108132
101489,108152
101416,108143
101408,108131
101490,108182
101481,108184
101494,108194
101445,108159
101448,108135
101548,108200
101537,108221
101566,108214
101481,108166
101513,108145
101609,108246
101601,108213
101580,108207
101598,108201
101544,108199
101627,108232
101659,108279
101644,108220
101600,108220
101601,108222
101727,108246
101731,108281
101679,108254
101702,108225
101689,108222
101737,108288
101764,108293
101806,108293
101756,108304
101748,108290
101858,108317
101872,108348
101839,108324
101867,108313
101834,108341
101907,108359
101950,108395
101943,108382
101898,108322
101968,108360
101978,108446
102027,108423
102042,108417
101998,108374
102040,108392
102057,108482
102107,108434
102120,108448
102065,108439
102132,108461
102204,108516
102227,108535
102230,108530
102201,108474
102241,108493
102291,108560
102298,108550
102366,108534
102296,108552
102328,108551
102373,108584
102407,108563
102428,108589
102338,108528
102329,108526
102354,108567
102303,108527
102202,108490
102130,108431
102032,108376
102009,108355
101896,108329
101811,108254
101649,108147
101570,108169
101468,108100
101396,108111
101297,108008
101151,107912
101088,107937
101019,107916
100992,107913
100875,107831
100814,107809
100763,107799
100798,107826
100770,107834
100712,107737
100680,107750
100635,107717
100707,107742
100701,107757
100621,107741
100639,107682
100631,107745
100657,107745
100672,107758
100655,107758
100609,107686
100627,107713
100664,107730
100693,107759
100706,107733
100623,107723
100639,107763
100723,107753
100744,107791
100696,107760
100693,107743
100692,107769
100745,107785
100769,107806
100728,107754
100757,107756
100814,107783
100817,107830
100861,107839
100911,107832
100846,107824
100893,107853
100989,107890
101047,107891
101001,107912
100993,107854
101059,107936
101107,107957
101147,107946
101135,107942
101088,107934
101119,107938
101215,108012
101206,107988
101194,107963
101177,107909
101182,107965
101233,108029
101227,107989
101245,107959
101167,107952
101231,107986
101229,107968
101261,107991
101211,108012
101214,107945
101201,107986
101219,107976
101278,108008
101217,107992
101207,107945
101186,107964
101243,108008
101269,107988
101234,108014
101181,107941
101212,107993
101260,108007
101263,108021
101195,107986
101178,107935
101278,107987
101254,108033
101265,108018
101233,107985
101238,107958
101293,108044
101306,107994
101339,108042
101296,107992
101259,107989
101321,108016
101365,108041
101381,108073
101360,108014
101353,108021
101389,108057
101453,108073
101460,108109
101425,108051
101410,108064
101468,108088
101486,108111
101523,108134
101488,108085
101497,108130
101508,108101
101569,108141
101605,108159
101600,108153
101544,108121
101599,108146
101660,108202
101677,108216
101661,108167
101690,108148
101685,108228
101742,108209
101800,108268
101758,108206
101741,108206
101770,108216
101826,108285
101822,108226
101872,108281
101833,108214
101888,108269
101887,108298
101920,108319
101942,108306
101879,108270
101969,108321
101986,108352
102003,108313
102008,108356
101951,108300
102018,108350
102044,108373
102081,108387
102062,108380
102034,108325
102102,108373
102143,108416
102185,108407
102121,108416
102148,108373
102210,108444
102222,108428
102255,108454
102232,108418
102195,108407
102276,108477
102259,108452
102299,108498
102239,108404
102213,108416
102184,108443
102186,108387
102163,108386
102034,108298
101930,108246
101856,108257
101799,108198
101722,108158
101563,108095
101461,108014
101372,108004
101260,107970
101193,107897
101077,107849
100960,107804
100895,107785
100869,107790
100800,107750
100723,107683
100623,107638
100610,107680
100614,107636
100594,107652
100526,107549
100442,107561
100466,107595
100461,107605
100459,107597
100431,107544
100358,107510
100392,107538
100407,107549
100416,107540
100389,107534
100305,107512
100376,107519
100385,107553
100411,107552
100366,107525
100306,107497
100399,107551
100399,107555
100419,107549
100382,107526
100380,107521
100447,107565
100464,107590
100477,107568
100494,107568
100439,107552
100525,107606
100582,107607
100619,107629
100585,107633
100568,107610
100667,107663
100714,107723
100717,107690
100738,107700
100704,107672
100806,107696
100856,107782
100807,107751
100865,107727
100836,107725
100881,107786
100920,107766
100960,107810
100905,107753
100914,107773
100965,107836
100983,107807
100948,107788
100988,107800
100934,107795
100983,107842
101000,107798
101011,107827
100963,107764
100949,107782
101009,107819
101037,107851
101014,107827
101025,107785
100986,107805
101016,107834
101085,107822
101057,107862
101020,107803
101028,107823
101071,107850
101072,107867
101074,107826
101062,107844
101033,107828
101125,107860
101099,107882
101135,107872
101079,107830
101108,107858
101168,107897
101186,107921
101154,107886
101180,107902
101144,107881
101206,107919
101250,107939
101243,107935
101208,107876
101251,107914
101287,107937
101339,107988
101335,107971
101307,107923
101297,107947
101337,107991
101419,107995
101445,108013
101358,107967
101377,107993
101462,108033
101503,108041
101478,108045
101471,108010
101478,108016
101566,108098
101579,108069
101561,108074
101568,108088
101515,108071
101604,108073
101620,108122
101669,108101
101596,108100
101616,108085
101718,108173
101730,108145
101725,108146
101717,108125
101664,108154
101802,108182
101833,108207
101815,108209
101812,108175
101794,108194
101846,108210
101891,108224
101888,108254
101871,108209
101862,108219
101943,108257
101936,108248
101989,108258
101924,108258
101915,108254
102012,108312
102064,108295
102006,108309
102026,108253
102046,108312
102099,108329
102151,108351
102112,108316
102122,108320
102058,108360
102176,108351
102185,108390
102228,108364
102155,108336
102183,108354
102188,108386
102223,108365
102232,108359
102140,108334
102131,108324
102117,108321
102106,108320
101996,108289
101886,108186
101790,108169
101773,108174
101682,108084
101626,108095
101428,107959
101345,107940
101269,107900
101172,107881
101078,107789
100924,107722
100862,107687
100827,107681
100805,107671
100682,107645
100601,107555
100480,107560
100532,107582
100503,107572
100408,107520
100334,107455
100316,107450
100353,107481
100339,107494
100285,107433
100273,107446
100237,107436
100261,107424
100289,107444
100214,107456
100171,107371
100202,107382
100253,107431
100255,107441
100209,107380
100184,107397
100220,107396
100217,107425
100256,107439
100255,107419
100245,107366
100286,107434
100305,107448
100325,107471
100322,107475
100302,107426
100381,107462
100399,107496
100454,107496
100464,107513
100448,107509
100472,107556
100550,107560
100562,107595
100557,107586
100535,107561
100599,107605
100648,107609
100707,107645
100686,107652
100683,107608
100719,107644
100772,107669
100829,107688
100802,107708
100788,107686
100833,107700
100901,107746
100881,107747
100914,107713
100849,107733
100878,107724
100972,107750
100988,107776
100965,107796
100883,107721
100953,107736
100957,107804
101002,107798
100974,107747
100935,107755
100949,107765
101017,107786
101007,107794
100990,107762
100976,107768
100974,107763
101062,107833
101024,107797
101029,107780
100976,107776
101025,107781
101079,107823
101097,107864
101065,107791
101058,107771
101052,107792
101124,107846
101120,107839
101117,107809
101075,107809
101077,107846
101135,107811
101165,107869
101122,107875
101086,107767
101152,107837
101162,107871
101205,107866
101214,107839
101173,107875
101162,107867
101261,107938
101244,107910
101218,107875
101204,107849
101272,107919
101316,107935
101342,107929
101319,107916
101300,107894
101332,107971
101384,107936
101409,107980
101381,107953
101394,107948
101423,107999
101458,107987
101501,108028
101450,108013
101437,107960
101499,108041
101571,108064
101535,108063
101564,108032
101523,108045
101523,108054
101631,108093
101611,108050
101635,108086
101578,108050
101615,108101
101671,108077
101719,108104
101704,108068
101644,108063
101693,108141
101749,108122
101761,108154
101702,108120
101719,108108
101752,108162
101777,108150
101801,108144
101774,108175
101751,108105
101805,108171
101818,108193
101861,108177
101811,108170
101795,108138
101834,108189
101889,108210
101846,108191
101870,108167
101798,108155
101891,108223
101896,108186
101926,108246
101898,108221
101805,108157
101898,108171
101917,108235
101888,108183
101821,108157
101734,108090
101744,108136
101706,108097
101665,108064
101554,108028
101425,107957
101421,107941
101315,107934
101229,107848
101130,107820
100991,107720
100944,107737
100878,107667
100789,107681
100648,107552
100537,107529
100461,107497
100404,107480
100335,107421
100197,107401
100090,107308
100061,107337
100013,107323
99946,107236
99866,107228
99769,107151
99780,107176
99721,107169
99721,107136
99633,107097
99575,107068
99575,107056
99596,107091
99520,107068
99493,107000
99435,106969
99431,107049
99426,106984
99410,106973
99351,106968
99334,106928
99400,106973
99357,107009
99357,106957
99362,106989
99289,106926
99414,106964
99410,106998
99419,107007
99431,106966
99407,106979
99463,107008
99527,107070
99529,107049
99511,107012
99542,107023
99606,107108
99645,107079
99669,107133
99693,107089
99674,107128
99719,107160
99784,107167
99810,107180
99789,107159
99821,107170
99852,107228
99919,107252
99957,107220
99905,107251
99889,107217
100038,107293
100055,107325
100063,107312
99997,107277
100007,107266
100087,107338
100125,107346
100109,107332
100075,107308
100047,107304
100143,107375
100145,107363
100136,107369
100129,107354
100101,107319
100157,107391
100181,107378
100199,107370
100128,107372
100153,107357
100204,107406
100260,107396
100217,107366
100228,107378
100194,107381
100229,107437
100247,107416
100284,107413
100229,107425
100245,107401
100280,107455
100297,107456
100305,107417
100269,107453
100262,107396
100341,107486
100325,107470
100360,107442
100330,107457
100292,107443
100397,107465
100399,107496
100414,107482
100364,107445
100339,107447
100419,107507
100435,107554
100449,107500
100401,107487
100403,107492
100469,107520
100496,107571
100454,107498
100464,107511
100471,107508
100526,107516
100552,107568
100537,107560
100516,107515
100509,107531
100567,107556
100601,107599
100611,107573
100567,107559
100559,107564
100621,107591
100626,107616
100674,107613
100664,107578
100620,107576
100702,107628
100716,107651
100752,107655
100715,107642
100686,107621
100783,107693
100824,107686
100793,107678
100785,107639
100792,107655
100817,107707
100862,107716
100876,107692
100808,107672
100862,107681
100891,107744
100901,107759
100940,107725
100917,107687
100920,107713
100948,107740
101013,107790
100964,107780
100936,107750
100929,107736
101025,107792
101070,107806
101014,107794
100982,107750
101026,107760
101052,107841
101073,107792
101073,107819
101028,107765
101040,107767
101081,107846
101102,107841
101098,107826
101052,107768
101080,107794
101035,107782
101040,107786
101001,107727
100860,107694
100817,107662
100747,107639
100701,107625
100652,107567
100485,107499
100413,107474
100431,107478
100334,107447
100252,107407
100082,107317
100013,107266
100025,107256
99968,107259
99894,107211
99751,107153
99687,107091
99706,107163
99650,107097
99562,107066
99480,106978
99408,106949
99392,107010
99305,106932
99276,106895
99182,106820
99178,106849
99132,106819
99130,106818
99034,106787
98955,106726
98913,106727
98965,106745
98910,106724
98878,106683
98782,106654
98800,106633
98800,106694
98802,106645
98779,106632
98698,106559
98762,106600
98739,106600
98766,106621
98725,106582
98728,106572
98740,106636
98783,106626
98823,106645
98786,106637
98794,106612
98837,106643
98876,106692
98896,106706
98881,106701
98898,106675
98916,106709
98956,106736
99000,106721
98986,106736
98953,106715
98992,106748
99030,106776
99066,106781
99063,106774
99047,106755
99077,106782
99119,106818
99138,106851
99156,106830
99119,106800
99101,106828
99184,106855
99229,106875
99188,106864
99162,106854
99194,106861
99287,106919
99311,106895
99281,106884
99270,106895
99283,106913
99314,106936
99342,106943
99322,106907
99311,106875
99361,106949
99370,106940
99380,106955
99381,106970
99347,106885
99367,106979
99408,106958
99416,106978
99413,106992
99363,106926
99410,106970
99438,106963
99483,107015
99470,106995
99383,106989
99423,106964
99479,107028
99484,107004
99466,106989
99460,107000
99476,107011
99485,107035
99476,107002
99460,107042
99396,106946
99497,106982
99487,107015
99532,107044
99469,107003
99440,106941
99507,107033
99501,107023
99555,107037
99498,107023
99450,106989
99494,107004
99544,107052
99537,107045
99532,107033
99473,106975
99511,107075
99549,107063
99536,107050
99540,106999
99512,107014
99528,107020
99565,107072
99550,107054
99571,107070
99511,107009
99537,107074
99571,107048
99579,107056
99561,107036
99499,107029
99526,107005
99553,107074
99549,107044
99538,107043
99459,106999
99529,107032
99563,107032
99583,107063
99531,107026
99501,107025
99495,107019
99574,107069
99557,107048
99491,106999
99499,106996
99488,107005
99516,107057
99523,107031
99517,107023
99430,107004
99490,107014
99467,107037
99510,107013
99451,106982
99410,106933
99427,107015
99456,107003
99416,106981
99411,106941
99331,106937
99358,106937
99387,106992
99343,106956
99315,106923
99263,106882
99275,106915
99273,106885
99249,106907
99155,106804
99054,106775
99036,106768
98976,106756
98897,106720
98791,106625
98688,106593
98655,106600
98578,106573
98513,106503
98464,106461
98306,106409
98297,106389
98276,106391
98227,106360
98150,106294
98060,106268
98034,106229
98050,106252
97980,106219
97864,106184
97833,106114
97883,106187
97849,106142
97836,106130
97760,106066
97724,106053
97752,106082
97768,106101
97763,106122
97701,106049
97650,106020
97734,106096
97729,106082
97725,106081
97695,106048
97694,106044
97715,106062
97716,106080
97731,106086
97717,106075
97667,106055
97697,106073
97710,106097
97733,106102
97705,106053
97671,106075
97720,106049
97748,106105
97771,106085
97692,106097
97670,106041
97758,106139
97794,106129
97758,106120
97746,106090
97701,106050
97761,106143
97746,106115
97762,106103
97727,106092
97669,106079
97769,106107
97773,106127
97734,106126
97723,106063
97668,106063
97729,106108
97708,106089
97725,106089
97652,106040
97656,106040
97664,106112
97697,106114
97706,106077
97648,106054
97607,106021
97701,106107
97673,106099
97676,106070
97619,106026
97580,106052
97660,106060
97649,106087
97639,106041
97586,105984
97560,105996
97603,106049
97604,106034
97623,106026
97552,105990
97562,105975
97571,105999
97618,106036
97537,106024
97526,105964
97506,105989
97530,105985
97512,105966
97543,105988
97445,105940
97449,105917
97533,105960
97493,105948
97463,105948
97385,105909
97390,105914
97395,105895
97421,105950
97419,105887
97322,105885
97339,105843
97385,105892
97423,105915
97381,105875
97325,105882
97336,105857
97366,105875
97439,105916
97384,105921
97336,105867
97371,105869
97428,105896
97481,105957
97413,105944
97439,105910
97445,105926
97474,105983
97504,105958
97515,105941
97476,105955
97448,105960
97548,105996
97569,105977
97539,105987
97514,105975
97487,105961
97599,106016
97586,106025
97598,106003
97531,105972
97581,106001
97604,106069
97636,106034
97656,106025
97601,106008
97652,106021
97642,106087
97685,106049
97712,106084
97643,106039
97661,106067
97717,106102
97769,106107
97705,106063
97756,106076
97715,106115
97773,106094
97819,106145
97782,106151
97738,106079
97779,106096
97820,106179
97830,106148
97832,106157
97814,106116
97840,106161
97862,106164
97901,106211
97869,106179
97847,106166
97826,106155
97907,106212
97894,106202
97910,106180
97878,106158
97844,106141
97880,106175
97826,106197
97858,106138
97773,106085
97762,106113
97765,106100
97794,106095
97722,106125
97674,106033
97695,106056
97714,106085
97681,106083
97698,106081
97615,105998
97638,106039
97670,106065
97694,106065
97624,106051
97609,105994
97648,106058
97673,106055
97694,106054
97662,106071
97599,105989
97647,106045
97658,106031
97682,106096
97650,106054
97590,106010
97585,106051
97648,106020
97642,106071
97581,106003
97568,105995
97536,106014
97608,106010
97599,106018
97539,106005
97462,105977
97500,105995
97554,105980
97494,105983
97511,105971
97457,105917
97464,105946
97495,105945
97468,105955
97480,105950
97390,105890
97439,105918
97479,105941
97448,105916
97424,105929
97363,105878
97393,105910
97431,105907
97428,105931
97398,105907
97336,105849
97362,105884
97354,105893
97392,105890
97375,105885
97303,105811
97325,105850
97358,105866
97339,105863
97328,105881
97268,105790
97337,105843
97326,105887
97364,105877
97350,105884
97302,105840
97355,105856
97407,105913
97386,105923
97449,105899
97393,105891
97439,105907
97473,105972
97507,105972
97520,105967
97438,105925
97522,105947
97572,106011
97587,106026
97596,105998
97558,105967
97636,106023
97659,106033
97698,106049
97685,106075
97653,106045
97665,106031
97776,106116
97765,106093
97765,106109
97702,106034
97754,106075
97777,106146
97815,106128
97826,106109
97746,106070
97837,106150
97847,106186
97861,106154
97854,106159
97805,106082
97858,106183
97882,106156
97909,106167
97892,106150
97841,106122
97850,106129
97874,106167
97903,106179
97868,106131
97853,106130
97854,106151
97868,106177
97857,106128
97835,106126
97765,106071
97819,106132
97847,106114
97777,106089
97755,106058
97701,106029
97692,106060
97740,106072
97704,106048
97648,106027
97608,105956
97640,106038
97679,105998
97668,106019
97667,105979
97628,105975
97598,105991
97645,106009
97627,106002
97627,105985
97504,105937
97562,105957
97577,105949
97554,105927
97503,105883
97462,105869
97422,105904
97470,105912
97460,105875
97390,105838
97366,105799
97345,105838
97393,105854
97364,105814
97308,105795
97274,105755
97321,105761
97331,105810
97334,105791
97268,105762
97224,105729
97262,105775
97271,105806
97238,105744
97207,105699
97199,105689
97200,105682
97215,105737
97196,105715
97190,105674
97219,105671
97197,105719
97246,105751
97280,105757
97220,105711
97237,105681
97276,105762
97288,105761
97320,105749
97273,105737
97204,105692
97237,105732
97248,105689
97222,105692
97144,105648
97123,105623
97111,105642
97117,105660
97070,105596
97050,105603
96963,105535
97006,105568
97011,105561
96972,105563
96961,105522
96921,105528
96937,105506
96932,105520
96940,105504
96942,105498
96886,105506
96993,105526
96995,105572
96992,105515
96983,105537
97027,105535
97051,105572
97144,105619
97118,105616
97108,105556
97083,105599
97131,105651
97149,105613
97195,105626
97106,105600
97086,105602
97117,105614
97166,105600
97142,105630
97104,105547
97110,105556
97111,105563
97144,105594
97099,105608
97128,105548
97097,105526
97188,105645
97190,105621
97175,105611
97140,105603
97164,105606
97224,105638
97267,105690
97271,105662
97261,105661
97264,105667
97350,105706
97376,105715
97360,105697
97389,105690
97355,105716
97427,105751
97429,105757
97473,105749
97414,105719
97450,105753
97526,105794
97545,105837
97584,105824
97556,105797
97585,105798
97714,105891
97762,105913
97788,105930
97769,105944
97778,105927
97912,106005
97898,106018
97942,106020
97981,106005
97935,106039
98030,106037
98092,106110
98091,106082
98050,106040
98091,106097
98172,106149
98160,106169
98215,106141
98217,106171
98220,106164
98327,106233
98391,106227
98388,106270
98379,106247
98466,106247
98554,106345
98591,106361
98631,106406
98637,106362
98682,106398
98762,106465
98824,106500
98881,106498
98825,106505
98893,106522
98952,106609
99019,106588
99014,106598
99003,106585
98985,106578
99067,106627
99050,106620
99033,106632
99022,106582
99026,106581
99095,106655
99101,106649
99093,106641
99126,106628
99126,106632
99235,106672
99261,106748
99258,106712
99332,106731
99367,106770
99486,106838
99503,106857
99550,106848
99530,106865
99569,106855
99669,106941
99697,106956
99728,106961
99667,106925
99708,106922
99796,107032
99816,107018
99779,106995
99805,107000
99799,106998
99930,107064
99899,107073
99942,107073
99947,107009
99929,107047
100028,107105
100059,107135
100056,107086
100039,107110
100063,107106
100137,107166
100160,107203
100142,107138
100165,107170
100153,107178
100279,107194
100270,107249
100321,107209
100299,107252
100320,107231
100402,107291
100425,107316
100482,107301
100464,107285
100458,107320
100561,107336
100574,107343
100547,107361
100522,107314
100577,107355
100584,107404
100614,107356
100633,107377
100605,107323
100637,107397
100666,107397
100740,107426
100723,107436
100703,107413
100761,107442
100763,107466
100836,107465
100806,107496
100780,107430
100808,107477
100928,107534
100883,107543
100913,107521
100866,107485
100940,107516
100962,107536
101003,107580
100964,107553
100947,107507
100932,107524
101025,107592
101042,107584
101000,107538
100961,107522
101026,107579
101012,107577
101060,107579
101058,107586
101041,107533
101016,107600
101071,107589
101123,107610
101065,107598
101037,107557
101049,107594
101073,107578
101108,107594
101031,107580
101039,107539
101017,107561
101040,107606
101055,107587
100998,107541
100903,107508
100949,107489
100943,107516
100902,107479
100870,107465
100779,107440
100746,107393
100734,107416
100662,107399
100616,107316
100498,107255
100442,107231
100442,107254
100353,107208
100276,107133
100179,107089
100180,107123
100173,107101
100147,107083
100093,107051
100021,106991
100061,107001
100090,107053
100038,107032
100006,106987
99912,106944
99923,106968
99964,106950
99915,106960
99822,106891
99764,106854
99760,106858
99745,106857
99716,106833
99679,106807
99547,106743
99575,106707
99583,106753
99509,106717
99482,106671
99441,106645
99423,106649
99485,106649
99428,106670
99415,106589
99351,106591
99367,106637
99382,106595
99355,106606
99366,106578
99291,106518
99357,106563
99367,106594
99349,106591
99365,106557
99308,106576
99395,106611
99450,106616
99424,106634
99452,106614
99437,106640
99517,106639
99560,106678
99572,106689
99515,106660
99502,106610
99513,106682
99526,106650
99466,106626
99432,106616
99384,106550
99325,106580
99368,106594
99334,106560
99243,106497
99240,106488
99257,106505
99234,106517
99241,106520
99216,106469
99138,106459
99194,106486
99215,106486
99194,106469
99147,106450
99154,106430
99143,106432
99182,106446
99161,106437
99127,106425
99060,106371
99084,106405
99101,106418
99072,106399
99054,106380
99024,106377
99054,106387
99117,106430
99123,106419
99105,106395
99099,106385
99195,106459
99247,106475
99238,106475
99270,106447
99221,106464
99318,106532
99349,106512
99412,106543
99344,106487
99344,106498
99334,106563
99377,106535
99414,106518
99346,106519
99308,106489
99366,106544
99364,106517
99363,106509
99301,106487
99322,106480
99348,106549
99422,106559
99395,106552
99387,106520
99403,106529
99433,106568
99489,106562
99555,106613
99533,106566
99534,106597
99656,106663
99684,106700
99662,106678
99714,106690
99703,106678
99785,106712
99833,106753
99827,106776
99796,106722
99800,106731
99835,106802
99856,106780
99898,106758
99825,106774
99822,106752
99849,106755
99895,106770
99883,106795
99827,106714
99799,106732
99806,106743
99804,106771
99819,106724
99742,106719
99723,106669
99715,106706
99776,106713
99744,106726
99712,106661
99709,106671
99753,106701
99796,106727
99808,106724
99738,106671
99784,106688
99830,106755
99868,106775
99871,106731
99850,106736
99852,106753
99885,106814
99930,106767
99968,106822
99920,106723
99892,106755
99906,106777
99960,106781
99922,106798
99861,106709
99902,106740
99914,106757
99929,106773
99878,106773
99822,106687
99826,106694
99840,106754
99903,106751
99803,106716
99772,106695
99716,106635
99842,106730
99774,106702
99774,106684
99776,106641
99710,106654
99766,106676
99771,106680
99798,106670
99750,106661
99762,106672
99780,106688
99815,106687
99808,106723
99773,106617
99753,106670
99810,106663
99852,106708
99847,106661
99814,106699
99806,106694
99935,106751
99943,106767
99956,106710
99942,106726
99903,106740
99983,106759
99987,106750
99933,106752
99897,106688
99918,106713
99907,106740
99916,106715
99897,106686
99827,106651
99820,106665
99841,106698
99884,106692
99866,106703
99830,106642
99854,106690
99909,106706
99988,106730
99927,106715
99952,106694
99954,106753
100025,106758
100084,106792
100043,106748
100059,106762
100043,106810
100096,106816
100075,106795
100063,106770
99994,106742
99958,106730
100014,106738
99978,106744
99953,106683
99835,106660
99847,106664
99899,106715
99863,106692
99891,106674
99820,106636
99840,106670
99866,106684
99938,106686
99926,106716
99898,106650
99956,106705
100042,106729
100064,106791
100041,106727
100088,106750
100108,106769
100153,106815
100188,106794
100234,106859
100158,106781
100215,106830
100233,106848
100282,106863
100241,106849
100215,106792
100197,106856
100264,106823
100251,106859
100249,106830
100221,106806
100206,106837
100283,106862
100289,106886
100242,106851
100218,106828
100279,106855
100291,106879
100344,106869
100322,106896
100283,106833
100345,106902
100392,106904
100446,106932
100442,106935
100429,106905
100467,106973
100497,106989
100555,106976
100534,107011
100496,106975
100512,106997
100587,107009
100645,107045
100606,107018
100585,106971
100650,107046
100645,107020
100643,107054
100673,107018
100632,107008
100631,107036
100708,107041
100672,107085
100650,107046
100597,106990
100600,107000
100627,107039
100622,107032
100585,106978
100533,106963
100527,106984
100582,106981
100584,107009
100548,106963
100529,106930
100525,106994
100586,107011
100589,107032
100599,107004
100546,106981
100598,106995
100618,107019
100652,107052
100660,107016
100584,106994
100578,106991
100656,107040
100636,107021
100618,106976
100598,106989
100582,107016
100635,107017
100602,107012
100604,106996
100545,106936
100565,106931
100588,106965
100514,106971
100478,106909
100382,106862
100403,106899
100418,106884
100389,106848
100319,106863
100261,106776
100278,106818
100262,106861
100265,106786
100245,106806
100178,106725
100227,106773
100239,106819
100270,106798
100248,106740
100176,106767
100182,106725
100251,106794
100253,106762
100201,106755
100119,106718
100230,106770
100239,106799
100260,106780
100271,106743
100238,106767
100262,106801
100358,106835
100347,106823
100362,106815
100331,106781
100331,106843
100388,106819
100408,106827
100329,106836
100266,106756
100302,106802
100303,106794
100256,106752
100185,106728
100128,106643
100108,106675
100067,106676
100080,106649
99990,106598
99946,106546
99915,106594
99939,106598
99936,106587
99925,106576
99885,106548
99935,106571
99994,106604
100025,106644
100063,106641
100034,106636
100153,106730
100212,106728
100294,106717
100283,106765
100271,106748
100331,106787
100392,106789
100434,106818
100356,106740
100295,106741
100255,106747
100279,106747
100213,106700
100096,106632
100026,106579
99955,106586
99886,106512
99810,106422
99660,106336
99528,106278
99515,106281
99466,106239
99410,106215
99362,106149
99273,106149
99260,106140
99319,106208
99268,106169
99244,106118
99238,106145
99287,106176
99284,106182
99310,106137
99299,106172
99254,106127
99300,106154
99298,106174
99252,106153
99237,106092
99153,106080
99123,106081
99111,106085
99055,106012
99008,106014
98949,105967
98994,105998
99047,106019
99047,106016
99007,106009
98981,105977
99095,106033
99126,106091
99136,106087
99123,106066
99127,106035
99164,106117
99203,106070
99190,106075
99109,106031
99099,106016
99064,106016
99084,106026
99018,106027
98945,105920
98907,105934
98917,105945
98894,105931
98852,105845
98755,105834
98728,105817
98707,105796
98685,105769
98575,105687
98504,105645
98384,105608
98347,105534
98308,105517
98145,105463
98079,105376
97995,105363
97985,105331
97997,105332
97959,105355
97909,105282
97870,105296
97913,105291
97927,105333
97927,105317
97853,105236
97857,105272
97873,105292
97956,105320
97874,105327
97860,105279
97825,105287
97901,105300
97936,105311
97903,105348
97872,105261
97918,105299
97920,105307
97983,105351
97958,105355
97933,105291
97959,105296
97968,105359
97989,105353
97958,105318
97950,105296
97914,105298
97945,105327
97925,105275
97891,105269
97794,105228
97805,105234
97834,105236
97768,105223
97742,105199
97682,105147
97676,105152
97721,105180
97700,105172
97686,105169
97609,105117
97667,105130
97668,105156
97667,105149
97693,105155
97629,105122
97611,105141
97669,105152
97728,105171
97675,105167
97632,105094
97660,105119
97690,105188
97715,105164
97717,105164
97651,105129
97687,105123
97711,105208
97757,105203
97723,105175
97702,105161
97711,105146
97759,105210
97766,105206
97777,105193
97733,105165
97804,105212
97848,105211
97897,105236
97936,105289
97904,105241
97931,105259
98028,105314
98021,105327
97991,105247
97937,105245
97944,105272
97956,105258
97989,105289
97906,105278
97861,105237
97835,105205
97852,105240
97822,105186
97823,105202
97745,105132
97708,105122
97762,105153
97730,105116
97690,105125
97662,105079
97651,105092
97707,105164
97685,105124
97720,105108
97670,105070
97643,105101
97708,105123
97726,105151
97697,105098
97648,105068
97646,105091
97703,105123
97671,105136
97653,105069
97604,105040
97628,105067
97617,105115
97626,105056
97636,105089
97604,105030
97626,105043
97636,105113
97677,105088
97649,105098
97649,105066
97647,105114
97767,105109
97749,105106
97743,105137
97709,105072
97771,105126
97765,105143
97776,105120
97715,105084
97708,105054
97712,105106
97699,105119
97722,105105
97719,105110
97699,105073
97724,105106
97794,105190
97787,105160
97882,105183
97802,105121
97865,105187
97942,105213
97969,105229
97994,105223
97914,105197
97913,105183
97961,105197
97953,105209
97924,105227
97850,105119
97902,105211
97892,105180
97890,105183
97853,105180
97802,105102
97822,105191
97845,105142
97872,105156
97827,105116
97784,105114
97782,105174
97801,105122
97820,105126
97766,105113
97734,105090
97718,105117
97753,105107
97763,105083
97729,105110
97666,105019
97695,105094
97740,105104
97730,105081
97714,105092
97681,105027
97725,105111
97766,105118
97800,105134
97780,105115
97766,105088
97892,105177
97939,105188
98046,105239
98055,105238
98096,105238
98170,105323
98299,105346
98327,105380
98374,105424
98357,105411
98492,105461
98544,105493
98621,105549
98644,105548
98646,105551
98763,105595
98838,105675
98837,105671
98839,105639
98786,105648
98826,105657
98855,105649
98785,105661
98771,105568
98663,105574
98631,105550
98637,105536
98610,105537
98559,105494
98498,105475
98492,105478
98583,105550
98594,105537
98576,105539
98567,105530
98626,105550
98718,105631
98745,105623
98739,105602
98766,105615
98836,105689
98854,105703
98903,105679
98868,105697
98859,105656
98870,105708
98874,105679
98879,105664
98796,105634
98792,105609
98785,105648
98781,105655
98780,105602
98709,105637
98679,105548
98727,105609
98747,105633
98726,105620
98723,105593
98696,105556
98735,105618
98715,105633
98735,105600
98694,105588
98650,105554
98695,105599
98693,105577
98694,105547
98629,105536
98553,105476
98592,105502
98571,105505
98482,105492
98420,105395
98386,105375
98375,105381
98370,105406
98295,105321
98291,105335
98228,105278
98245,105334
98247,105349
98221,105281
98176,105291
98128,105215
98132,105268
98145,105245
98084,105206
98060,105188
97953,105143
97998,105122
97982,105146
97893,105122
97876,105073
97798,105043
97815,105063
97840,105055
97818,105079
97805,105043
97747,105044
97802,105101
97809,105059
97827,105031
97756,105030
97735,104999
97764,105024
97728,105036
97693,104965
97635,104937
97586,104892
97611,104936
97542,104892
97504,104860
97407,104783
97379,104774
97381,104782
97334,104765
97247,104710
97207,104638
97130,104640
97110,104621
97137,104648
97095,104613
97068,104584
97002,104587
97049,104591
97096,104634
97039,104584
96994,104574
97021,104564
97055,104588
97075,104630
97042,104592
97038,104614
97013,104574
97098,104622
97074,104648
97099,104611
97075,104579
97086,104606
97098,104638
97129,104625
97120,104656
97069,104584
97056,104598
97092,104610
97068,104607
97047,104581
97017,104552
96937,104522
97032,104560
97028,104567
96987,104546
96977,104524
96935,104549
97043,104553
97029,104610
97032,104575
96993,104544
97033,104580
97088,104631
97109,104618
97073,104567
97053,104553
97054,104552
97070,104598
97108,104593
97114,104561
97091,104580
97066,104543
97082,104626
97106,104602
97149,104612
97124,104570
97113,104626
97184,104667
97220,104644
97228,104626
97171,104624
97180,104615
97266,104698
97278,104693
97300,104680
97250,104653
97280,104692
97291,104710
97355,104699
97357,104717
97336,104668
97364,104735
97408,104769
97441,104764
97460,104794
97445,104719
97468,104775
97483,104816
97548,104798
97501,104821
97478,104734
97464,104783
97472,104807
97485,104827
97446,104736
97401,104731
97322,104709
97364,104711
97332,104700
97260,104688
97212,104603
97142,104612
97198,104612
97164,104591
97128,104588
97012,104525
97040,104516
97058,104595
97031,104563
97060,104554
97010,104515
97010,104517
97064,104591
97071,104552
97062,104537
97039,104482
97029,104529
97102,104549
97107,104589
97082,104522
97053,104550
97086,104573
97082,104595
97147,104578
97170,104609
97115,104558
97157,104569
97199,104585
97246,104633
97159,104603
97182,104587
97186,104584
97266,104630
97287,104662
97302,104632
97280,104631
97303,104650
97366,104684
97305,104685
97252,104621
97161,104564
97169,104582
97146,104607
97104,104541
97070,104520
97018,104480
96998,104508
97029,104493
97047,104521
96973,104461
96966,104459
96967,104490
97067,104521
97071,104536
97067,104559
97056,104498
97154,104577
97182,104597
97239,104637
97224,104590
97209,104563
97227,104658
97250,104623
97247,104624
97262,104643
97202,104567
97212,104643
97223,104601
97197,104619
97154,104603
97101,104549
97097,104591
97151,104575
97125,104586
97066,104538
97009,104499
97070,104537
97087,104556
97089,104546
97033,104530
96980,104450
96981,104520
96973,104494
96942,104469
96940,104463
96870,104416
96831,104437
96891,104447
96895,104445
96792,104409
96768,104365
96779,104409
96807,104401
96837,104423
96780,104396
96792,104386
96872,104444
96872,104458
96990,104497
96990,104498
96958,104480
97068,104515
97154,104584
97176,104601
97232,104609
97203,104605
97250,104646
97326,104689
97332,104676
97253,104647
97253,104601
97297,104678
97302,104626
97295,104662
97213,104629
97159,104562
97253,104638
97278,104641
97295,104651
97326,104700
97292,104675
97408,104705
97461,104764
97540,104807
97561,104758
97543,104793
97604,104832
97651,104870
97652,104849
97634,104825
97553,104786
97568,104828
97544,104782
97502,104778
97430,104725
97356,104682
97331,104724
97327,104685
97315,104695
97236,104639
97203,104610
97281,104644
97314,104671
97308,104686
97354,104677
97385,104682
97438,104738
97519,104790
97605,104806
97596,104811
97671,104838
97725,104909
97820,104960
97875,104966
97892,104938
97927,104979
97970,105040
98058,105101
98105,105076
98086,105073
98056,105076
98130,105077
98128,105122
98130,105114
98095,105078
98073,105090
98062,105064
98058,105093
98084,105082
98032,105088
97973,105017
98012,105094
98027,105083
98044,105039
98020,105069
97990,104991
98031,105079
98075,105104
98140,105108
98100,105095
98070,105071
98178,105128
98219,105151
98223,105165
98210,105163
98198,105100
98274,105211
98267,105194
98327,105201
98281,105208
98307,105180
98361,105233
98358,105265
98346,105223
98341,105215
98309,105172
98285,105166
98278,105180
98145,105132
98057,105026
97944,105006
97880,104970
97855,104974
97726,104882
97645,104816
97534,104811
97511,104772
97480,104773
97394,104696
97329,104654
97188,104608
97186,104577
97135,104552
97067,104511
96938,104437
96845,104409
96786,104338
96733,104353
96646,104311
96579,104254
96503,104221
96529,104238
96512,104244
96465,104166
96433,104165
96407,104155
96429,104173
96461,104198
96464,104149
96402,104156
96362,104122
96451,104143
96438,104184
96415,104155
96399,104097
96353,104089
96341,104108
96345,104128
96373,104105
96288,104065
96235,104018
96319,104095
96281,104081
96273,104042
96214,104040
96177,103993
96225,104034
96184,104023
96133,103995
96100,103945
96052,103926
96090,103942
96076,103959
96010,103894
95969,103882
95928,103854
95937,103881
95977,103868
95932,103861
95862,103778
95849,103813
95879,103829
95906,103862
95834,103803
95799,103744
95734,103755
95777,103744
95720,103727
95662,103677
95605,103640
95538,103645
95562,103617
95502,103600
95491,103589
95438,103529
95381,103523
95354,103515
95383,103506
95330,103493
95265,103445
95259,103450
95218,103414
95226,103411
95126,103399
95077,103324
95058,103302
95053,103321
95043,103313
94961,103256
94950,103244
94949,103226
94942,103263
94979,103288
94964,103274
94987,103229
95007,103280
95092,103335
95100,103319
95117,103326
95097,103283
95164,103335
95159,103329
95176,103341
95186,103328
95106,103317
95108,103335
95164,103326
95168,103368
95131,103323
95093,103288
95107,103300
95168,103355
95191,103365
95229,103352
95234,103353
95247,103391
95334,103428
95372,103458
95429,103475
95397,103447
95482,103498
95574,103544
95588,103586
95688,103574
95610,103592
95670,103593
95730,103639
95773,103651
95785,103636
95706,103619
95744,103660
95762,103632
95713,103660
95748,103627
95666,103611
95629,103596
95636,103595
95571,103567
95554,103521
95456,103453
95452,103490
95394,103457
95374,103416
95293,103415
95217,103333
95131,103290
95121,103314
95046,103289
94961,103178
94818,103116
94750,103063
94707,103070
94598,102972
94525,102910
94409,102814
94390,102833
94304,102762
94234,102739
94108,102675
93919,102569
93874,102493
93816,102528
93765,102413
93644,102420
93574,102336
93569,102383
93571,102350
93580,102371
93552,102387
93532,102333
93607,102374
93617,102415
93655,102364
93699,102422
93630,102369
93648,102345
93658,102392
93631,102364
93547,102316
93462,102258
93402,102211
93325,102200
93209,102119
93142,102093
92934,101984
92913,101953
92863,101940
92765,101877
92704,101836
92605,101732
92589,101788
92569,101725
92590,101714
92520,101682
92427,101646
92421,101613
92422,101662
92384,101606
92361,101569
92283,101510
92242,101535
92239,101559
92218,101493
92159,101480
92098,101422
92114,101432
92138,101444
92128,101471
92116,101405
92057,101398
92072,101406
92101,101407
92131,101414
92074,101388
92037,101332
92048,101364
92045,101349
92023,101329
91955,101298
91865,101269
91859,101213
91849,101259
91802,101217
91772,101191
91733,101141
91723,101185
91767,101204
91746,101183
91752,101129
91713,101143
91774,101197
91818,101185
91864,101209
91856,101205
91883,101213
91905,101269
91996,101257
92078,101327
92026,101268
92034,101318
92072,101361
92111,101376
92156,101356
92116,101393
92100,101320
92160,101392
92188,101413
92179,101358
92122,101331
92120,101334
92076,101356
92110,101362
92103,101353
92054,101314
92007,101254
92073,101341
92030,101330
92073,101297
92019,101259
91996,101228
92040,101301
92068,101333
92044,101305
92062,101301
92050,101293
92108,101352
92174,101355
92218,101387
92192,101358
92212,101392
92286,101411
92306,101414
92351,101446
92301,101434
92279,101408
92353,101464
92368,101470
92347,101462
92331,101433
92297,101439
92332,101455
92329,101441
92314,101440
92275,101418
92198,101382
92295,101412
92294,101454
92255,101422
92272,101392
92255,101398
92265,101462
92282,101431
92346,101429
92296,101413
92270,101407
92258,101417
92311,101388
92278,101414
92241,101352
92186,101379
92227,101362
92257,101355
92174,101327
92169,101320
92119,101322
92165,101334
92200,101335
92194,101332
92130,101287
92129,101304
92184,101333
92190,101332
92207,101339
92185,101313
92135,101291
92155,101323
92190,101328
92169,101338
92137,101275
92098,101256
92155,101300
92155,101306
92078,101246
92031,101214
91965,101173
91856,101106
91741,101054
91560,100917
91349,100781
91149,100653
90966,100561
90835,100465
90623,100344
90438,100178
90292,100138
90190,100068
90104,100022
89935,99942
89833,99835
89753,99808
89662,99772
89633,99727
89577,99710
89488,99645
89431,99592
89461,99633
89431,99612
89416,99584
89356,99516
89349,99543
89336,99520
89380,99533
89318,99536
89292,99496
89240,99486
89278,99512
89251,99478
89236,99475
89173,99378
89137,99376
89134,99400
89107,99377
89083,99335
89002,99278
88967,99268
88979,99274
88972,99299
88907,99208
88892,99225
88885,99204
88887,99227
88938,99261
88880,99213
88852,99198
88882,99211
88941,99239
88930,99256
88987,99260
88950,99242
88989,99294
89018,99276
89072,99328
89086,99358
89108,99315
89080,99371
89139,99373
89204,99425
89165,99379
89157,99353
89169,99410
89188,99387
89230,99434
89186,99381
89123,99367
89087,99364
89126,99346
89124,99356
89089,99350
89021,99292
89026,99307
89065,99354
89097,99365
89099,99351
89091,99317
89126,99360
89170,99381
89254,99438
89260,99467
89296,99445
89339,99503
89467,99574
89524,99648
89576,99619
89628,99683
89751,99743
89820,99836
89937,99878
89995,99937
90038,99930
90108,100030
90167,100079
90254,100097
90222,100134
90226,100062
90298,100122
90305,100140
90317,100178
90280,100142
90247,100094
90208,100091
90239,100121
90197,100058
90151,100088
90102,99999
90061,100021
90074,99992
90041,100024
90014,99958
89948,99904
89966,99949
89981,99932
89985,99939
89961,99957
89939,99898
89904,99957
89987,99965
90053,99998
90018,99992
90027,99947
90052,99971
90144,100062
90190,100083
90191,100049
90230,100065
90234,100139
90311,100146
90379,100174
90354,100176
90338,100182
90312,100157
90365,100199
90382,100190
90342,100164
90267,100122
90258,100117
90279,100152
90252,100128
90221,100103
90188,100084
90161,100095
90186,100057
90175,100052
90135,100056
90058,99981
90042,99992
90064,100038
90055,99981
90000,99938
89934,99916
89923,99931
89962,99938
89952,99944
89895,99856
89867,99862
89847,99839
89871,99892
89845,99843
89809,99833
89732,99765
89817,99820
89808,99800
89799,99797
89775,99797
89694,99753
89688,99726
89698,99763
89611,99685
89554,99622
89447,99552
89381,99585
89330,99524
89331,99512
89300,99462
89173,99420
89254,99434
89230,99487
89214,99460
89240,99453
89156,99427
89176,99456
89172,99429
89168,99421
89056,99399
88972,99310
88977,99346
88925,99327
88886,99282
88791,99231
88767,99174
88702,99231
88728,99200
88674,99181
88670,99138
88612,99131
88606,99137
88679,99152
88619,99164
88590,99098
88565,99088
88552,99142
88597,99125
88578,99091
88580,99119
88500,99063
88590,99141
88589,99136
88604,99131
88604,99142
88526,99111
88600,99125
88596,99152
88614,99146
88609,99125
88553,99148
88591,99148
88614,99162
88578,99150
88585,99105
88584,99126
88579,99143
88641,99208
88663,99202
88702,99230
88714,99221
88750,99289
88854,99343
88849,99314
88917,99316
88862,99319
88929,99407
88980,99387
88999,99415
88975,99390
88938,99355
88982,99392
88987,99420
88949,99375
88942,99357
88893,99323
88910,99354
88913,99382
88896,99314
88885,99354
88805,99277
88877,99347
88881,99350
88872,99318
88823,99296
88810,99293
88829,99275
88834,99307
88838,99284
88739,99231
88715,99214
88696,99251
88663,99219
88666,99191
88603,99102
88533,99114
88530,99085
88523,99127
88467,99062
88426,99045
88410,99008
88450,99054
88449,99065
88456,98995
88458,99044
88431,99021
88521,99091
88595,99156
88646,99126
88618,99139
88658,99146
88744,99215
88822,99246
88808,99270
88805,99237
88864,99286
88864,99314
88911,99353
88906,99309
88888,99287
88890,99337
88906,99295
88951,99331
88917,99342
88859,99240
88838,99274
88886,99295
88873,99315
88831,99264
88834,99265
88799,99274
88901,99316
88943,99320
88952,99337
88942,99352
88970,99340
89053,99411
89099,99456
89081,99409
89092,99434
89098,99458
89172,99455
89227,99515
89163,99479
89184,99469
89160,99493
89216,99470
89202,99512
89196,99502
89119,99461
89136,99435
89204,99512
89201,99483
89169,99476
89205,99505
89198,99482
89233,99542
89298,99546
89278,99575
89275,99529
89323,99570
89369,99621
89415,99642
89432,99614
89405,99635
89407,99632
89480,99651
89510,99710
89461,99641
89436,99635
89381,99613
89409,99612
89379,99609
89281,99527
89198,99492
89073,99457
89080,99410
89010,99408
88915,99323
88826,99268
88788,99243
88751,99273
88744,99211
88666,99173
88610,99144
88558,99131
88547,99135
88567,99133
88469,99092
88435,99033
88417,99065
88389,99027
88393,99056
88346,99044
88292,98971
88275,98993
88307,99019
88281,99007
88268,98979
88226,98950
88201,98954
88241,98970
88264,98990
88240,98967
88232,98946
88235,98976
88303,99012
88305,99030
88312,99030
88279,98988
88288,98998
88349,99042
88356,99055
88319,99027
88300,98989
88299,99001
88353,99035
88357,99070
88342,99038
88355,99050
88399,99068
88458,99150
88504,99146
88493,99139
88502,99157
88578,99188
88699,99251
88747,99323
88745,99292
88770,99308
88875,99349
88908,99399
88996,99433
89012,99495
89027,99498
89151,99572
89219,99616
89337,99673
89341,99669
89399,99718
89502,99775
89535,99832
89648,99828
89659,99887
89646,99901
89731,99923
89814,99995
89790,100000
89836,99957
89767,99916
89767,99980
89778,99987
89760,99952
89723,99972
89690,99907
89672,99948
89654,99913
89656,99889
89637,99896
89578,99872
89583,99848
89574,99866
89589,99850
89574,99861
89547,99805
89540,99837
89605,99879
89622,99875
89561,99838
89536,99812
89593,99868
89606,99875
89608,99866
89593,99838
89512,99783
89532,99819
89540,99834
89561,99823
89502,99771
89375,99737
89438,99746
89448,99762
89446,99750
89430,99743
89361,99710
89428,99732
89444,99743
89487,99784
89467,99749
89448,99743
89490,99808
89563,99797
89588,99828
89550,99823
89573,99831
89636,99890
89722,99910
89780,99913
89715,99953
89716,99904
89804,99953
89816,99991
89857,99988
89875,100001
89877,99981
89964,100036
89987,100119
90033,100102
90069,100121
90052,100136
90165,100179
90204,100232
90275,100204
90251,100250
90248,100263
90288,100253
90374,100307
90344,100316
90311,100251
90280,100231
90323,100261
90337,100290
90335,100300
90319,100240
90299,100273
90318,100305
90330,100280
90343,100290
90296,100215
90223,100203
90214,100216
90137,100169
90081,100118
89985,100075
89859,99984
89760,99947
89684,99884
89540,99813
89455,99753
89301,99697
89293,99690
89227,99635
89178,99566
89166,99608
89074,99522
89103,99547
89089,99580
89088,99530
89077,99551
89015,99514
89082,99563
89114,99547
89031,99555
89003,99477
88969,99462
88900,99496
88886,99418
88853,99425
88748,99316
88670,99278
88636,99285
88616,99272
88539,99217
88477,99157
88397,99137
88404,99145
88390,99141
88377,99105
88284,99066
88307,99054
88277,99054
88295,99067
88297,99036
88261,99022
88239,99020
88302,99052
88319,99056
88293,99048
88296,99040
88271,99039
88320,99068
88383,99078
88342,99058
88340,99057
88344,99039
88404,99118
88446,99123
88461,99086
88392,99097
88409,99090
88451,99156
88505,99139
88499,99166
88481,99130
88455,99142
88548,99208
88580,99186
88554,99177
88563,99183
88563,99164
88583,99179
88610,99217
88615,99248
88597,99190
88584,99214
88641,99224
88689,99286
88686,99238
88623,99223
88650,99226
88691,99263
88691,99277
88671,99244
88633,99235
88624,99228
88631,99232
88626,99256
88630,99227
88562,99169
88544,99163
88585,99192
88612,99208
88620,99213
88587,99171
88604,99199
88679,99264
88722,99264
88733,99255
88748,99256
88735,99268
88827,99345
88856,99362
88825,99311
88808,99317
88810,99287
88871,99374
88892,99379
88849,99342
88850,99342
88845,99347
88842,99370
88892,99382
88885,99355
88870,99359
88880,99353
88916,99409
88954,99408
88906,99373
88883,99364
88895,99386
88948,99398
88891,99375
88876,99349
88819,99304
88765,99284
88815,99319
88806,99292
88722,99255
88699,99224
88637,99199
88674,99228
88685,99223
88620,99215
88609,99180
88640,99173
88675,99233
88715,99244
88688,99220
88678,99215
88691,99226
88806,99282
88810,99290
88806,99284
88823,99294
88819,99303
88860,99323
88903,99346
88897,99328
88860,99293
88895,99337
88957,99366
88985,99394
88970,99358
88933,99335
88903,99323
88950,99357
88931,99336
88814,99288
88727,99221
88664,99203
88645,99178
88558,99118
88444,99089
88362,99000
88277,98952
88281,98962
88237,98957
88152,98893
88080,98837
88088,98869
88108,98857
88105,98858
88010,98829
88027,98795
88010,98822
88054,98847
88050,98849
88004,98841
87990,98817
88001,98801
88019,98822
87983,98832
87988,98813
87890,98758
87934,98762
87942,98791
87952,98811
87959,98782
87923,98772
87958,98800
88015,98834
88061,98852
88060,98876
88051,98851
88124,98892
88182,98975
88209,98966
88268,98961
88249,98967
88239,98988
88301,99021
88313,98996
88283,98992
88238,98940
88222,98979
88235,98986
88209,98947
88145,98939
88071,98874
88037,98850
88045,98881
87987,98819
87961,98769
87887,98713
87847,98737
87822,98685
87843,98698
87776,98671
87747,98642
87764,98666
87806,98692
87804,98693
87788,98624
87762,98593
87782,98646
87825,98690
87836,98670
87821,98642
87781,98638
87812,98666
87819,98688
87840,98689
87795,98656
87804,98641
87787,98675
87856,98658
87861,98668
87802,98680
87756,98607
87803,98620
87793,98684
87814,98653
87794,98628
87762,98606
87826,98686
87866,98651
87845,98695
87882,98673
87860,98684
87925,98723
87984,98733
88054,98759
88012,98804
88018,98772
88064,98830
88124,98828
88134,98849
88119,98834
88112,98834
88105,98820
88154,98873
88194,98877
88185,98826
88202,98883
88220,98908
88300,98970
88300,98952
88318,98987
88334,98957
88442,99037
88477,99054
88543,99082
88518,99100
88520,99077
88604,99158
88629,99134
88652,99159
88651,99128
88570,99127
88632,99181
88634,99167
88660,99161
88627,99171
88602,99152
88628,99161
88691,99197
88656,99202
88639,99139
88638,99165
88657,99182
88711,99212
88749,99214
88688,99161
88699,99181
88750,99229
88764,99293
88795,99231
88766,99269
88747,99225
88819,99240
88874,99293
88818,99288
88811,99254
88794,99239
88778,99260
88834,99262
88780,99240
88739,99204
88644,99174
88681,99134
88597,99156
88594,99118
88472,99017
88348,98981
88330,98931
88245,98915
88192,98860
88037,98779
87946,98729
87950,98738
87879,98729
87833,98670
87794,98664
87708,98617
87782,98614
87760,98618
87788,98664
87753,98607
87700,98590
87803,98695
87784,98693
87813,98671
87830,98661
87782,98695
87820,98674
87874,98745
87911,98724
87869,98744
87878,98723
87971,98824
88044,98827
88050,98849
88049,98873
88063,98852
88210,98984
88255,98963
88300,99021
88341,99044
88349,99051
88458,99142
88493,99170
88583,99197
88552,99194
88587,99228
88633,99274
88713,99316
88738,99293
88757,99324
88725,99345
88854,99369
88876,99398
88897,99400
88926,99434
88937,99468
89019,99502
89080,99547
89143,99561
89125,99550
89192,99586
89235,99696
89311,99707
89322,99680
89345,99745
89318,99711
89451,99774
89468,99779
89454,99776
89462,99782
89474,99768
89487,99799
89526,99816
89494,99790
89433,99757
89450,99771
89456,99809
89459,99783
89425,99748
89379,99750
89384,99714
89414,99772
89453,99807
89423,99744
89393,99749
89427,99777
89537,99823
89583,99870
89593,99881
89625,99903
89659,99896
89717,99973
89785,99970
89806,99979
89733,99946
89762,99979
89789,99999
89792,99998
89727,99983
89715,99931
89627,99890
89682,99907
89625,99868
89566,99852
89486,99783
89459,99775
89448,99803
89431,99770
89447,99730
89395,99714
89362,99746
89374,99733
89413,99730
89391,99739
89379,99699
89386,99747
89404,99712
89398,99740
89437,99737
89391,99684
89344,99715
89423,99739
89379,99748
89345,99710
89281,99647
89282,99631
89278,99678
89247,99661
89209,99593
89176,99565
89145,99589
89147,99560
89164,99558
89082,99543
89078,99481
89101,99546
89094,99536
89151,99559
89140,99550
89083,99518
89097,99503
89169,99598
89169,99560
89169,99542
89163,99531
89145,99543
89238,99593
89216,99599
89207,99564
89230,99561
89231,99632
89285,99600
89326,99640
89297,99650
89277,99593
89327,99660
89363,99651
89399,99657
89373,99657
89301,99619
89272,99577
89277,99598
89207,99560
89133,99480
89014,99453
88918,99419
88889,99363
88819,99321
88678,99242
88604,99174
88532,99173
88515,99191
88472,99124
88448,99083
88422,99083
88416,99133
88460,99120
88510,99144
88519,99153
88484,99166
88568,99228
88599,99241
88666,99284
88658,99283
88694,99274
88749,99372
88796,99390
88845,99442
88829,99434
88806,99405
88896,99442
88918,99520
88950,99480
88956,99483
88927,99486
88965,99525
89018,99565
89022,99559
89016,99552
88990,99529
89090,99605
89086,99616
89135,99676
89171,99651
89196,99653
89278,99742
89329,99748
89421,99811
89455,99838
89474,99847
89572,99915
89650,99992
89767,100034
89777,100051
89807,100068
89943,100154
90020,100211
90127,100257
90149,100273
90156,100261
90275,100381
90354,100416
90384,100434
90435,100456
90422,100464
90518,100526
90604,100548
90604,100590
90640,100580
90606,100578
90694,100639
90752,100663
90749,100650
90785,100671
90803,100684
90806,100726
90893,100751
90955,100808
90952,100820
90961,100808
91019,100811
91094,100927
91113,100924
91142,100919
91141,100910
91193,100982
91292,100987
91288,101021
91280,100989
91277,101019
91305,101039
91359,101102
91407,101097
91422,101092
91455,101108
91465,101178
91569,101222
91579,101218
91624,101252
91653,101250
91750,101361
91821,101362
91865,101392
91900,101442
91927,101416
92045,101506
92075,101520
92154,101578
92162,101593
92205,101615
92308,101676
92375,101720
92393,101741
92421,101788
92453,101752
92544,101853
92635,101876
92657,101903
92632,101872
92666,101891
92740,101980
92798,101975
92794,101987
92755,101975
92723,101925
92747,101966
92727,101949
92692,101937
92657,101883
92562,101863
92538,101828
92521,101846
92505,101793
92420,101760
92371,101725
92421,101807
92485,101799
92451,101792
92484,101785
92499,101793
92568,101886
92683,101903
92721,101947
92774,101943
92810,101964
92887,102014
92969,102089
93031,102110
93051,102076
93089,102131
93141,102206
93210,102224
93246,102229
93235,102256
93258,102230
93350,102324
93420,102323
93472,102394
93521,102381
93504,102417
93580,102435
93635,102483
93619,102475
93586,102459
93606,102462
93600,102527
93584,102474
93521,102463
93454,102393
93368,102378
93336,102339
93280,102345
93237,102326
93137,102253
93066,102228
93090,102239
93091,102223
93028,102225
92980,102205
92990,102213
93015,102239
93029,102262
93037,102260
93023,102237
93079,102283
93096,102317
93182,102383
93192,102392
93237,102398
93258,102455
93340,102478
93457,102543
93501,102561
93551,102607
93599,102650
93747,102721
93838,102804
93907,102848
93981,102874
94041,102919
94237,103055
94348,103110
94405,103204
94533,103206
94647,103308
94803,103445
94945,103513
95093,103573
95189,103676
95339,103720
95567,103909
95718,104009
95835,104047
95999,104172
96139,104254
96391,104404
96544,104520
96732,104635
96849,104656
97016,104805
97223,104915
97407,105041
97534,105119
97676,105169
97809,105292
97964,105351
98120,105447
98260,105523
98307,105576
98376,105635
98603,105750
98694,105800
98751,105829
98782,105868
98861,105923
98974,105945
99080,106029
99065,106059
99102,106041
99185,106091
99262,106150
99347,106187
99374,106221
99366,106197
99455,106265
99493,106339
99576,106337
99606,106365
99623,106315
99667,106391
99744,106437
99795,106473
99840,106455
99869,106497
99861,106518
99971,106554
100067,106598
100037,106600
100080,106619
100114,106614
100221,106720
100281,106732
100322,106723
100297,106732
100370,106777
100502,106805
100546,106882
100527,106861
100555,106879
100619,106894
100729,106960
100782,107030
100781,106959
100806,107014
100874,107013
100923,107096
101046,107123
100993,107084
101030,107127
101096,107171
101138,107204
101202,107196
101220,107205
101219,107221
101293,107260
101350,107275
101419,107335
101406,107327
101418,107293
101459,107384
101554,107368
101593,107417
101596,107394
101628,107409
101640,107432
101666,107459
101757,107482
101749,107495
101718,107462
101770,107488
101862,107543
101902,107565
101907,107532
101913,107552
101894,107619
102016,107608
102047,107668
102052,107653
101996,107614
102076,107637
102117,107693
102168,107682
102192,107713
102161,107690
102238,107758
102269,107744
102324,107783
102342,107768
102301,107751
102302,107803
102414,107819
102421,107839
102394,107800
102377,107782
102399,107828
102416,107800
102433,107803
102319,107814
102229,107725
102275,107722
102227,107751
102158,107694
102066,107642
101951,107558
101917,107581
101842,107540
101775,107504
101727,107472
101573,107397
101502,107362
101527,107428
101453,107380
101377,107318
101317,107308
101259,107263
101307,107305
101265,107289
101233,107266
101191,107206
101238,107280
101218,107256
101253,107294
101222,107288
101159,107202
101217,107282
101263,107264
101281,107290
101286,107256
101240,107261
101269,107292
101322,107319
101351,107326
101329,107325
101323,107297
101369,107347
101401,107327
101428,107377
101391,107343
101410,107362
101425,107361
101535,107417
101507,107445
101487,107401
101514,107382
101532,107430
101621,107463
101614,107436
101630,107479
101597,107457
101691,107492
101741,107502
101764,107516
101744,107508
101774,107519
101838,107589
101852,107595
101882,107595
101899,107586
101859,107565
101913,107584
101964,107624
101963,107636
101941,107644
101902,107587
102006,107626
101999,107674
101991,107634
101986,107609
101974,107594
101988,107665
102069,107649
101999,107669
101991,107617
101953,107618
101965,107641
102059,107657
101987,107645
102003,107625
101957,107606
102013,107627
102024,107656
102020,107647
101989,107613
101985,107619
102035,107658
102068,107664
102046,107682
102039,107614
102003,107667
102053,107649
102111,107733
102134,107702
102091,107653
102114,107664
102113,107725
102177,107723
102202,107721
102182,107689
102175,107745
102201,107728
102273,107780
102279,107777
102288,107759
102260,107759
102333,107777
102381,107809
102395,107825
102352,107794
102387,107818
102399,107854
102460,107846
102514,107898
102470,107821
102457,107813
102561,107912
102602,107936
102576,107917
102594,107897
102586,107921
102675,107934
102705,107945
102730,107980
102700,107933
102750,107982
102790,108046
102825,108026
102862,108047
102802,108020
102825,108020
102888,108092
102928,108088
102944,108080
102921,108057
102908,108065
103032,108147
103032,108138
103007,108131
103031,108121
103005,108121
103094,108176
103135,108174
103126,108184
103136,108185
103114,108180
103213,108224
103230,108240
103225,108225
103199,108190
103235,108219
103295,108258
103329,108282
103299,108232
103259,108220
103262,108212
103259,108235
103283,108252
103240,108206
103169,108178
103076,108142
103082,108161
103007,108111
102960,108056
102878,108044
102776,107974
102762,107991
102645,107944
102579,107868
102484,107820
102427,107806
102411,107823
102356,107792
102311,107746
102203,107728
102188,107689
102196,107704
102210,107709
102190,107726
102124,107647
102109,107674
102155,107718
102171,107712
102133,107696
102103,107664
102095,107670
102197,107744
102200,107726
102204,107700
102159,107706
102152,107710
102241,107751
102272,107764
102245,107778
102200,107699
102256,107728
102334,107802
102359,107824
102347,107782
102320,107759
102324,107773
102403,107827
102438,107814
102385,107816
102385,107819
102402,107794
102464,107879
102480,107873
102548,107877
102498,107855
102552,107864
102589,107901
102622,107959
102636,107890
102661,107930
102640,107928
102704,107945
102749,108008
102768,107982
102703,107934
102768,108003
102828,108016
102835,108059
102844,108009
102783,107969
102834,108021
102870,108060
102862,108048
102868,107996
102805,107997
102845,108009
102852,108037
102847,108045
102871,107973
102812,108008
102841,108015
102881,108023
102884,108032
102905,108001
102824,108010
102827,107985
102904,108022
102920,108026
102914,108028
102882,107992
102873,108045
102960,108045
102931,108076
102950,108064
102910,108005
102937,108064
102956,108044
103015,108080
103001,108078
102959,108021
102980,108077
103028,108091
103087,108099
103051,108090
102995,108063
103063,108115
103109,108130
103142,108167
103101,108168
103116,108115
103160,108153
103180,108191
103198,108197
103186,108161
103180,108183
103197,108169
103274,108223
103312,108249
103285,108255
103240,108189
103299,108231
103353,108266
103423,108262
103341,108251
103329,108254
103370,108246
103468,108337
103435,108308
103465,108299
103412,108244
103481,108326
103519,108340
103555,108326
103531,108363
103492,108319
103551,108342
103586,108375
103601,108357
103660,108392
103569,108327
103609,108384
103717,108412
103722,108439
103692,108384
103647,108410
103711,108423
103764,108454
103811,108462
103781,108473
103740,108433
103823,108456
103821,108511
103835,108482
103828,108467
103791,108452
103777,108460
103855,108476
103821,108475
103775,108410
103663,108344
103643,108366
103623,108337
103536,108330
103417,108220
103275,108180
103305,108195
103202,108160
103125,108085
103079,108057
102909,107979
102902,107972
102868,107981
102824,107926
102737,107886
102684,107883
102636,107887
102661,107907
102597,107856
102618,107836
102540,107822
102568,107860
102605,107859
102560,107852
102528,107791
102519,107815
102575,107848
102571,107873
102585,107832
102566,107843
102565,107807
102557,107848
102626,107901
102616,107886
102623,107847
102580,107828
102644,107894
102648,107883
102696,107896
102638,107903
102639,107866
102701,107890
102745,107953
102758,107932
102716,107901
102712,107891
102750,107955
102809,107946
102823,107972
102810,107954
102780,107912
102878,108011
102903,108003
102917,108036
102944,108003
102913,108001
102999,108014
103036,108105
103046,108036
103026,108087
103002,108054
103087,108078
103096,108102
103118,108081
103129,108111
103125,108097
103154,108098
103208,108131
103183,108117
103155,108107
103153,108085
103160,108143
103217,108132
103206,108147
103174,108078
103147,108110
103165,108118
103232,108156
103185,108126
103140,108067
103148,108057
103190,108149
103203,108109
103208,108100
103149,108107
103133,108096
103220,108145
103203,108148
103206,108106
103178,108139
103157,108104
103263,108172
