11111,11111
0,0
81742,80890
104871,101320
104841,101301
104826,101279
104783,101263
104814,101260
104810,101264
104780,101298
104779,101260
104785,101295
104782,101243
104826,101299
104777,101265
104797,101257
104757,101269
104806,101228
104810,101288
104784,101247
104803,101262
104838,101262
104800,101264
104841,101254
104804,101309
104808,101273
104847,101300
104877,101280
104821,101267
104878,101297
104838,101318
104858,101286
104885,101301
104885,101335
104901,101286
104932,101335
104912,101291
104932,101323
104925,101331
104949,101296
104960,101338
104939,101315
104985,101370
104938,101368
104993,101359
104986,101368
105027,101385
105010,101403
105003,101361
105030,101406
105039,101369
105053,101401
105067,101389
105029,101383
105050,101382
105073,101417
105055,101421
105053,101414
105047,101415
105076,101379
105081,101420
105068,101375
105104,101396
105107,101439
105121,101415
105110,101424
105154,101421
105123,101448
105141,101436
105153,101410
105144,101454
105176,101429
105162,101458
105168,101427
105196,101460
105183,101462
105176,101484
105209,101465
105209,101442
105232,101460
105232,101489
105206,101482
105258,101453
105238,101501
105257,101456
105313,101501
105294,101498
105303,101513
105276,101510
105310,101481
105307,101536
105314,101472
105335,101503
105338,101532
105343,101484
105324,101486
105358,101520
105296,101520
105255,101499
105296,101498
105227,101480
105251,101439
105184,101447
105215,101401
105177,101430
105122,101449
105096,101404
105100,101353
105044,101387
104993,101321
105007,101318
104966,101369
104929,101305
104911,101307
104914,101261
104896,101297
104827,101274
104829,101261
104797,101276
104824,101258
104780,101246
104784,101204
104783,101252
104766,101191
104733,101239
104753,101206
104875,101258
105136,101424
105152,101412
105374,101514
105358,101502
105405,101534
105296,101478
105257,101453
105240,101427
105181,101423
104967,101263
104978,101318
104968,101317
104946,101309
104932,101283
104938,101250
104906,101283
104936,101273
104923,101275
104925,101249
104929,101261
104921,101252
104935,101264
104940,101282
104950,101271
104927,101266
104962,101288
104936,101308
104951,101261
104922,101266
104927,101258
104961,101301
104938,101293
104969,101261
104954,101272
104950,101291
104942,101293
104951,101261
104948,101316
104948,101289
104961,101265
104957,101290
104943,101302
104994,101297
104988,101301
104971,101296
105013,101314
105011,101291
104999,101309
104985,101292
105007,101324
105007,101299
104984,101303
104977,101311
105001,101349
104981,101281
104999,101302
105030,101306
105003,101302
105015,101320
104980,101343
105007,101311
105013,101302
105013,101299
105021,101304
105053,101335
105049,101307
105026,101349
105062,101376
105045,101352
105069,101354
105081,101356
105126,101364
105103,101369
105156,101380
105162,101403
105190,101426
105169,101432
105168,101414
105217,101423
105228,101417
105259,101461
105219,101484
105250,101459
105275,101462
105307,101475
105291,101499
105300,101468
105316,101518
105329,101530
105314,101516
105348,101499
105419,101546
105380,101522
105436,101558
105424,101545
105421,101578
105461,101542
105438,101550
105447,101579
105461,101608
105496,101584
105451,101554
105516,101626
105480,101584
105457,101541
105477,101559
105455,101562
105385,101535
105411,101528
105407,101534
105353,101527
105348,101491
105306,101504
105331,101487
105278,101491
105307,101465
105238,101506
105245,101449
105243,101474
105207,101444
105213,101456
105187,101445
105205,101445
105148,101451
105183,101434
105137,101432
105160,101407
105185,101447
105126,101440
105166,101394
105141,101417
105144,101417
105130,101420
105102,101420
105169,101389
105133,101445
105123,101377
105111,101432
105149,101410
105128,101430
105118,101391
105209,101380
105165,101424
105161,101428
105196,101407
105198,101418
105209,101416
105156,101429
105185,101411
105213,101415
105203,101406
105249,101440
105229,101387
105231,101436
105234,101404
105251,101415
105200,101445
105275,101415
105255,101452
105256,101409
105246,101445
105270,101459
105246,101455
105266,101409
105313,101486
105281,101445
105264,101453
105279,101470
105290,101472
105272,101463
105264,101412
105279,101452
105254,101402
105272,101429
105267,101440
105242,101421
105287,101415
105296,101465
105272,101447
105283,101419
105302,101409
105363,101450
105317,101465
105360,101454
105383,101491
105361,101522
105405,101511
105457,101523
105461,101558
105488,101516
105510,101563
105502,101582
105537,101615
105534,101591
105617,101631
105545,101639
105591,101640
105658,101654
105683,101650
105653,101664
105685,101675
105670,101642
105683,101683
105710,101634
105710,101707
105694,101697
105742,101663
105753,101725
105730,101711
105760,101683
105756,101697
105720,101686
105773,101674
105783,101723
105786,101698
105753,101683
105806,101708
105792,101726
105787,101682
105833,101745
105799,101689
105816,101705
105832,101705
105778,101689
105770,101651
105791,101666
105753,101644
105710,101624
105733,101645
105647,101620
105637,101583
105654,101614
105628,101592
105594,101589
105585,101567
105544,101588
105531,101538
105508,101565
105527,101568
105499,101544
105472,101532
105502,101521
105449,101533
105466,101499
105437,101532
105426,101513
105481,101527
105450,101488
105423,101483
105462,101475
105440,101481
105458,101483
105428,101461
105415,101478
105436,101474
105402,101488
105405,101441
105388,101448
105396,101477
105365,101426
105385,101431
105390,101474
105411,101444
105404,101457
105423,101443
105424,101471
105418,101424
105456,101471
105402,101457
105437,101438
105429,101420
105420,101465
105447,101465
105437,101481
105419,101461
105417,101435
105432,101460
105434,101472
105436,101415
105444,101478
105462,101458
105440,101472
105428,101415
105453,101439
105412,101424
105474,101452
105471,101480
105438,101442
105450,101460
105498,101463
105451,101474
105449,101418
105435,101443
105462,101461
105446,101430
105464,101451
105424,101432
105447,101457
105448,101447
105449,101468
105454,101462
105438,101438
105441,101444
105451,101455
105485,101441
105452,101446
105489,101463
105494,101452
105481,101447
105480,101448
105508,101457
105501,101457
105515,101460
105490,101469
105492,101454
105543,101469
105526,101455
105522,101456
105538,101482
105544,101468
105509,101461
105567,101479
105572,101482
105559,101493
105595,101495
105557,101477
105616,101511
105620,101512
105621,101534
105614,101504
105627,101489
105614,101549
105625,101534
105647,101504
105643,101505
105676,101509
105645,101530
105658,101533
105698,101519
105658,101522
105636,101511
105691,101515
105644,101507
105621,101493
105629,101511
105591,101480
105597,101459
105581,101448
105549,101485
105542,101430
105528,101479
105480,101420
105469,101443
105480,101425
105485,101443
105415,101423
105451,101426
105443,101390
105423,101413
105408,101436
105408,101379
105444,101436
105402,101402
105424,101393
105407,101387
105391,101384
105391,101385
105383,101376
105403,101400
105398,101385
105379,101366
105359,101346
105375,101370
105375,101351
105331,101328
105370,101349
105345,101348
105352,101338
105333,101326
105347,101306
105347,101324
105359,101315
105335,101315
105344,101328
105356,101348
105372,101328
105387,101357
105384,101355
105424,101338
105419,101389
105393,101338
105469,101365
105451,101362
105452,101386
105451,101347
105514,101422
105503,101347
105510,101381
105514,101398
105490,101397
105483,101364
105542,101406
105498,101382
105524,101366
105499,101396
105510,101379
105543,101370
105535,101399
105499,101404
105515,101382
105545,101395
105532,101383
105556,101405
105532,101387
105556,101418
105576,101446
105610,101423
105611,101462
105593,101456
105585,101445
105652,101441
105613,101471
105622,101459
105673,101466
105664,101473
105677,101498
105661,101470
105693,101507
105692,101520
105692,101490
105679,101543
105722,101508
105748,101516
105744,101511
105756,101556
105732,101528
105749,101564
105763,101534
105811,101541
105792,101568
105771,101536
105828,101570
105806,101552
105847,101529
105834,101583
105788,101532
105814,101583
105800,101581
105793,101547
105853,101578
105809,101551
105826,101587
105812,101561
105847,101569
105834,101527
105871,101595
105849,101538
105857,101562
105839,101577
105861,101549
105821,101531
105868,101576
105801,101537
105842,101518
105784,101559
105794,101527
105791,101496
105738,101500
105742,101504
105727,101518
105675,101488
105710,101481
105687,101449
105666,101452
105634,101431
105619,101436
105603,101414
105598,101409
105570,101453
105577,101414
105604,101445
105541,101434
105523,101373
105525,101437
105509,101397
105548,101431
105522,101380
105544,101390
105509,101417
105514,101390
105534,101402
105514,101370
105515,101365
105495,101408
105508,101393
105515,101371
105516,101375
105510,101409
105495,101367
105527,101357
105542,101387
105523,101373
105524,101387
105497,101343
105530,101369
105527,101396
105538,101345
105502,101355
105509,101381
105519,101331
105536,101358
105520,101324
105524,101366
105510,101351
105532,101370
105505,101340
105524,101383
105524,101338
105502,101336
105489,101350
105491,101349
105479,101312
105492,101332
105459,101312
105493,101334
105497,101292
105468,101300
105463,101330
105471,101354
105464,101316
105476,101307
105453,101293
105473,101303
105447,101306
105489,101288
105451,101321
105465,101264
105446,101279
105457,101305
105476,101280
105413,101320
105443,101263
105437,101301
105403,101277
105428,101266
105414,101311
105444,101296
105478,101287
105429,101271
105480,101316
105478,101288
105471,101303
105514,101290
105519,101361
105542,101318
105555,101337
105565,101375
105619,101400
105626,101375
105680,101417
105651,101436
105710,101449
105705,101447
105727,101435
105755,101462
105725,101481
105755,101457
105759,101477
105772,101483
105768,101495
105771,101507
105780,101511
105784,101486
105790,101458
105816,101520
105809,101455
105793,101480
105759,101478
105782,101452
105727,101477
105724,101438
105697,101398
105691,101433
105635,101401
105672,101393
105638,101412
105624,101404
105596,101372
105540,101361
105575,101353
105527,101384
105514,101339
105506,101366
105522,101350
105469,101354
105451,101304
105432,101345
105437,101345
105445,101322
105432,101332
105389,101302
105401,101284
105411,101307
105411,101309
105400,101337
105375,101319
105397,101282
105424,101330
105403,101289
105443,101338
105442,101325
105431,101354
105447,101315
105466,101359
105468,101356
105476,101379
105500,101405
105533,101382
105543,101415
105576,101394
105609,101470
105635,101419
105636,101459
105680,101455
105690,101479
105657,101443
105706,101478
105714,101509
105703,101460
105737,101500
105710,101520
105697,101475
105763,101473
105744,101470
105728,101479
105744,101499
105699,101470
105773,101465
105715,101477
105704,101464
105740,101423
105725,101475
105729,101416
105704,101468
105696,101409
105710,101419
105707,101422
105714,101436
105712,101447
105749,101430
105705,101407
105729,101435
105764,101434
105711,101449
105756,101435
105758,101456
105730,101465
105723,101464
105754,101439
105710,101443
105733,101468
105736,101442
105796,101464
105794,101450
105795,101486
105799,101485
105802,101469
105844,101497
105818,101456
105861,101513
105876,101486
105903,101492
105894,101529
105863,101496
105911,101526
105879,101555
105906,101529
105926,101534
105911,101533
105926,101532
105914,101554
105929,101549
105956,101553
105954,101576
105925,101531
105989,101559
105942,101562
105964,101543
105935,101551
105941,101515
105966,101566
105958,101513
105943,101546
105952,101540
105948,101524
105923,101503
105917,101521
105910,101507
105889,101482
105918,101515
105857,101455
105888,101479
105799,101491
105810,101465
105775,101475
105769,101491
105746,101484
105748,101435
105761,101452
105721,101482
105714,101430
105726,101479
105704,101465
105735,101461
105689,101496
105731,101422
105726,101467
105684,101474
105662,101469
105678,101413
105686,101489
105683,101416
105639,101437
105658,101459
105664,101421
105637,101435
105672,101434
105641,101401
105638,101429
105632,101458
105643,101406
105643,101390
105648,101437
105615,101424
105671,101417
105662,101457
105698,101443
105705,101452
105678,101457
105725,101421
105717,101449
105749,101460
105737,101458
105742,101467
105767,101458
105781,101503
105781,101449
105797,101460
105809,101467
105739,101450
105779,101439
105770,101461
105775,101436
105761,101416
105765,101451
105760,101414
105707,101380
105721,101391
105714,101382
105695,101382
105694,101365
105676,101344
105669,101342
105622,101335
105642,101339
105658,101303
105640,101328
105634,101305
105604,101336
105612,101279
105608,101321
105627,101300
105609,101304
105632,101283
105600,101290
105611,101273
105624,101280
105588,101332
105605,101308
105623,101282
105610,101332
105605,101288
105648,101333
105644,101323
105643,101322
105693,101338
105626,101356
105655,101295
105649,101332
105633,101352
105658,101321
105682,101343
105662,101325
105660,101342
105667,101333
105633,101357
105668,101362
105681,101317
105647,101331
105693,101312
105664,101340
105648,101335
105696,101320
105689,101339
105654,101323
105704,101325
105685,101312
105639,101348
105629,101323
105670,101325
105651,101306
105666,101288
105674,101301
105677,101297
105643,101336
105669,101300
105679,101338
105621,101278
105636,101315
105679,101328
105628,101271
105577,101308
105594,101289
105589,101292
105582,101263
105517,101266
105518,101225
105529,101283
105467,101266
105458,101242
105431,101244
105470,101205
105427,101258
105442,101233
105456,101231
105416,101261
105386,101220
105439,101217
105424,101208
105371,101196
105393,101214
105367,101192
105385,101212
105341,101156
105401,101206
105334,101165
105322,101195
105377,101195
105315,101184
105349,101173
105325,101155
105373,101168
105325,101192
105377,101164
105354,101203
105401,101193
105376,101204
105406,101228
105391,101225
105442,101191
105453,101220
105480,101237
105477,101276
105467,101256
105520,101234
105490,101285
105509,101257
105569,101295
105576,101275
105530,101295
105551,101272
105551,101308
105563,101291
105554,101277
105580,101274
105566,101303
105547,101315
105571,101267
105558,101267
105590,101307
105578,101273
105586,101267
105574,101294
105560,101289
105565,101304
105605,101297
105599,101285
105580,101275
105604,101293
105632,101325
105599,101299
105660,101326
105685,101315
105682,101331
105642,101280
105687,101363
105637,101323
105680,101327
105669,101332
105646,101363
105663,101308
105668,101301
105647,101336
105620,101335
105665,101351
105638,101312
105705,101311
105642,101359
105691,101297
105680,101316
105679,101321
105688,101349
105721,101316
105728,101363
105710,101352
105724,101354
105759,101351
105727,101333
105752,101365
105763,101330
105765,101362
105811,101351
105752,101373
105800,101371
105809,101341
105822,101376
105821,101355
105835,101360
105813,101376
105860,101363
105836,101417
105823,101348
105851,101386
105852,101387
105897,101392
105894,101426
105864,101375
105924,101436
105892,101397
105886,101427
105913,101403
105870,101440
105860,101375
105887,101401
105809,101391
105819,101373
105829,101375
105789,101358
105729,101372
105772,101328
105751,101337
105763,101352
105718,101349
105691,101316
105743,101330
105675,101306
105700,101319
105638,101275
105669,101297
105633,101270
105688,101281
105634,101297
105661,101288
105645,101305
105658,101307
105613,101271
105652,101273
105633,101273
105646,101291
105673,101278
105633,101294
105686,101282
105641,101276
105683,101307
105680,101262
105708,101307
105693,101276
105740,101330
105724,101322
105745,101321
105750,101302
105763,101346
105771,101305
105763,101315
105763,101324
105780,101310
105761,101334
105786,101345
105783,101315
105789,101357
105784,101311
105814,101334
105755,101330
105802,101333
105809,101348
105784,101323
105816,101290
105776,101321
105770,101305
105818,101329
105770,101299
105815,101335
105827,101292
105821,101356
105857,101326
105850,101326
105859,101349
105832,101332
105871,101324
105867,101361
105863,101375
105906,101343
105908,101378
105884,101380
105949,101383
105935,101409
105937,101412
105973,101432
105948,101392
105991,101444
105934,101389
106004,101426
105986,101442
106039,101460
106018,101428
106027,101455
106045,101409
106034,101452
106041,101479
106060,101463
106075,101476
106055,101482
106082,101432
106093,101486
106102,101492
106111,101491
106099,101507
106127,101485
106176,101517
106154,101512
106147,101508
106200,101540
106173,101539
106199,101498
106181,101550
106211,101521
106245,101535
106225,101544
106238,101566
106243,101550
106253,101527
106237,101567
106254,101559
106261,101554
106279,101577
106267,101577
106327,101563
106288,101582
106310,101569
106343,101578
106303,101601
106341,101556
106312,101597
106306,101548
106291,101538
106319,101568
106273,101543
106300,101585
106214,101531
106235,101544
106227,101504
106206,101521
106170,101491
106161,101513
106173,101492
106148,101474
106165,101522
106143,101484
106133,101481
106112,101498
106112,101464
106121,101459
106137,101482
106125,101511
106170,101492
106128,101515
106125,101453
106154,101489
106148,101521
106161,101550
106138,101517
106211,101526
106195,101564
106232,101552
106268,101553
106246,101592
106299,101571
106247,101612
106302,101641
106309,101596
106364,101646
106357,101642
106377,101617
106412,101646
106389,101643
106413,101668
106429,101657
106423,101649
106502,101693
106446,101699
106488,101677
106480,101668
106471,101660
106529,101693
106499,101730
106512,101685
106543,101724
106550,101705
106584,101758
106591,101759
106571,101770
106585,101710
106597,101754
106595,101741
106603,101752
106606,101753
106611,101757
106610,101754
106584,101741
106608,101762
106599,101726
106616,101781
106612,101745
106591,101738
106619,101767
106613,101735
106632,101728
106610,101738
106625,101759
106618,101738
106622,101754
106658,101746
106615,101742
106629,101745
106627,101729
106656,101738
106633,101744
106650,101769
106645,101753
106673,101771
106631,101750
106708,101764
106675,101806
106690,101753
106685,101758
106710,101780
106719,101783
106698,101810
106704,101746
106713,101796
106702,101780
106730,101778
106734,101807
106693,101757
106703,101781
106731,101812
106712,101790
106730,101825
106725,101766
106720,101814
106753,101786
106773,101779
106793,101800
106752,101828
106777,101819
106751,101833
106806,101841
106804,101853
106791,101838
106825,101821
106848,101873
106806,101805
106836,101843
106834,101833
106846,101861
106810,101855
106831,101804
106821,101830
106801,101822
106775,101824
106749,101811
106751,101849
106717,101810
106716,101804
106721,101795
106712,101792
106699,101800
106671,101805
106691,101805
106665,101790
106645,101740
106644,101795
106652,101810
106636,101772
106657,101746
106668,101801
106652,101732
106660,101771
106660,101770
106636,101789
106630,101739
106692,101803
106654,101759
106668,101739
106637,101787
106630,101733
106688,101778
106677,101758
106667,101742
106645,101728
106690,101783
106710,101742
106682,101780
106689,101743
106726,101761
106697,101782
106717,101746
106728,101773
106683,101775
106733,101742
106766,101791
106752,101748
106772,101760
106730,101794
106733,101784
106794,101773
106746,101792
106776,101776
106727,101789
106779,101791
106753,101789
106812,101795
106751,101803
106782,101781
106773,101761
106750,101800
106757,101780
106776,101770
106729,101760
106754,101793
106715,101765
106762,101783
106758,101792
106767,101735
106754,101792
106750,101764
106745,101795
106773,101783
106718,101790
106747,101733
106770,101789
106796,101786
106740,101769
106743,101759
106773,101793
106756,101748
106773,101807
106794,101780
106758,101797
106804,101835
106773,101779
106807,101827
106782,101795
106778,101765
106803,101806
106810,101790
106774,101783
106804,101757
106765,101804
106795,101813
106806,101768
106772,101806
106821,101810
106824,101816
106800,101833
106801,101770
106816,101819
106809,101795
106814,101777
106855,101812
106819,101828
106853,101788
106844,101811
106855,101838
106834,101828
106897,101805
106872,101829
106864,101820
106896,101816
106869,101861
106886,101788
106859,101838
106846,101814
106857,101807
106863,101801
106832,101818
106811,101810
106817,101740
106802,101794
106763,101757
106786,101778
106723,101737
106729,101721
106685,101734
106715,101710
106693,101720
106667,101702
106681,101716
106640,101694
106691,101710
106645,101715
106652,101700
106687,101705
106632,101735
106676,101736
106674,101683
106662,101723
106643,101749
106717,101723
106699,101740
106700,101755
106706,101711
106719,101746
106710,101773
106702,101756
106757,101747
106764,101770
106748,101796
106779,101752
106766,101762
106782,101796
106767,101757
106797,101780
106748,101756
106813,101793
106789,101776
106802,101769
106813,101783
106800,101800
106786,101780
106815,101774
106836,101781
106833,101796
106816,101795
106811,101762
106848,101796
106830,101781
106845,101790
106828,101816
106828,101767
106862,101804
106816,101778
106865,101800
106878,101806
106887,101816
106887,101808
106858,101829
106860,101782
106908,101827
106856,101801
106876,101790
106841,101795
106856,101786
106871,101823
106880,101796
106905,101811
106870,101800
106888,101777
106836,101767
106862,101772
106849,101789
106845,101808
106833,101787
106846,101808
106825,101756
106841,101773
106806,101778
106839,101765
106849,101771
106858,101794
106844,101790
106898,101795
106858,101791
106860,101816
106886,101792
106898,101778
106906,101778
106886,101818
106893,101787
106921,101808
106888,101826
106884,101791
106923,101789
106868,101820
106919,101811
106907,101807
106896,101825
106924,101786
106920,101844
106916,101785
106913,101809
106920,101833
106977,101816
106925,101820
106954,101792
106934,101847
106950,101817
106944,101790
106982,101778
106998,101834
106946,101821
106980,101808
106956,101819
106965,101782
106949,101814
106913,101783
106897,101772
106877,101802
106846,101758
106859,101773
106822,101774
106837,101784
106822,101745
106796,101762
106775,101747
106816,101736
106804,101723
106728,101751
106788,101692
106748,101749
106736,101699
106709,101671
106760,101698
106716,101727
106681,101674
106747,101718
106698,101684
106703,101692
106731,101683
106708,101708
106754,101682
106748,101712
106762,101699
106763,101688
106733,101706
106755,101716
106762,101688
106788,101754
106794,101714
106807,101725
106805,101738
106794,101763
106821,101725
106816,101773
106814,101762
106846,101738
106848,101795
106876,101740
106860,101793
106885,101762
106897,101806
106906,101788
106929,101807
106929,101788
106943,101821
106958,101775
106919,101817
106990,101828
106970,101809
106971,101846
106985,101831
107019,101873
107009,101859
107014,101822
107009,101847
106990,101884
107002,101823
107028,101865
107004,101845
107013,101869
107017,101851
106985,101862
107043,101868
107016,101852
107011,101847
107021,101847
107036,101828
107006,101847
106995,101843
107039,101872
107020,101860
107031,101857
107008,101850
107034,101840
107041,101836
107029,101843
107045,101834
107015,101831
107055,101855
107076,101850
107055,101851
107055,101855
107085,101867
107077,101848
107081,101853
107065,101850
107095,101856
107072,101852
107105,101869
107041,101879
107074,101864
107075,101871
107106,101864
107059,101877
107096,101877
107085,101835
107100,101847
107090,101889
107114,101877
107131,101852
107111,101868
107076,101853
107144,101834
107126,101847
107111,101860
107112,101888
107126,101836
107111,101839
107090,101833
107152,101853
107122,101813
107129,101846
107099,101846
107101,101816
107039,101821
107033,101812
107039,101780
106974,101804
106987,101783
106949,101746
106974,101801
106928,101752
106920,101726
106913,101738
106858,101688
106889,101739
106856,101714
106827,101682
106847,101669
106807,101700
106770,101666
106774,101656
106783,101647
106773,101647
106721,101665
106760,101650
106722,101636
106718,101630
106686,101603
106728,101582
106670,101618
106714,101614
106688,101606
106697,101617
106685,101588
106723,101588
106670,101566
106732,101590
106672,101559
106719,101569
106704,101605
106683,101569
106720,101594
106681,101571
106707,101560
106712,101590
106741,101549
106692,101607
106690,101539
106725,101589
106695,101592
106689,101563
106678,101519
106699,101542
106692,101551
106725,101529
106733,101545
106664,101516
106711,101541
106645,101553
106684,101510
106680,101522
106661,101544
106637,101505
106654,101521
106675,101554
106621,101495
106641,101511
106668,101511
106626,101524
106668,101518
106613,101526
106641,101515
106627,101524
106626,101506
106638,101510
106630,101546
106645,101510
106617,101532
106651,101490
106618,101495
106647,101496
106667,101534
106637,101495
106670,101510
106630,101507
106663,101484
106615,101533
106621,101507
106649,101490
106636,101510
106626,101455
106648,101483
106648,101461
106671,101459
106619,101497
106635,101456
106641,101498
106653,101496
106640,101470
106646,101512
106643,101470
106719,101508
106664,101474
106700,101483
106654,101493
106662,101506
106685,101489
106686,101485
106715,101497
106693,101472
106668,101474
106673,101492
106674,101452
106698,101499
106676,101450
106647,101452
106679,101453
106635,101450
106641,101382
106651,101451
106611,101403
106588,101403
106570,101391
106560,101391
106568,101356
106560,101392
106529,101337
106474,101328
106484,101324
106460,101356
106497,101338
106411,101326
106411,101332
106436,101330
106433,101342
106380,101364
106418,101341
106403,101343
106406,101346
106408,101360
106402,101339
106413,101346
106425,101402
106401,101329
106405,101371
106403,101375
106400,101408
106385,101361
106447,101386
106407,101407
106406,101360
106445,101401
106443,101396
106416,101398
106447,101378
106411,101397
106445,101402
106480,101401
106474,101417
106505,101450
106483,101445
106537,101453
106511,101459
106529,101455
106591,101473
106544,101509
106599,101470
106597,101507
106608,101498
106618,101515
106603,101500
106625,101555
106613,101513
106689,101536
106684,101541
106678,101568
106696,101545
106699,101573
106682,101514
106693,101566
106712,101553
106712,101542
106696,101551
106714,101571
106708,101557
106659,101551
106695,101545
106697,101568
106708,101563
106702,101567
106658,101530
106669,101569
106675,101548
106677,101536
106730,101544
106700,101593
106715,101530
106745,101582
106729,101570
106743,101568
106739,101551
106765,101601
106750,101589
106796,101589
106785,101599
106741,101596
106821,101606
106778,101630
106803,101596
106783,101623
106760,101589
106803,101595
106794,101594
106788,101551
106829,101609
106760,101608
106790,101584
106803,101595
106796,101581
106811,101586
106809,101621
106850,101577
106809,101619
106852,101602
106858,101597
106808,101626
106861,101615
106867,101619
106852,101630
106844,101618
106900,101633
106860,101619
106852,101600
106900,101612
106892,101613
106860,101636
106875,101604
106861,101606
106896,101573
106894,101604
106895,101591
106862,101600
106870,101592
106827,101586
106835,101564
106812,101604
106816,101555
106772,101523
106737,101562
106732,101517
106741,101532
106686,101514
106708,101511
106653,101496
106664,101506
106654,101458
106634,101460
106641,101481
106647,101475
106610,101445
106594,101475
106618,101427
106603,101487
106596,101411
106628,101427
106586,101474
106595,101453
106587,101437
106579,101389
106625,101435
106602,101426
106576,101428
106633,101469
106631,101433
106617,101459
106589,101420
106578,101446
106602,101437
106618,101410
106617,101418
106578,101388
106603,101431
106608,101419
106574,101412
106565,101380
106599,101432
106560,101352
106586,101377
106573,101395
106523,101360
106548,101361
106536,101342
106571,101360
106514,101330
106552,101379
106533,101350
106518,101340
106539,101335
106514,101310
106550,101300
106512,101335
106536,101332
106506,101317
106499,101303
106536,101299
106498,101324
106508,101310
106503,101302
106483,101281
106477,101268
106418,101257
106464,101260
106422,101248
106443,101223
106409,101250
106415,101196
106388,101249
106376,101195
106403,101203
106394,101225
106366,101189
106395,101195
106373,101229
106404,101186
106370,101206
106412,101219
106405,101205
106417,101198
106381,101215
106446,101209
106440,101249
106437,101251
106453,101247
106468,101239
106461,101270
106505,101262
106499,101293
106522,101281
106526,101280
106529,101300
106537,101291
106552,101310
106551,101320
106563,101322
106540,101305
106547,101324
106554,101327
106587,101315
106589,101309
106577,101356
106609,101317
106596,101337
106639,101335
106606,101353
106635,101337
106629,101375
106675,101363
106637,101369
106680,101377
106685,101392
106658,101368
106661,101368
106662,101353
106621,101352
106640,101356
106617,101368
106601,101329
106606,101346
106575,101299
106560,101309
106528,101340
106512,101296
106523,101291
106495,101289
106504,101278
106497,101261
106529,101306
106466,101316
106520,101280
106495,101300
106485,101284
106439,101286
106496,101307
106485,101271
106455,101251
106483,101328
106464,101280
106503,101267
106484,101302
106468,101282
106495,101321
106479,101283
106511,101265
106541,101303
106484,101281
106534,101302
106534,101300
106511,101272
106545,101260
106587,101326
106539,101294
106546,101300
106591,101308
106572,101328
106577,101281
106615,101335
106574,101295
106614,101316
106613,101317
106614,101297
106595,101290
106604,101275
106608,101327
106617,101300
106600,101302
106628,101337
106605,101305
106630,101290
106622,101293
106639,101316
106651,101330
106638,101354
106644,101294
106639,101331
106656,101333
106656,101347
106674,101319
106633,101358
106646,101351
106678,101349
106696,101371
106684,101353
106650,101349
106673,101382
106674,101318
106713,101373
106659,101365
106699,101357
106723,101357
106695,101374
106725,101390
106712,101404
106761,101358
106740,101400
106733,101368
106758,101390
106739,101419
106768,101355
106759,101408
106779,101376
106786,101380
106780,101401
106752,101403
106768,101359
106819,101420
106807,101391
106767,101383
106823,101395
106820,101427
106826,101386
106785,101437
106832,101400
106816,101419
106786,101416
106829,101405
106830,101452
106843,101411
106871,101425
106845,101443
106877,101427
106876,101429
106900,101469
106879,101405
106864,101439
106879,101421
106873,101454
106859,101440
106877,101411
106855,101453
106856,101401
106863,101385
106829,101399
106811,101376
106773,101361
106769,101353
106765,101345
106751,101362
106701,101338
106707,101299
106696,101320
106659,101270
106632,101324
106610,101277
106638,101266
106623,101296
106591,101226
106613,101263
106603,101273
106611,101236
106527,101248
106564,101245
106551,101240
106586,101241
106551,101258
106532,101224
106559,101253
106538,101229
106523,101212
106539,101208
106540,101227
106591,101262
106556,101229
106591,101256
106572,101216
106614,101221
106607,101247
106603,101237
106594,101225
106642,101265
106584,101261
106614,101234
106646,101262
106632,101261
106646,101251
106634,101274
106619,101223
106674,101236
106657,101270
106634,101254
106664,101261
106667,101273
106667,101256
106702,101277
106709,101301
106660,101276
106672,101286
106664,101234
106698,101278
106680,101275
106711,101253
106670,101268
106731,101264
106645,101245
106675,101236
106674,101296
106644,101247
106674,101236
106657,101214
106661,101256
106624,101202
106646,101248
106601,101229
106659,101192
106598,101195
106627,101254
106642,101194
106634,101237
106613,101190
106601,101201
106607,101204
106564,101184
106613,101180
106587,101212
106611,101204
106624,101198
106617,101203
106595,101228
106623,101163
106635,101221
106619,101163
106613,101198
106640,101216
106642,101188
106591,101189
106639,101155
106638,101184
106619,101223
106618,101171
106617,101180
106598,101152
106611,101184
106622,101182
106554,101161
106603,101148
106567,101160
106583,101154
106602,101164
106573,101162
106562,101148
106539,101121
106565,101128
106593,101158
106581,101106
106560,101117
106580,101132
106541,101113
106594,101125
106540,101090
106544,101100
106522,101133
106537,101094
106459,101075
106470,101101
106470,101053
106490,101094
106460,101047
106421,101058
106396,101038
106395,101021
106387,100987
106338,101035
106328,101025
106282,100964
106305,100995
106309,100976
106283,100991
106234,100956
106279,101002
106260,100960
106266,100957
106273,100985
106230,100949
106258,100987
106255,100946
106268,100995
106239,100977
106307,101011
106269,100951
106325,100989
106317,101008
106326,101035
106334,101019
106341,101027
106338,101024
106369,101031
106361,101007
106387,101025
106379,101027
106395,101066
106377,101016
106401,101055
106384,101067
106400,101032
106399,101089
106436,101036
106439,101066
106404,101034
106439,101075
106446,101063
106423,101066
106458,101047
106441,101078
106451,101052
106460,101059
106469,101091
106470,101073
106485,101109
106468,101065
106528,101101
106516,101077
106512,101116
106487,101100
106558,101115
106480,101133
106529,101092
106492,101088
106550,101108
106509,101140
106479,101086
106537,101138
106507,101086
106526,101105
106511,101089
106466,101112
106498,101050
106491,101094
106463,101059
106461,101089
106496,101086
106517,101065
106484,101072
106511,101083
106522,101103
106503,101068
106534,101125
106546,101091
106526,101140
106572,101118
106558,101151
106545,101162
106590,101150
106614,101137
106624,101187
106604,101150
106645,101187
106649,101138
106628,101169
106671,101176
106665,101175
106663,101166
106652,101193
106655,101159
106656,101202
106700,101181
106725,101185
106693,101178
106702,101212
106725,101205
106728,101222
106712,101213
106718,101214
106721,101194
106769,101234
106738,101244
106754,101231
106743,101216
106758,101238
106767,101237
106737,101234
106739,101212
106723,101203
106681,101201
106678,101209
106632,101164
106673,101166
106652,101156
106583,101187
106609,101138
106628,101158
106572,101120
106583,101146
106524,101132
106564,101147
106545,101101
106562,101105
106537,101110
106531,101089
106499,101077
106516,101076
106524,101091
106507,101103
106500,101055
106478,101086
106523,101078
106505,101054
106539,101089
106495,101078
106510,101114
106524,101085
106561,101077
106552,101105
106542,101058
106534,101096
106565,101113
106580,101091
106568,101101
106547,101088
106590,101109
106574,101084
106621,101100
106601,101097
106573,101130
106598,101107
106581,101101
106606,101117
106627,101089
106586,101111
106577,101089
106614,101098
106636,101091
106660,101115
106618,101112
106640,101113
106636,101109
106634,101141
106608,101084
106650,101126
106645,101089
106583,101103
106663,101103
106618,101069
106637,101108
106607,101096
106610,101054
106586,101094
106575,101066
106616,101061
106599,101073
106581,101064
106630,101058
106548,101058
106598,101050
106591,101032
106554,101057
106620,101054
106571,101094
106577,101071
106594,101070
106576,101021
106610,101095
106562,101035
106609,101070
106589,101049
106592,101061
106606,101054
106620,101058
106606,101080
106609,101071
106638,101098
106621,101081
106653,101106
106669,101111
106652,101127
106664,101086
106715,101144
106699,101151
106704,101159
106711,101121
106757,101161
106705,101136
106748,101159
106732,101141
106787,101161
106715,101181
106742,101150
106777,101165
106733,101131
106745,101132
106727,101179
106743,101127
106712,101161
106742,101156
106752,101149
106695,101151
106735,101161
106704,101146
106721,101097
106709,101157
106671,101125
106694,101140
106628,101115
106645,101106
106609,101087
106583,101116
106567,101098
106565,101091
106560,101056
106544,101085
106529,101074
106547,101052
106521,101081
106509,101060
106484,101055
106523,101049
106486,101042
106510,101037
106472,101042
106423,101045
106503,101046
106476,101036
106463,101053
106481,100999
106472,101026
106492,101007
106475,100994
106468,101025
106472,100999
106472,101037
106467,101001
106488,101016
106486,101011
106486,101010
106445,100995
106496,100992
106495,100995
106494,100999
106505,100994
106496,101031
106485,100972
106467,101027
106508,100990
106505,101010
106481,100992
106531,100998
106505,100984
106514,100996
106494,101037
106490,101004
106503,101032
106498,100986
106521,101006
106484,101030
106534,101009
106498,101003
106545,101029
106507,101043
106521,101003
106513,101027
106496,101032
106519,101001
106476,101009
106500,101021
106462,100990
106505,101011
106448,100957
106502,100976
106428,100988
106489,100982
106444,100951
106461,100974
106446,100972
106463,100927
106465,100960
106441,100982
106440,100931
106494,100953
106449,100976
106442,100971
106435,100978
106465,100943
106516,100993
106485,100935
106502,100965
106456,100977
106502,101002
106466,100972
106541,101006
106480,100993
106522,100973
106487,100981
106498,100969
106510,100977
106549,100981
106522,100993
106537,100973
106513,101008
106577,100978
106530,100985
106524,100989
106548,100956
106551,100974
106530,100975
106572,100999
106570,100999
106533,100984
106580,100974
106568,100994
106566,100996
106597,101004
106568,100993
106568,100946
106516,100990
106532,100990
106544,100943
106474,100942
106492,100943
106487,100901
106428,100894
106403,100908
106383,100916
106388,100858
106391,100906
106308,100867
106339,100865
106308,100841
106293,100832
106270,100818
106317,100802
106252,100852
106232,100809
106202,100791
106262,100812
106205,100818
106238,100807
106210,100789
106244,100778
106197,100775
106230,100777
106229,100812
106205,100792
106224,100800
106231,100793
106225,100809
106237,100782
106227,100818
106233,100759
106260,100817
106233,100814
106279,100784
106276,100802
106263,100820
106282,100817
106282,100816
106288,100796
106291,100803
106322,100810
106259,100819
106338,100783
106280,100856
106316,100776
106296,100807
106329,100831
106327,100811
106308,100852
106327,100806
106353,100851
106345,100863
106364,100842
106369,100851
106346,100822
106356,100872
106373,100831
106369,100882
106412,100871
106407,100887
106392,100860
106424,100893
106400,100884
106386,100882
106394,100868
106407,100901
106383,100865
106457,100902
106397,100894
106402,100885
106380,100883
106421,100888
106424,100927
106439,100864
106420,100908
106451,100920
106422,100902
106458,100906
106412,100910
106471,100910
106463,100946
106452,100929
106486,100918
106512,100940
106484,100985
106487,100924
106511,100974
106536,100972
106504,100982
106550,100969
106557,101014
106618,100979
106571,101029
106604,101008
106601,101005
106577,100991
106641,101008
106600,101003
106655,101007
106664,101037
106655,101026
106647,101034
106645,101042
106690,101040
106707,101049
106678,101076
106701,101077
106710,101065
106713,101091
106706,101051
106754,101100
106710,101072
106749,101078
106773,101074
106717,101065
106728,101035
106729,101047
106704,101045
106623,101031
106658,101011
106628,101012
106630,101014
106586,101002
106581,100998
106582,100970
106516,100940
106530,100956
106516,100950
106496,100968
106512,100948
106488,100922
106473,100919
106493,100959
106489,100925
106447,100912
106467,100918
106490,100911
106495,100928
106449,100945
106472,100879
106511,100940
106504,100913
106490,100919
106449,100914
106479,100925
106552,100957
106526,100929
106557,100960
106521,100965
106527,100916
106561,100978
106552,100966
106577,100953
106582,100959
106605,100983
106560,100932
106555,100975
106586,100981
106623,100961
106577,100967
106632,100965
106637,100981
106608,100962
106601,100997
106600,100930
106648,100988
106627,100976
106597,100961
106647,100970
106598,100992
106612,100953
106632,100986
106605,100940
106630,100951
106615,100983
106590,100908
106621,100966
106623,100939
106599,100925
106558,100933
106617,100969
106593,100942
106560,100947
106614,100935
106593,100969
106592,100937
106605,100947
106551,100934
106559,100925
106616,100944
106557,100915
106574,100930
106563,100946
106587,100915
106610,100952
106566,100888
106588,100907
106580,100927
106545,100917
106583,100889
106589,100939
106577,100940
106608,100934
106596,100942
106607,100923
106636,100947
106633,100961
106616,100916
106651,100958
106612,100959
106645,100911
106641,100949
106651,100953
106640,100951
106633,100957
106613,100940
106645,100947
106659,100968
106629,100958
106652,100971
106640,100942
106642,100950
106643,100938
106649,100973
106660,100966
106665,100961
106691,100957
106685,100950
106676,100962
106700,100997
106701,100969
106675,100964
106703,100963
106689,100965
106643,100961
106669,100974
106649,100912
106632,100905
106582,100937
106538,100868
106556,100926
106497,100872
106499,100875
106437,100852
106442,100818
106417,100862
106370,100805
106409,100816
106373,100808
106383,100767
106336,100795
106324,100777
106348,100815
106315,100781
106309,100802
106364,100793
106329,100803
106335,100820
106299,100798
106341,100747
106345,100796
106344,100809
106342,100767
106376,100785
106358,100818
106386,100774
106339,100759
106347,100782
106388,100759
106346,100784
106366,100714
106334,100744
106306,100732
106298,100721
106362,100721
106287,100708
106318,100711
106312,100689
106317,100710
106293,100722
106324,100685
106312,100710
106292,100698
106325,100677
106308,100716
106311,100650
106310,100691
106313,100659
106296,100695
106239,100638
106273,100666
106251,100652
106218,100663
106226,100626
106262,100662
106220,100607
106211,100633
106214,100626
106242,100620
106202,100656
106226,100629
106216,100635
106238,100642
106229,100638
106207,100594
106221,100641
106192,100597
106236,100623
106217,100611
106170,100644
106222,100597
106168,100614
106173,100601
106181,100607
106179,100614
106187,100543
106180,100592
106185,100578
106144,100608
106124,100549
106160,100562
106131,100570
106120,100540
106153,100541
106119,100581
106138,100555
106119,100559
106146,100551
106160,100554
106123,100556
106163,100548
106177,100589
106127,100529
106140,100548
106184,100570
106145,100534
106160,100534
106136,100573
106174,100568
106141,100554
106189,100558
106151,100571
106165,100528
106159,100544
106158,100534
106194,100570
106150,100571
106186,100569
106186,100542
106133,100540
106172,100526
106129,100531
106144,100537
106119,100496
106052,100513
106065,100474
106025,100448
105963,100458
105966,100419
105967,100465
105931,100388
105931,100429
105889,100411
105884,100381
105868,100369
105848,100392
105793,100357
105848,100393
105793,100366
105802,100356
105781,100355
105802,100305
105729,100367
105754,100337
105776,100338
105724,100336
105782,100322
105770,100329
105724,100331
105729,100280
105716,100329
105718,100308
105720,100285
105740,100285
105692,100323
105739,100311
105717,100288
105714,100264
105748,100263
105711,100300
105718,100257
105759,100307
105752,100269
105766,100322
105733,100297
105775,100300
105767,100337
105751,100301
105764,100320
105749,100323
105758,100324
105818,100292
105763,100311
105792,100296
105786,100321
105778,100294
105795,100333
105804,100282
105815,100344
105786,100297
105787,100295
105768,100310
105764,100276
105803,100337
105760,100325
105753,100300
105746,100308
105803,100305
105788,100330
105775,100271
105800,100320
105800,100296
105788,100328
105777,100319
105781,100306
105779,100311
105822,100333
105825,100315
105821,100337
105804,100349
105824,100315
105854,100319
105818,100347
105860,100332
105850,100333
105887,100334
105849,100359
105848,100329
105876,100352
105861,100315
105847,100326
105864,100335
105859,100315
105895,100356
105829,100305
105882,100343
105843,100358
105867,100345
105922,100347
105861,100352
105876,100338
105936,100350
105895,100376
105908,100369
105947,100379
105923,100396
105969,100360
105960,100386
105997,100392
105947,100418
105968,100401
106001,100381
105977,100427
105986,100374
105981,100412
105971,100407
105959,100394
105981,100418
105928,100402
105949,100395
105911,100348
105920,100370
105851,100339
105856,100309
105846,100352
105826,100297
105813,100303
105781,100282
105764,100294
105771,100253
105760,100275
105705,100265
105690,100284
105659,100270
105652,100253
105669,100212
105674,100262
105659,100211
105615,100227
105623,100229
105636,100213
105625,100191
105599,100196
105615,100200
105640,100210
105621,100206
105614,100187
105619,100207
105628,100196
105625,100201
105641,100206
105663,100226
105624,100204
105620,100202
105656,100206
105703,100199
105669,100192
105681,100221
105705,100235
105710,100212
105659,100211
105707,100226
105747,100224
105717,100237
105724,100213
105733,100251
105737,100181
105715,100230
105745,100220
105719,100203
105725,100199
105715,100204
105715,100223
105731,100201
105692,100180
105688,100191
105720,100213
105704,100179
105693,100192
105709,100176
105679,100189
105693,100188
105694,100176
105674,100198
105678,100185
105670,100188
105697,100196
105715,100175
105667,100164
105685,100172
105694,100159
105680,100188
105668,100158
105679,100175
105691,100176
105665,100172
105690,100167
105684,100183
105689,100168
105666,100170
105671,100141
105675,100150
105683,100197
105666,100150
105682,100156
105686,100177
105706,100164
105685,100141
105706,100157
105681,100142
105704,100176
105716,100172
105737,100174
105701,100156
105734,100190
105739,100188
105722,100195
105743,100190
105762,100213
105787,100187
105763,100221
105752,100211
105800,100226
105766,100205
105779,100242
105801,100241
105816,100211
105782,100197
105833,100208
105811,100265
105807,100222
105845,100204
105847,100215
105858,100265
105817,100207
105848,100240
105788,100233
105784,100224
105795,100206
105775,100208
105725,100235
105720,100145
105694,100150
105682,100143
105647,100130
105618,100140
105591,100088
105579,100108
105569,100100
105531,100051
105509,100069
105537,100074
105496,100061
105486,100058
105459,100032
105508,100032
105460,100067
105478,100050
105458,100052
105450,100017
105503,100065
105459,100016
105448,100050
105481,100035
105467,100063
105457,100050
105509,100086
105508,100080
105483,100073
105523,100095
105518,100036
105550,100091
105529,100136
105540,100083
105543,100098
105578,100095
105560,100118
105575,100090
105598,100077
105601,100127
105558,100119
105562,100110
105567,100110
105623,100118
105558,100114
105579,100071
105612,100132
105571,100081
105582,100111
105564,100084
105589,100089
105579,100115
105555,100075
105570,100096
105571,100099
105598,100119
105609,100103
105572,100103
105611,100116
105569,100095
105567,100097
105570,100103
105579,100104
105597,100094
105567,100107
105571,100081
105557,100111
105576,100104
105597,100092
105593,100108
105574,100105
105552,100093
105590,100103
105597,100115
105574,100103
105596,100119
105584,100118
105597,100123
105614,100140
105621,100135
105573,100108
105619,100127
105645,100119
105619,100112
105636,100119
105621,100106
105629,100112
105639,100121
105655,100112
105619,100127
105652,100121
105657,100137
105613,100120
105630,100137
105665,100103
105637,100148
105671,100120
105674,100127
105677,100128
105682,100141
105707,100133
105676,100139
105721,100150
105739,100155
105735,100173
105756,100194
105720,100158
105740,100174
105753,100185
105767,100183
105750,100194
105776,100182
105759,100165
105730,100152
105741,100163
105720,100147
105720,100145
105696,100142
105686,100118
105652,100121
105648,100142
105644,100128
105611,100116
105606,100115
105553,100110
105552,100090
105589,100115
105539,100078
105529,100088
105522,100063
105484,100062
105488,100064
105498,100077
105511,100058
105471,100071
105480,100066
105459,100060
105467,100053
105458,100050
105464,100057
105433,100026
105471,100040
105439,100023
105463,100042
105459,100032
105407,100011
105449,100025
105469,100019
105453,100040
105447,100017
105441,99998
105451,100036
105454,100033
105461,100014
105518,100047
105464,100020
105489,100032
105497,100026
105513,100060
105518,100039
105492,100043
105542,100039
105502,100047
105544,100039
105525,100051
105511,100046
105529,100055
105526,100049
105533,100033
105544,100038
105527,100042
105517,100047
105530,100029
105540,100077
105541,100046
105507,100056
105549,100074
105521,100072
105532,100038
105547,100067
105498,100053
105557,100053
105515,100060
105513,100012
105550,100050
105524,100070
105552,100062
105543,100050
105492,100054
105534,100027
105535,100044
105544,100084
105558,100043
105541,100027
105552,100069
105502,100043
105512,100041
105501,100026
105532,100026
105523,100027
105530,100057
105551,100047
105537,100032
105526,100013
105559,100042
105546,100074
105594,100032
105568,100052
105579,100021
105600,100052
105547,100034
105569,100066
105571,100037
105596,100065
105602,100072
105592,100031
105556,100059
105603,100040
105619,100032
105615,100071
105622,100030
105577,100076
105632,100063
105624,100043
105655,100063
105592,100078
105619,100068
105623,100053
105619,100050
105654,100051
105621,100080
105645,100058
105630,100061
105625,100043
105583,100076
105557,100006
105520,99993
105526,99987
105503,99985
105456,100011
105458,99943
105397,99950
105388,99935
105362,99917
105306,99909
105314,99872
105262,99875
105257,99885
105257,99878
105219,99850
105225,99857
105194,99844
105218,99841
105159,99840
105180,99825
105181,99824
105195,99827
105152,99828
105191,99810
105212,99834
105207,99833
105204,99832
105230,99832
105194,99822
105211,99831
105220,99852
105232,99830
105237,99834
105237,99856
105244,99846
105247,99861
105287,99844
105249,99847
105277,99856
105274,99859
105286,99864
105264,99839
105279,99851
105258,99831
105291,99836
105278,99809
105290,99835
105288,99831
105290,99835
105305,99851
105293,99845
105255,99812
105273,99845
105290,99861
105300,99856
105261,99824
105268,99828
105269,99855
105288,99846
105274,99833
105257,99817
105287,99836
105291,99829
105245,99823
105259,99817
105253,99815
105270,99854
105265,99838
105239,99813
105246,99834
105281,99797
105270,99835
105269,99841
105230,99826
105242,99816
105253,99809
105279,99827
105279,99836
105242,99835
105262,99841
105273,99821
105299,99830
105283,99827
105282,99818
105311,99848
105301,99838
105322,99848
105315,99836
105317,99851
105345,99862
105346,99865
105321,99848
105343,99853
105335,99874
105346,99888
105354,99864
105325,99864
105362,99878
105349,99876
105336,99868
105378,99899
105430,99888
105379,99896
105421,99897
105434,99903
105398,99920
105428,99907
105471,99930
105430,99938
105495,99937
105450,99938
105468,99937
105482,99949
105461,99923
105476,99931
105465,99953
105463,99917
105418,99899
105424,99908
105401,99884
105386,99891
105370,99871
105294,99852
105315,99851
105302,99842
105295,99835
105251,99821
105214,99810
105204,99798
105220,99788
105189,99820
105156,99783
105135,99784
105113,99764
105123,99779
105118,99753
105077,99754
105067,99754
105097,99740
105104,99732
105095,99740
105058,99731
105076,99748
105097,99748
105097,99746
105126,99742
105093,99756
105124,99747
105112,99755
105125,99775
105155,99771
105147,99759
105144,99767
105154,99770
105162,99786
105172,99765
105163,99769
105186,99787
105201,99777
105182,99770
105196,99774
105206,99801
105237,99809
105230,99791
105198,99785
105231,99808
105241,99817
105253,99820
105237,99813
105232,99797
105259,99819
105264,99797
105240,99792
105235,99799
105246,99798
105261,99809
105236,99798
105210,99788
105199,99784
105220,99774
105231,99795
105220,99777
105189,99765
105198,99801
105202,99784
105201,99761
105210,99762
105208,99781
105203,99797
105234,99789
105218,99776
105204,99776
105217,99765
105231,99790
105217,99785
105193,99774
105220,99796
105228,99790
105235,99799
105247,99790
105227,99787
105258,99798
105249,99789
105275,99807
105272,99810
105259,99811
105295,99818
105291,99808
105296,99827
105318,99821
105311,99822
105330,99842
105343,99827
105356,99847
105340,99845
105376,99841
105382,99854
105352,99869
105373,99848
105403,99875
105359,99880
105414,99876
105381,99874
105427,99870
105398,99881
105430,99880
105411,99878
105442,99861
105421,99873
105402,99880
105390,99871
105444,99896
105427,99867
105452,99876
105458,99879
105392,99844
105437,99864
105398,99852
105413,99827
105344,99830
105377,99842
105323,99832
105282,99853
105272,99773
105294,99807
105231,99777
105218,99768
105203,99780
105182,99761
105178,99731
105138,99745
105143,99736
105139,99738
105105,99730
105120,99680
105116,99736
105093,99718
105077,99717
105077,99712
105127,99684
105077,99698
105106,99689
105127,99713
105114,99735
105091,99679
105075,99698
105117,99708
105150,99720
105121,99755
105123,99696
105139,99734
105091,99704
105166,99705
105177,99722
105140,99715
105205,99751
105192,99735
105161,99732
105187,99746
105183,99687
105155,99753
105213,99759
105205,99761
105192,99705
105191,99725
105161,99729
105194,99705
105192,99754
105198,99718
105166,99719
105190,99742
105174,99719
105229,99725
105218,99746
105208,99743
105165,99693
105212,99698
105161,99733
105162,99725
105205,99741
105197,99716
105184,99717
105193,99709
105185,99709
105175,99747
105190,99699
105179,99713
105174,99739
105185,99703
105192,99754
105176,99712
105179,99700
105185,99703
105221,99716
105151,99727
105191,99717
105178,99701
105197,99750
105179,99700
105191,99732
105205,99701
105172,99725
105198,99737
105156,99706
105214,99728
105186,99696
105168,99700
105225,99717
105189,99691
105205,99736
105220,99690
105234,99711
105244,99733
105204,99737
105234,99687
105223,99726
105207,99718
105247,99726
105217,99734
105201,99675
105222,99711
105242,99721
105221,99685
105250,99727
105213,99725
105227,99732
105229,99720
105221,99711
105249,99700
105214,99728
105229,99727
105205,99739
105247,99707
105208,99690
105180,99737
105196,99702
105159,99670
105145,99699
105106,99632
105132,99653
105071,99608
105077,99637
105049,99612
105035,99625
104967,99556
104938,99600
104911,99572
104910,99549
104910,99579
104864,99513
104869,99556
104862,99514
104860,99547
104824,99520
104861,99498
104821,99508
104799,99511
104819,99486
104822,99506
104801,99506
104784,99516
104790,99467
104787,99513
104756,99478
104786,99494
104775,99500
104775,99428
104808,99495
104761,99471
104817,99488
104775,99504
104791,99438
104785,99514
104760,99479
104799,99493
104808,99466
104838,99462
104798,99495
104840,99464
104836,99505
104854,99470
104840,99490
104845,99480
104859,99497
104848,99441
104809,99470
104884,99502
104879,99467
104871,99469
104853,99507
104841,99479
104833,99456
104867,99492
104828,99485
104870,99471
104854,99457
104822,99488
104824,99451
104869,99455
104806,99478
104848,99437
104829,99483
104839,99430
104862,99480
104812,99425
104795,99441
104832,99470
104805,99456
104830,99478
104818,99446
104812,99435
104853,99468
104829,99424
104825,99464
104828,99496
104809,99429
104876,99473
104823,99487
104832,99465
104844,99443
104864,99464
104836,99466
104864,99487
104854,99453
104878,99427
104871,99487
104842,99436
104885,99495
104870,99471
104872,99456
104834,99451
104906,99471
104865,99480
104897,99457
104878,99514
104912,99500
104872,99481
104925,99479
104936,99520
104914,99472
104938,99491
104943,99492
104935,99491
104940,99520
104956,99499
104959,99494
104953,99520
104979,99517
104960,99474
104951,99528
104953,99513
104922,99488
104949,99479
104914,99499
104905,99479
104872,99465
104845,99411
104837,99441
104801,99426
104769,99409
104714,99390
104724,99379
104667,99333
104647,99359
104650,99364
104598,99351
104581,99281
104552,99331
104565,99311
104526,99257
104570,99297
104521,99275
104522,99306
104500,99267
104481,99288
104489,99245
104542,99296
104516,99257
104496,99274
104520,99242
104483,99256
104497,99288
104529,99289
104498,99266
104529,99286
104499,99276
104530,99279
104554,99264
104555,99304
104541,99293
104547,99301
104584,99313
104562,99294
104583,99314
104613,99301
104568,99279
104592,99285
104575,99303
104597,99271
104568,99294
104597,99322
104588,99323
104603,99271
104629,99316
104594,99279
104583,99304
104611,99316
104616,99299
104617,99314
104588,99280
104627,99279
104578,99336
104614,99326
104615,99323
104614,99271
104640,99312
104574,99279
104618,99291
104623,99293
104600,99295
104608,99288
104594,99313
104586,99305
104645,99297
104591,99319
104602,99298
104594,99266
104590,99293
104593,99304
104638,99314
104633,99295
104628,99285
104610,99312
104624,99295
104651,99300
104622,99334
104610,99266
104613,99305
104651,99294
104628,99303
104629,99274
104653,99324
104646,99318
104647,99315
104616,99295
104670,99297
104630,99338
104651,99341
104657,99295
104670,99342
104658,99312
104720,99355
104721,99362
104715,99318
104684,99352
104721,99361
104713,99351
104756,99367
104718,99344
104741,99395
104739,99369
104765,99361
104739,99358
104821,99380
104762,99381
104816,99365
104770,99410
104791,99399
104777,99390
104834,99387
104800,99402
104751,99356
104781,99375
104763,99384
104707,99346
104718,99335
104659,99347
104660,99323
104673,99310
104619,99312
104585,99310
104604,99316
104569,99289
104564,99261
104567,99303
104499,99255
104505,99286
104498,99256
104481,99216
104491,99244
104482,99274
104449,99239
104435,99258
104442,99215
104442,99241
104401,99215
104460,99245
104432,99217
104458,99218
104389,99259
104389,99200
104466,99239
104435,99212
104459,99223
104425,99206
104431,99226
104442,99207
104466,99231
104460,99224
104475,99228
104461,99217
104502,99255
104497,99240
104526,99228
104525,99263
104539,99257
104493,99225
104527,99240
104560,99252
104520,99267
104540,99218
104555,99263
104523,99237
104581,99236
104549,99272
104514,99233
104539,99270
104525,99230
104566,99226
104521,99277
104525,99249
104512,99224
104531,99251
104518,99247
104523,99217
104535,99271
104508,99197
104524,99244
104533,99260
104505,99209
104525,99251
104518,99182
104524,99218
104473,99245
104501,99214
104512,99231
104488,99200
104515,99214
104475,99241
104485,99199
104539,99237
104514,99239
104504,99243
104492,99238
104471,99208
104516,99238
104537,99224
104518,99220
104504,99224
104543,99214
104550,99255
104532,99202
104545,99248
104542,99231
104558,99248
104527,99254
104575,99252
104556,99241
104537,99258
104585,99248
104608,99277
104601,99230
104623,99275
104632,99307
104580,99283
104592,99310
104626,99293
104613,99297
104653,99287
104664,99303
104693,99293
104671,99282
104703,99329
104665,99303
104695,99313
104714,99323
104711,99309
104707,99339
104734,99305
104755,99367
104704,99376
104720,99332
104699,99357
104720,99349
104661,99343
104687,99287
104625,99324
104629,99297
104624,99281
104612,99282
104531,99295
104555,99255
104517,99254
104471,99271
104454,99214
104473,99238
104422,99186
104434,99200
104419,99183
104396,99206
104418,99183
104400,99182
104365,99188
104379,99194
104366,99146
104384,99174
104347,99155
104364,99171
104361,99192
104353,99133
104383,99188
104382,99161
104397,99190
104377,99191
104370,99180
104409,99183
104419,99181
104433,99195
104406,99215
104421,99178
104387,99211
104445,99189
104409,99198
104450,99200
104434,99208
104459,99188
104418,99175
104447,99179
104446,99166
104483,99189
104443,99238
104464,99199
104481,99214
104432,99187
104476,99173
104495,99218
104484,99186
104481,99233
104489,99212
104465,99222
104486,99186
104480,99201
104502,99191
104509,99223
104523,99204
104485,99247
104503,99209
104467,99209
104524,99226
104495,99241
104517,99225
104485,99204
104499,99218
104496,99238
104492,99244
104494,99206
104511,99228
104527,99247
104499,99212
104550,99241
104507,99250
104523,99245
104572,99239
104536,99236
104597,99259
104559,99278
104563,99255
104564,99259
104582,99291
104575,99262
104605,99308
104619,99279
104637,99282
104595,99309
104642,99279
104589,99258
104637,99299
104659,99298
104650,99289
104680,99294
104631,99327
104655,99319
104673,99316
104641,99313
104657,99299
104695,99338
104691,99298
104699,99322
104662,99328
104695,99304
104675,99343
104682,99339
104727,99346
104730,99345
104758,99367
104743,99326
104720,99343
104754,99345
104707,99376
104747,99340
104718,99367
104726,99354
104739,99351
104713,99359
104681,99293
104744,99358
104685,99313
104655,99289
104652,99302
104571,99263
104599,99272
104557,99264
104517,99241
104480,99229
104483,99212
104480,99239
104448,99206
104402,99195
104386,99177
104372,99183
104385,99184
104366,99151
104356,99187
104347,99159
104326,99168
104352,99173
104348,99144
104334,99149
104320,99138
104346,99169
104341,99164
104309,99158
104354,99152
104362,99172
104331,99136
104363,99166
104313,99143
104395,99164
104350,99162
104372,99180
104342,99156
104404,99179
104391,99191
104412,99184
104441,99185
104411,99210
104422,99212
104452,99202
104468,99226
104443,99212
104482,99211
104505,99209
104457,99215
104481,99222
104516,99253
104477,99192
104488,99216
104490,99233
104484,99214
104499,99254
104484,99194
104481,99214
104482,99225
104498,99215
104480,99240
104455,99193
104480,99214
104479,99208
104451,99199
104480,99226
104461,99181
104459,99194
104459,99239
104441,99216
104445,99213
104470,99162
104450,99183
104436,99224
104443,99181
104452,99192
104440,99181
104420,99183
104438,99212
104409,99170
104453,99197
104431,99206
104458,99204
104465,99234
104414,99154
104463,99203
104411,99192
104441,99197
104438,99193
104489,99218
104455,99241
104485,99179
104480,99181
104453,99243
104442,99214
104498,99232
104479,99198
104488,99201
104533,99261
104486,99231
104502,99259
104525,99201
104533,99254
104520,99257
104562,99234
104550,99279
104527,99257
104531,99245
104546,99277
104535,99249
104575,99288
104543,99245
104583,99291
104600,99269
104610,99318
104575,99309
104618,99304
104635,99321
104657,99309
104626,99304
104651,99314
104604,99287
104608,99298
104630,99273
104588,99320
104556,99251
104560,99283
104508,99275
104501,99217
104528,99237
104468,99233
104414,99190
104401,99188
104411,99227
104341,99194
104361,99166
104344,99183
104345,99189
104325,99185
104298,99140
104303,99159
104283,99124
104290,99140
104292,99129
104281,99124
104298,99164
104248,99122
104304,99161
104289,99154
104292,99142
104327,99136
104301,99189
104285,99142
104333,99172
104315,99170
104334,99137
104326,99204
104336,99167
104362,99165
104375,99182
104404,99191
104366,99220
104408,99206
104449,99212
104436,99265
104443,99201
104457,99249
104456,99250
104516,99270
104502,99258
104523,99245
104574,99282
104548,99271
104560,99246
104587,99294
104545,99294
104566,99285
104523,99293
104554,99271
104540,99279
104538,99228
104542,99282
104514,99262
104534,99268
104504,99264
104527,99222
104510,99259
104547,99248
104513,99245
104512,99248
104552,99254
104520,99241
104527,99260
104521,99251
104573,99271
104559,99247
104561,99237
104536,99270
104531,99249
104553,99236
104576,99301
104542,99231
104555,99264
104553,99225
104566,99303
104541,99256
104558,99285
104542,99260
104552,99286
104550,99241
104608,99271
104550,99261
104585,99258
104612,99262
104603,99262
104625,99308
104606,99262
104604,99306
104632,99285
104595,99297
104632,99298
104632,99268
104657,99305
104615,99297
104627,99290
104689,99283
104650,99342
104628,99306
104654,99353
104669,99303
104730,99307
104673,99330
104673,99305
104670,99347
104682,99331
104749,99357
104713,99311
104754,99344
104740,99353
104697,99348
104737,99323
104720,99349
104707,99325
104691,99308
104681,99330
104668,99280
104615,99294
104607,99269
104548,99257
104524,99246
104532,99244
104484,99206
104443,99215
104426,99210
104408,99158
104423,99176
104357,99163
104395,99178
104369,99148
104359,99183
104314,99104
104330,99151
104322,99128
104325,99168
104280,99119
104334,99129
104305,99118
104314,99121
104335,99138
104308,99123
104298,99153
104314,99113
104323,99127
104316,99134
104310,99143
104323,99094
104313,99117
104340,99114
104363,99153
104328,99125
104353,99098
104355,99160
104400,99154
104376,99142
104371,99158
104386,99148
104419,99135
104414,99165
104426,99174
104419,99195
104416,99136
104430,99175
104433,99143
104418,99189
104446,99194
104422,99152
104440,99197
104436,99187
104457,99221
104435,99213
104498,99187
104468,99206
104473,99212
104487,99191
104519,99227
104453,99211
104460,99204
104507,99222
104485,99183
104485,99237
104491,99223
104487,99217
104453,99195
104487,99243
104454,99224
104515,99226
104520,99240
104483,99246
104479,99229
104504,99246
104537,99258
104535,99244
104532,99259
104588,99252
104540,99290
104543,99223
104569,99271
104603,99261
104638,99299
104558,99297
104624,99255
104618,99280
104610,99300
104627,99289
104630,99309
104655,99288
104669,99300
104634,99300
104671,99312
104653,99304
104658,99345
104653,99307
104672,99297
104684,99329
104691,99349
104707,99339
104697,99334
104711,99322
104720,99358
104740,99348
104764,99367
104753,99373
104791,99395
104786,99392
104816,99390
104799,99376
104815,99380
104805,99389
104833,99385
104791,99362
104792,99367
104760,99361
104761,99396
104748,99350
104739,99346
104707,99323
104670,99340
104671,99310
104645,99323
104639,99298
104610,99304
104531,99287
104579,99235
104529,99251
104550,99271
104517,99278
104496,99220
104532,99263
104493,99243
104515,99265
104510,99237
104486,99267
104488,99255
104492,99239
104523,99254
104509,99233
104547,99290
104526,99242
104492,99261
104556,99265
104528,99241
104527,99258
104561,99293
104576,99299
104552,99301
104612,99292
104632,99297
104591,99333
104581,99294
104651,99328
104634,99278
104655,99322
104619,99350
104644,99304
104706,99350
104680,99346
104678,99340
104724,99373
104696,99334
104726,99352
104706,99383
104727,99393
104706,99344
104756,99364
104728,99383
104760,99370
104771,99390
104742,99354
104755,99366
104774,99385
104735,99411
104759,99371
104784,99408
104773,99359
104760,99389
104726,99398
104750,99361
104796,99395
104773,99379
104777,99381
104788,99392
104753,99404
104790,99401
104782,99379
104768,99415
104805,99391
104826,99426
104795,99399
104837,99430
104844,99418
104826,99416
104846,99443
104880,99454
104855,99460
104883,99453
104859,99431
104916,99454
104908,99463
104895,99470
104926,99488
104904,99510
104912,99488
104942,99505
104941,99498
104984,99524
104983,99518
105065,99553
105041,99577
105082,99568
105082,99584
105140,99613
105137,99642
105169,99656
105241,99668
105225,99698
105291,99704
105276,99717
105312,99720
105306,99727
105357,99729
105383,99791
105375,99755
105374,99768
105406,99765
105444,99778
105423,99756
105452,99780
105439,99795
105449,99791
105486,99789
105446,99792
105450,99779
105434,99803
105416,99760
105425,99783
105403,99745
105374,99763
105343,99702
105324,99762
105291,99724
105250,99740
105241,99734
105240,99671
105255,99698
105194,99712
105197,99703
105202,99670
105215,99691
105183,99702
105183,99655
105216,99689
105204,99665
105228,99677
105183,99642
105204,99678
105173,99679
105216,99678
105223,99673
105240,99709
105228,99700
105288,99708
105267,99750
105279,99715
105297,99708
105334,99771
105349,99727
105330,99763
105365,99800
105399,99776
105418,99797
105423,99820
105452,99795
105466,99856
105477,99811
105538,99882
105522,99849
105541,99880
105538,99884
105535,99864
105565,99891
105552,99860
105589,99872
105555,99870
105609,99884
105589,99921
105625,99880
105610,99923
105647,99891
105624,99906
105606,99911
105638,99913
105631,99902
105647,99936
105613,99910
105668,99893
105643,99941
105606,99913
105681,99919
105651,99952
105627,99917
105673,99916
105675,99940
105633,99905
105668,99937
105651,99918
105625,99926
105674,99941
105692,99957
105653,99933
105705,99938
105685,99943
105695,99948
105688,99927
105670,99912
105722,99959
105678,99895
105676,99942
105667,99938
105676,99941
105700,99929
105677,99903
105684,99912
105702,99931
105754,99921
105697,99927
105718,99945
105743,99975
105770,99927
105781,99979
105812,99938
105794,99977
105854,100022
105867,100016
105856,100014
105931,100034
105903,100065
105950,100030
105979,100084
105954,100064
106002,100096
