11111,11111
0,0
80897,80165
100987,98166
100961,98146
100947,98127
100879,98110
100940,98119
100967,98129
100953,98170
100944,98134
100912,98131
100953,98102
100998,98147
100961,98132
100932,98117
100872,98091
100932,98095
100970,98153
100919,98081
100934,98095
100889,98091
100894,98079
100940,98101
100870,98094
100854,98053
100841,98047
100861,98053
100877,98086
100882,98050
100840,98092
100783,97997
100864,98054
100912,98107
100860,98039
100854,98068
100820,98015
100854,98093
100867,98065
100887,98044
100856,98069
100831,98022
100864,98084
100909,98051
100898,98078
100879,98069
100870,98064
100881,98083
100910,98051
100899,98097
100894,98055
100914,98046
100957,98078
100919,98112
100933,98042
100959,98071
100935,98083
101002,98109
101013,98146
100989,98083
101015,98081
100954,98087
101042,98116
101072,98119
101032,98056
100988,98081
100927,98028
100914,98053
100841,98037
100755,97987
100655,97908
100499,97817
100478,97867
100367,97768
100268,97738
100173,97710
100080,97657
100050,97660
99987,97661
99933,97570
99826,97529
99763,97521
99765,97493
99675,97522
99627,97425
99616,97434
99502,97375
99506,97400
99510,97380
99503,97400
99390,97355
99355,97317
99393,97335
99368,97317
99371,97345
99299,97296
99284,97283
99298,97322
99315,97282
99299,97325
99301,97266
99241,97285
99315,97296
99358,97340
99316,97277
99318,97293
99281,97282
99326,97345
99376,97293
99376,97327
99342,97298
99304,97277
99353,97317
99422,97313
99360,97346
99307,97267
99319,97306
99363,97330
99364,97339
99371,97305
99336,97303
99300,97255
99385,97330
99370,97285
99394,97328
99374,97300
99466,97334
99547,97359
99515,97326
99846,97473
99881,97460
99812,97466
100246,97628
100221,97641
100251,97633
100196,97606
100271,97648
100332,97653
100367,97672
100390,97702
100341,97674
100316,97612
100354,97676
100401,97690
100400,97684
100374,97672
100375,97680
100411,97666
100442,97709
100428,97683
100433,97684
100356,97655
100418,97724
100449,97697
100485,97740
100470,97721
100446,97672
100448,97721
100498,97690
100528,97750
100486,97714
100470,97672
100518,97769
100528,97717
100571,97758
100570,97740
100508,97704
100569,97746
100619,97794
100627,97747
100633,97775
100573,97718
100637,97797
100682,97789
100720,97780
100687,97787
100625,97784
100709,97831
100742,97799
100766,97816
100721,97811
100737,97780
100763,97815
100827,97857
100836,97849
100810,97853
100737,97799
100805,97870
100847,97855
100782,97819
100767,97777
100639,97767
100632,97726
100532,97708
100438,97678
100323,97584
100190,97570
100129,97494
100051,97513
99986,97449
99830,97395
99751,97336
99689,97311
99651,97319
99612,97292
99501,97242
99413,97163
99427,97219
99362,97203
99321,97149
99287,97118
99203,97118
99204,97102
99255,97107
99176,97100
99121,97071
99061,97059
99119,97050
99154,97099
99102,97015
99089,97067
99011,97019
99031,97065
99067,97067
99035,97008
99049,97022
99010,97045
99035,97021
99041,96992
99069,97056
99050,97011
99005,96984
99088,97053
99092,97060
99073,97024
99081,97023
99033,97049
99072,97056
99159,97055
99137,97070
99112,97060
99087,97056
99138,97095
99127,97070
99156,97087
99138,97051
99073,97030
99188,97100
99196,97082
99140,97104
99138,97034
99142,97044
99212,97101
99224,97136
99233,97073
99264,97100
99206,97108
99303,97121
99350,97175
99347,97134
99383,97153
99307,97139
99420,97176
99448,97194
99434,97211
99439,97184
99439,97155
99520,97238
99506,97230
99549,97237
99538,97232
99572,97227
99632,97297
99691,97292
99706,97272
99712,97283
99693,97292
99768,97297
99814,97365
99798,97308
99817,97329
99792,97326
99827,97379
99866,97358
99829,97358
99848,97329
99794,97371
99849,97367
99914,97366
99883,97400
99856,97332
99886,97414
99923,97385
99935,97391
99940,97406
99971,97387
99941,97379
100031,97430
100042,97426
100041,97425
100046,97409
100014,97428
100121,97473
100162,97513
100124,97465
100138,97473
100152,97492
100259,97522
100232,97540
100276,97529
100212,97515
100258,97508
100322,97574
100355,97588
100379,97551
100348,97576
100346,97537
100422,97595
100483,97599
100454,97574
100453,97624
100437,97598
100558,97640
100573,97646
100554,97634
100510,97631
100556,97621
100571,97631
100644,97705
100618,97653
100578,97672
100617,97661
100661,97693
100658,97698
100701,97699
100631,97658
100678,97683
100711,97707
100791,97744
100736,97689
100760,97689
100723,97729
100779,97750
100857,97751
100820,97772
100786,97706
100822,97782
100871,97762
100874,97788
100880,97780
100834,97725
100867,97801
100901,97801
100957,97821
100924,97761
100898,97758
100919,97783
100931,97800
101006,97807
100961,97799
100930,97774
100960,97807
101023,97842
101056,97808
101047,97850
101024,97826
101043,97841
101122,97831
101128,97882
101127,97844
101138,97883
101153,97893
101174,97887
101222,97880
101166,97887
101195,97880
101182,97879
101247,97904
101259,97927
101287,97947
101275,97878
101273,97930
101353,97916
101379,97945
101374,97932
101350,97938
101420,97942
101465,98017
101476,97969
101489,97959
101415,97994
101486,97966
101552,98034
101520,98003
101585,98040
101478,98019
101554,98020
101575,98042
101606,98064
101615,98060
101545,98030
101591,98049
101691,98083
101668,98121
101682,98075
101667,98052
101689,98067
101756,98108
101765,98104
101763,98129
101723,98042
101797,98162
101837,98120
101829,98155
101855,98142
101876,98105
101895,98204
101916,98169
101985,98203
101973,98191
101909,98155
101947,98210
101984,98198
102024,98212
101976,98186
101902,98136
101847,98153
101840,98103
101730,98089
101588,97984
101409,97919
101294,97878
101120,97843
100955,97741
100786,97651
100605,97579
100515,97542
100444,97550
100335,97478
100211,97434
100115,97346
100092,97378
100076,97352
100042,97349
99950,97322
99867,97241
99850,97280
99843,97245
99798,97262
99768,97208
99662,97192
99745,97209
99756,97193
99713,97223
99706,97186
99632,97163
99678,97216
99730,97197
99721,97235
99739,97167
99683,97206
99775,97214
99775,97235
99800,97219
99822,97247
99743,97219
99837,97239
99880,97280
99856,97259
99896,97248
99833,97270
99906,97284
99968,97324
99947,97323
99907,97293
99908,97284
99989,97288
100005,97362
99998,97293
100015,97330
99926,97276
100009,97310
100021,97367
100025,97289
100025,97332
99982,97317
100019,97322
100103,97365
100067,97320
100090,97353
100031,97307
100108,97322
100124,97389
100159,97409
100145,97335
100153,97395
100204,97387
100227,97411
100235,97409
100230,97408
100193,97396
100241,97415
100266,97420
100266,97427
100246,97408
100204,97390
100270,97408
100282,97428
100278,97433
100233,97428
100201,97375
100252,97435
100285,97425
100240,97416
100231,97405
100202,97401
100258,97386
100265,97430
100258,97401
100218,97396
100199,97398
100236,97399
100288,97406
100227,97405
100249,97394
100200,97385
100275,97395
100277,97415
100322,97441
100253,97397
100253,97375
100349,97445
100341,97465
100357,97428
100330,97437
100316,97440
100385,97465
100423,97430
100404,97487
100407,97452
100386,97471
100460,97494
100514,97482
100483,97518
100510,97495
100464,97455
100567,97539
100539,97530
100573,97569
100534,97518
100547,97500
100622,97516
100626,97585
100651,97533
100629,97545
100601,97535
100730,97569
100685,97555
100708,97604
100726,97577
100707,97568
100806,97640
100831,97619
100815,97598
100789,97605
100767,97602
100898,97644
100905,97689
100872,97643
100899,97629
100886,97670
100887,97679
100973,97647
100926,97665
100913,97633
100938,97662
100952,97713
100991,97682
100992,97728
100973,97683
100985,97690
101013,97708
101106,97736
101051,97684
101038,97702
101045,97713
101114,97745
101142,97721
101116,97738
101118,97744
101095,97707
101153,97775
101202,97770
101178,97737
101104,97750
101102,97728
101205,97784
101184,97769
101158,97797
101156,97738
101157,97764
101196,97760
101258,97778
101203,97807
101179,97743
101190,97773
101267,97794
101248,97810
101267,97785
101208,97797
101226,97780
101296,97804
101284,97815
101333,97802
101265,97810
101275,97802
101346,97849
101375,97829
101373,97798
101360,97812
101343,97806
101456,97850
101473,97864
101472,97867
101437,97856
101441,97878
101536,97888
101540,97911
101560,97885
101553,97890
101513,97859
101580,97929
101606,97933
101587,97891
101600,97888
101562,97927
101628,97925
101660,97939
101579,97905
101529,97844
101479,97838
101452,97854
101372,97830
101191,97749
101041,97621
100895,97649
100786,97604
100714,97532
100562,97472
100426,97386
100291,97356
100307,97347
100217,97340
100131,97266
99988,97191
99971,97219
99993,97192
99961,97201
99921,97164
99782,97109
99818,97129
99793,97155
99781,97107
99766,97119
99691,97039
99715,97079
99736,97080
99749,97131
99724,97056
99703,97075
99709,97054
99759,97104
99723,97109
99751,97115
99703,97063
99793,97126
99833,97138
99852,97107
99853,97130
99812,97142
99884,97153
99915,97194
99932,97161
99914,97183
99930,97185
99989,97190
100007,97229
100021,97194
99987,97218
99979,97202
100006,97194
100075,97228
100054,97229
100089,97238
100027,97194
100080,97244
100091,97260
100128,97236
100101,97268
100080,97196
100127,97280
100146,97290
100221,97305
100192,97271
100168,97274
100247,97312
100249,97303
100309,97341
100297,97341
100294,97295
100340,97379
100355,97372
100390,97376
100385,97377
100345,97332
100350,97373
100415,97364
100392,97394
100416,97378
100292,97360
100343,97358
100422,97395
100391,97338
100393,97381
100307,97312
100368,97362
100373,97381
100373,97344
100377,97354
100260,97323
100292,97335
100348,97359
100328,97333
100308,97351
100218,97263
100289,97351
100299,97337
100283,97332
100299,97335
100185,97290
100297,97333
100296,97352
100254,97319
100246,97307
100233,97288
100258,97354
100277,97322
100300,97351
100296,97341
100249,97303
100274,97361
100354,97381
100349,97345
100314,97363
100241,97322
100351,97358
100341,97388
100349,97350
100346,97357
100297,97298
100358,97352
100426,97394
100377,97354
100398,97348
100353,97393
100435,97396
100502,97417
100457,97429
100475,97373
100474,97388
100505,97420
100556,97455
100618,97456
100575,97427
100581,97417
100591,97454
100674,97475
100671,97503
100677,97475
100665,97460
100716,97522
100769,97498
100743,97546
100766,97505
100728,97505
100786,97557
100826,97553
100867,97548
100805,97537
100784,97518
100840,97574
100917,97605
100902,97551
100879,97571
100820,97511
100929,97597
100936,97593
100952,97574
100918,97579
100816,97576
100894,97566
100948,97603
100952,97626
100925,97573
100862,97513
100953,97594
100933,97625
100903,97572
100919,97582
100890,97571
100938,97624
100948,97570
100957,97632
100928,97562
100921,97550
100978,97596
100979,97640
101007,97599
100968,97622
100916,97571
100997,97625
101053,97640
101024,97628
101021,97610
100968,97589
101057,97650
101091,97653
101070,97647
101085,97585
100993,97650
101085,97619
101126,97677
101142,97677
101102,97640
101077,97634
101169,97661
101190,97713
101170,97687
101192,97677
101159,97696
101186,97709
101286,97706
101223,97710
101207,97694
101200,97690
101316,97720
101303,97774
101290,97727
101303,97721
101213,97695
101221,97725
101265,97709
101135,97651
101009,97596
100892,97514
100840,97536
100711,97474
100596,97443
100418,97330
100322,97331
100264,97271
100261,97261
100127,97174
100016,97148
99931,97123
99961,97111
99884,97125
99826,97067
99724,97038
99655,96968
99713,97023
99634,97020
99617,96975
99561,96936
99493,96930
99527,96947
99579,96931
99519,96966
99435,96884
99432,96919
99502,96920
99516,96945
99535,96929
99466,96939
99435,96889
99555,96946
99531,96944
99570,96928
99537,96949
99500,96911
99624,96999
99640,96977
99610,96958
99564,96955
99590,96955
99652,96993
99670,97000
99648,96984
99636,96965
99609,96978
99692,97014
99715,97021
99713,97024
99703,96992
99651,97001
99728,97039
99747,97017
99731,97049
99715,96997
99689,97019
99775,97033
99777,97048
99768,97046
99712,97012
99755,97054
99817,97068
99866,97101
99851,97088
99847,97049
99877,97082
99920,97137
99929,97112
99946,97139
99927,97067
99897,97132
99976,97127
100039,97142
99967,97150
99935,97082
99955,97129
99950,97148
100006,97159
99962,97124
99968,97136
99974,97097
100011,97153
100013,97140
100005,97128
99909,97131
99937,97092
99977,97136
100002,97125
99961,97148
99875,97081
99946,97131
99976,97115
99958,97107
99914,97118
99886,97083
99902,97108
99907,97127
99914,97142
99906,97094
99907,97082
99876,97084
99959,97118
99972,97114
99950,97097
99929,97119
99955,97097
99989,97140
99976,97146
100006,97133
99925,97097
99987,97126
100016,97159
100042,97168
100007,97142
100002,97131
100040,97134
100087,97162
100086,97188
100087,97180
100036,97162
100105,97160
100125,97186
100167,97195
100149,97184
100094,97179
100152,97205
100197,97225
100212,97213
100229,97217
100151,97194
100211,97227
100274,97260
100279,97246
100262,97241
100268,97248
100271,97238
100338,97323
100363,97299
100343,97264
100315,97242
100358,97303
100399,97329
100462,97290
100440,97353
100422,97282
100418,97335
100487,97353
100518,97335
100479,97363
100423,97264
100502,97367
100519,97353
100484,97328
100509,97334
100432,97339
100491,97357
100506,97366
100508,97373
100504,97313
100502,97348
100525,97330
100561,97375
100543,97345
100536,97351
100483,97355
100589,97379
100602,97393
100624,97377
100585,97401
100533,97326
100591,97405
100667,97421
100593,97385
100654,97395
100585,97343
100602,97404
100684,97454
100652,97392
100666,97420
100575,97397
100678,97419
100695,97440
100708,97439
100705,97409
100657,97422
100721,97425
100728,97476
100747,97472
100702,97442
100704,97431
100754,97432
100832,97475
100788,97453
100798,97479
100730,97400
100793,97481
100862,97486
100826,97490
100855,97472
100806,97441
100852,97498
100914,97519
100927,97490
100942,97509
100878,97489
100961,97536
101015,97568
101015,97542
101044,97567
100965,97520
101068,97604
101117,97601
101149,97621
101095,97604
101097,97571
101157,97600
101165,97619
101183,97633
101158,97627
101143,97595
101185,97591
101154,97597
101088,97564
100974,97510
100817,97450
100775,97429
100711,97415
100520,97334
100413,97267
100257,97182
100206,97168
100104,97152
100026,97107
99905,97055
99805,96993
99778,97003
99746,96973
99657,96958
99577,96866
99480,96873
99487,96859
99504,96878
99406,96837
99361,96773
99276,96778
99322,96807
99351,96795
99311,96793
99291,96745
99198,96770
99280,96799
99316,96775
99264,96774
99229,96725
99264,96754
99300,96771
99313,96774
99332,96809
99287,96768
99243,96790
99296,96800
99381,96801
99337,96841
99316,96776
99318,96813
99386,96825
99433,96845
99403,96818
99433,96841
99367,96778
99439,96856
99421,96862
99451,96837
99423,96802
99387,96854
99450,96844
99512,96905
99465,96843
99478,96837
99445,96840
99497,96904
99502,96862
99512,96891
99499,96866
99492,96830
99586,96921
99575,96916
99620,96919
99592,96883
99598,96923
99647,96951
99715,96939
99662,96988
99649,96912
99658,96934
99726,96953
99725,96976
99736,96984
99684,96949
99673,96946
99707,96953
99746,96974
99697,96942
99713,96952
99655,96959
99715,96948
99731,96968
99737,96962
99649,96930
99642,96906
99743,96949
99696,96987
99678,96920
99653,96918
99652,96930
99662,96944
99699,96914
99645,96946
99650,96916
99630,96923
99693,96934
99697,96953
99670,96940
99653,96895
99624,96940
99683,96959
99745,96953
99717,96988
99653,96916
99735,96970
99731,96977
99791,96996
99758,96954
99758,96984
99713,96927
99798,96987
99808,96989
99823,97002
99781,96957
99735,96966
99842,96962
99861,97039
99838,97011
99844,97006
99849,97006
99916,97044
99927,97039
99922,97056
99916,96993
99910,97056
99971,97073
100031,97112
99984,97064
99978,97028
99986,97090
100021,97092
100068,97117
100060,97075
100093,97102
100060,97064
100134,97126
100169,97116
100111,97116
100161,97091
100122,97122
100210,97142
100225,97132
100226,97158
100208,97146
100180,97158
100293,97202
100308,97154
100312,97190
100250,97156
100299,97211
100332,97227
100368,97197
100361,97208
100316,97186
100374,97222
100377,97248
100447,97231
100405,97265
100373,97189
100434,97241
100495,97263
100491,97267
100522,97250
100452,97286
100518,97256
100554,97322
100595,97312
100570,97310
100579,97290
100615,97296
100708,97333
100708,97357
100751,97363
100680,97371
100746,97375
100822,97408
100833,97384
100826,97386
100790,97383
100876,97422
100890,97475
100920,97416
100895,97470
100900,97403
100896,97449
101009,97499
100987,97448
101028,97473
100943,97450
101009,97471
101103,97530
101123,97513
101077,97533
101042,97467
101090,97532
101142,97543
101156,97515
101113,97534
101078,97525
101133,97522
101185,97567
101210,97545
101196,97560
101129,97508
101210,97586
101219,97582
101280,97586
101221,97582
101220,97538
101246,97603
101334,97604
101275,97634
101315,97596
101248,97559
101339,97638
101410,97605
101367,97626
101389,97610
101359,97626
101402,97630
101467,97686
101484,97652
101483,97656
101452,97633
101494,97679
101557,97707
101525,97696
101579,97677
101476,97665
101557,97686
101625,97756
101627,97746
101593,97712
101557,97684
101548,97709
101589,97695
101496,97669
101430,97632
101284,97563
101175,97528
101070,97449
100890,97428
100760,97308
100533,97245
100423,97208
100320,97161
100171,97127
100058,97019
99961,96989
99927,96958
99887,96960
99789,96920
99726,96851
99640,96844
99602,96836
99625,96852
99539,96829
99485,96785
99447,96763
99411,96729
99477,96766
99443,96730
99429,96727
99303,96720
99419,96748
99441,96792
99421,96740
99373,96730
99381,96711
99416,96747
99452,96774
99452,96771
99456,96773
99394,96750
99485,96794
99491,96772
99532,96819
99496,96780
99465,96755
99548,96812
99571,96848
99585,96808
99599,96841
99520,96777
99627,96857
99642,96847
99620,96856
99632,96809
99582,96837
99678,96868
99693,96906
99695,96841
99658,96842
99624,96806
99686,96861
99731,96904
99676,96855
99682,96866
99667,96850
99690,96877
99772,96889
99749,96908
99761,96868
99733,96874
99829,96939
99853,96947
99888,96938
99835,96956
99817,96931
99903,96937
99914,96968
99911,96962
99894,96937
99871,96928
99919,96962
99917,96966
99935,96966
99892,96936
99813,96925
99891,96933
99901,96944
99882,96967
99868,96927
99780,96887
99862,96930
99897,96943
99868,96942
99800,96891
99788,96903
99837,96918
99849,96919
99833,96904
99801,96875
99752,96874
99797,96915
99829,96928
99803,96894
99822,96897
99772,96925
99836,96924
99884,96933
99814,96909
99865,96909
99782,96915
99852,96950
99926,96953
99889,96921
99873,96943
99849,96912
99921,96997
99971,96991
99969,96960
99938,96957
99973,96928
100014,97001
100013,97013
100033,97026
100016,96975
100009,96970
100078,97038
100121,97000
100085,97051
100107,97028
100097,97000
100172,97069
100205,97056
100242,97085
100203,97053
100218,97061
100294,97088
100276,97100
100333,97137
100319,97118
100278,97073
100395,97127
100414,97164
100373,97139
100393,97102
100356,97141
100414,97169
100468,97197
100472,97149
100476,97169
100427,97142
100518,97191
100529,97221
100542,97220
100545,97180
100508,97186
100587,97207
100636,97242
100600,97215
100596,97209
100625,97230
100652,97254
100710,97265
100684,97257
100687,97229
100677,97252
100741,97264
100765,97282
100770,97322
100678,97259
100735,97265
100771,97272
100812,97310
100769,97278
100735,97299
100779,97248
100809,97339
100835,97323
100828,97294
100779,97282
100765,97299
100847,97305
100868,97356
100867,97314
100809,97303
100835,97320
100849,97313
100872,97351
100857,97293
100850,97325
100814,97325
100878,97342
100899,97305
100886,97335
100833,97282
100870,97341
100906,97363
100967,97352
100910,97365
100893,97304
100915,97374
100977,97373
101001,97378
101014,97360
100965,97385
100978,97342
101057,97399
101041,97374
101031,97378
101008,97342
100969,97355
101040,97404
101090,97405
101062,97383
101019,97383
101037,97379
101121,97457
101099,97385
101096,97444
101064,97382
101083,97423
101166,97431
101114,97468
101146,97404
101122,97446
101123,97453
101181,97440
101155,97465
101110,97433
101057,97358
100996,97393
100967,97317
100884,97334
100712,97206
100552,97170
100384,97087
100347,97090
100188,97032
100042,96959
99895,96871
99825,96871
99791,96851
99733,96780
99611,96752
99500,96728
99478,96684
99497,96707
99406,96632
99360,96655
99283,96583
99180,96624
99229,96561
99231,96614
99184,96529
99111,96546
99151,96532
99126,96558
99124,96566
99099,96510
99066,96544
99085,96488
99114,96522
99088,96542
99107,96543
99085,96508
99098,96554
99144,96555
99152,96539
99155,96542
99131,96541
99140,96543
99232,96582
99206,96591
99192,96564
99200,96542
99241,96613
99250,96599
99292,96637
99287,96587
99221,96591
99264,96627
99354,96628
99303,96652
99299,96600
99265,96607
99280,96597
99347,96653
99340,96621
99337,96634
99310,96581
99331,96666
99391,96664
99351,96654
99385,96650
99356,96602
99439,96696
99440,96688
99492,96706
99457,96695
99425,96659
99464,96744
99466,96685
99491,96704
99482,96682
99400,96679
99456,96672
99500,96727
99438,96674
99469,96720
99375,96655
99439,96678
99490,96707
99409,96700
99423,96639
99391,96661
99437,96663
99430,96655
99451,96675
99415,96689
99339,96589
99376,96659
99442,96663
99354,96656
99378,96634
99322,96647
99399,96638
99412,96664
99358,96682
99358,96632
99345,96622
99338,96660
99416,96625
99422,96640
99388,96653
99310,96647
99412,96640
99447,96663
99448,96671
99432,96655
99415,96662
99462,96701
99508,96691
99495,96731
99522,96674
99498,96693
99569,96741
99625,96743
99580,96703
99624,96719
99556,96747
99646,96745
99682,96797
99684,96782
99715,96753
99626,96777
99744,96784
99779,96847
99767,96775
99797,96794
99764,96800
99795,96842
99836,96838
99822,96846
99849,96827
99829,96830
99867,96879
99918,96873
99897,96899
99943,96867
99893,96824
99948,96907
99978,96921
99998,96917
99964,96915
99968,96899
100000,96934
100069,96940
100071,96914
100056,96924
99995,96875
100093,96957
100091,96967
100103,96971
100072,96929
100054,96965
100105,96942
100179,97020
100170,96951
100142,96967
100104,96965
100154,96988
100214,96984
100199,96972
100201,96982
100148,96949
100255,97003
100208,97038
100248,96984
100209,96974
100204,96988
100254,97023
100264,97000
100284,97039
100225,97002
100192,97007
100269,97034
100355,97058
100289,97013
100302,97017
100253,97005
100319,97033
100361,97062
100345,97034
100330,97038
100332,97066
100358,97044
100396,97084
100383,97034
100344,97031
100290,97017
100394,97027
100438,97108
100422,97044
100403,97046
100356,97051
100461,97064
100478,97112
100470,97068
100477,97051
100449,97101
100498,97133
100561,97100
100516,97144
100517,97081
100535,97109
100598,97126
100631,97180
100610,97133
100612,97101
100578,97133
100682,97191
100714,97184
100725,97212
100715,97173
100684,97182
100804,97183
100858,97233
100832,97192
100790,97217
100798,97252
100849,97227
100946,97276
100868,97256
100871,97240
100855,97267
100905,97264
100950,97254
100876,97281
100817,97237
100771,97216
100746,97214
100706,97144
100569,97079
100383,97017
100237,96945
100169,96925
100054,96862
99938,96826
99735,96773
99635,96685
99602,96668
99519,96671
99444,96614
99299,96526
99256,96543
99206,96512
99194,96481
99122,96447
99024,96424
98986,96402
98994,96417
98969,96353
98929,96383
98822,96336
98830,96353
98809,96340
98856,96332
98804,96302
98753,96299
98747,96299
98782,96297
98795,96353
98766,96284
98777,96307
98772,96278
98805,96334
98802,96339
98806,96313
98775,96332
98754,96286
98801,96353
98850,96359
98828,96327
98781,96304
98787,96336
98852,96362
98860,96380
98860,96344
98827,96324
98808,96349
98877,96377
98884,96368
98901,96359
98827,96327
98859,96364
98919,96379
98886,96367
98869,96372
98839,96317
98823,96351
98883,96373
98901,96376
98886,96373
98843,96340
98872,96355
98951,96406
98956,96392
98901,96399
98905,96388
98900,96383
98965,96401
98996,96453
98949,96397
98902,96348
98910,96368
98968,96404
98991,96459
98962,96406
98883,96356
98900,96372
98923,96422
98938,96384
98904,96365
98846,96378
98889,96360
98940,96388
98872,96333
98895,96355
98790,96300
98842,96340
98870,96371
98861,96322
98861,96353
98786,96320
98776,96346
98836,96314
98842,96359
98814,96354
98755,96288
98782,96357
98838,96342
98831,96327
98838,96329
98755,96311
98816,96337
98826,96310
98840,96378
98800,96336
98807,96332
98810,96342
98852,96320
98877,96399
98879,96362
98851,96323
98858,96406
98903,96359
98950,96417
98927,96372
98852,96360
98926,96366
99025,96437
98978,96372
98974,96395
98985,96373
99009,96420
99062,96449
99065,96442
99036,96451
99001,96419
99082,96437
99123,96453
99091,96430
99112,96454
99085,96424
99141,96503
99180,96484
99211,96487
99199,96506
99139,96454
99236,96523
99223,96524
99273,96528
99258,96523
99219,96516
99277,96496
99348,96560
99308,96522
99335,96553
99305,96519
99303,96579
99396,96577
99376,96547
99402,96576
99335,96549
99370,96590
99428,96595
99433,96614
99425,96580
99431,96592
99471,96579
99476,96665
99487,96631
99470,96624
99443,96572
99517,96657
99560,96643
99539,96606
99538,96640
99503,96620
99542,96677
99571,96627
99577,96658
99579,96637
99471,96625
99554,96628
99641,96685
99590,96612
99593,96637
99542,96676
99595,96654
99609,96681
99612,96637
99634,96690
99545,96624
99627,96676
99688,96699
99636,96654
99680,96679
99595,96669
99679,96703
99699,96708
99712,96680
99710,96693
99650,96693
99767,96695
99742,96735
99756,96730
99727,96703
99733,96690
99790,96752
99791,96712
99830,96745
99777,96730
99759,96726
99835,96765
99857,96789
99847,96722
99870,96745
99791,96768
99873,96778
99932,96762
99873,96776
99876,96746
99879,96773
99911,96824
100019,96830
99970,96789
99971,96802
99902,96794
100009,96859
100042,96833
100074,96816
100011,96867
100023,96791
100077,96893
100127,96888
100140,96917
100121,96854
100122,96856
100169,96903
100239,96931
100203,96917
100208,96909
100190,96872
100257,96912
100278,96965
100295,96913
100240,96913
100159,96874
100190,96863
100125,96880
100011,96769
99871,96757
99692,96677
99617,96646
99560,96609
99364,96528
99304,96470
99115,96435
99131,96428
99067,96391
98980,96340
98877,96275
98768,96262
98766,96235
98735,96259
98677,96202
98586,96157
98513,96162
98543,96136
98554,96154
98480,96124
98419,96093
98345,96056
98419,96103
98395,96086
98399,96093
98359,96042
98311,96054
98352,96053
98408,96122
98380,96060
98348,96093
98293,96082
98374,96073
98409,96100
98419,96100
98364,96058
98326,96085
98429,96084
98461,96131
98451,96131
98423,96105
98438,96099
98492,96166
98514,96160
98519,96150
98453,96132
98444,96145
98491,96143
98569,96201
98537,96159
98496,96141
98510,96171
98509,96176
98566,96166
98520,96172
98513,96170
98494,96134
98539,96150
98595,96219
98545,96204
98541,96135
98511,96179
98552,96197
98598,96202
98610,96184
98642,96212
98571,96178
98652,96235
98695,96261
98721,96213
98650,96231
98641,96194
98718,96282
98737,96269
98717,96233
98642,96212
98650,96237
98692,96219
98715,96286
98681,96242
98659,96225
98633,96206
98688,96256
98694,96207
98640,96221
98614,96202
98592,96188
98640,96188
98637,96233
98642,96179
98586,96192
98567,96212
98633,96186
98657,96217
98584,96195
98577,96141
98545,96200
98607,96219
98644,96215
98601,96184
98603,96145
98566,96211
98644,96186
98647,96244
98636,96211
98629,96191
98661,96213
98713,96266
98759,96244
98751,96213
98706,96234
98740,96253
98783,96295
98821,96254
98821,96312
98790,96248
98817,96304
98879,96315
98920,96306
98899,96351
98871,96285
98898,96315
98945,96344
98962,96378
98971,96337
98965,96343
98962,96339
99041,96409
99050,96378
99063,96423
99026,96333
99040,96421
99099,96414
99139,96432
99123,96413
99116,96403
99100,96441
99210,96452
99200,96476
99208,96436
99132,96454
99212,96470
99227,96482
99260,96456
99270,96493
99198,96495
99253,96480
99295,96527
99314,96545
99282,96504
99299,96516
99278,96505
99373,96537
99404,96521
99389,96564
99336,96500
99362,96543
99428,96548
99485,96569
99457,96580
99427,96530
99440,96563
99501,96553
99527,96606
99485,96559
99463,96555
99471,96583
99569,96583
99522,96601
99518,96601
99473,96541
99525,96620
99535,96633
99583,96603
99536,96595
99509,96585
99535,96600
99607,96650
99599,96605
99584,96651
99543,96579
99598,96638
99664,96671
99677,96652
99638,96624
99605,96623
99614,96640
99671,96666
99642,96689
99649,96619
99652,96646
99652,96632
99733,96706
99724,96650
99723,96686
99647,96670
99697,96650
99774,96713
99762,96674
99759,96705
99719,96671
99749,96670
99821,96693
99795,96688
99809,96726
99730,96675
99802,96732
99841,96724
99887,96760
99836,96730
99805,96703
99877,96741
99890,96772
99921,96752
99895,96760
99861,96717
99921,96774
99971,96825
99977,96761
100004,96777
99933,96733
99986,96821
100031,96803
100009,96819
100027,96820
100006,96774
100062,96855
100078,96835
100106,96857
100116,96839
100069,96840
100111,96868
100216,96869
100151,96897
100200,96872
100144,96839
100184,96886
100196,96872
100122,96835
100044,96813
99908,96726
99838,96735
99754,96684
99606,96624
99486,96566
99270,96447
99244,96461
99189,96429
99070,96388
98965,96323
98850,96268
98823,96255
98790,96258
98708,96213
98636,96173
98516,96142
98494,96125
98530,96129
98462,96098
98427,96088
98293,96013
98361,96047
98316,96046
98324,96031
98285,96009
98190,96012
98241,96046
98285,96039
98232,96009
98209,95991
98192,95967
98260,96021
98250,96000
98253,96035
98211,95988
98228,96001
98231,96007
98313,96040
98242,96060
98241,95978
98189,96027
98222,96040
98286,96034
98281,96046
98294,96023
98192,96004
98280,96033
98276,96059
98239,96042
98286,96008
98191,96023
98278,96055
98285,96072
98280,96007
98256,96056
98236,96035
98301,96052
98328,96056
98295,96056
98264,96054
98237,96007
98352,96065
98315,96075
98353,96069
98308,96068
98324,96039
98401,96106
98390,96106
98443,96118
98386,96078
98345,96091
98419,96111
98458,96151
98430,96084
98401,96094
98372,96097
98385,96107
98460,96112
98455,96119
98412,96078
98332,96051
98444,96097
98420,96161
98432,96068
98390,96111
98332,96078
98395,96105
98460,96099
98388,96118
98380,96050
98369,96075
98415,96112
98413,96120
98359,96061
98347,96057
98327,96060
98370,96109
98386,96093
98379,96103
98343,96035
98314,96064
98390,96067
98402,96104
98376,96092
98397,96083
98380,96093
98435,96128
98446,96093
98460,96095
98450,96105
98440,96094
98524,96158
98537,96127
98527,96161
98499,96112
98519,96151
98611,96169
98587,96215
98616,96176
98602,96192
98594,96193
98644,96211
98701,96221
98655,96220
98650,96232
98641,96163
98715,96223
98778,96275
98751,96231
98698,96224
98745,96244
98800,96283
98822,96281
98833,96269
98794,96265
98805,96255
98889,96328
98906,96296
98862,96297
98886,96292
98874,96302
98950,96355
98996,96317
98960,96366
98948,96352
98915,96339
99005,96359
98998,96392
98989,96346
98998,96349
98999,96343
99053,96381
99080,96427
99079,96364
99049,96386
99022,96354
99130,96416
99128,96411
99116,96429
99093,96360
99083,96440
99170,96406
99171,96426
99149,96425
99150,96447
99141,96389
99230,96455
99231,96452
99212,96445
99221,96464
99197,96450
99249,96449
99259,96512
99269,96445
99251,96469
99238,96443
99294,96499
99310,96495
99295,96465
99271,96474
99275,96465
99335,96507
99340,96527
99336,96476
99307,96515
99297,96468
99389,96530
99374,96547
99358,96496
99371,96513
99345,96488
99419,96538
99416,96529
99389,96529
99387,96512
99415,96520
99438,96576
99462,96527
99469,96540
99441,96553
99445,96535
99494,96577
99509,96622
99484,96562
99490,96540
99479,96566
99598,96617
99588,96630
99558,96615
99563,96578
99560,96591
99628,96609
99657,96627
99655,96625
99594,96650
99671,96636
99682,96652
99752,96670
99707,96711
99691,96607
99712,96663
99783,96671
99795,96710
99799,96699
99739,96647
99822,96722
99813,96731
99839,96692
99829,96708
99705,96654
99732,96685
99680,96650
99623,96600
99482,96538
99298,96448
99252,96443
99149,96436
99078,96366
98933,96314
98827,96237
98752,96218
98723,96209
98647,96174
98529,96138
98451,96065
98398,96074
98345,96046
98335,96029
98223,95996
98178,95924
98102,95970
98134,95940
98113,95903
98083,95902
97968,95891
97994,95855
98063,95922
97999,95874
97977,95857
97923,95815
97958,95878
97953,95918
97995,95873
97934,95845
97883,95850
97950,95878
97984,95852
97964,95899
97966,95846
97930,95856
97978,95872
97979,95899
98006,95885
98007,95898
97927,95852
97988,95920
98043,95905
98019,95917
98022,95916
98012,95853
98016,95944
98064,95908
98095,95932
98043,95919
98010,95854
98080,95943
98055,95931
98062,95937
98083,95931
97977,95931
98048,95900
98147,95976
98111,95925
98148,95958
98073,95931
98169,95976
98178,96008
98164,95964
98206,95991
98148,95983
98199,96017
98235,96016
98231,96027
98209,95984
98173,95983
98221,96008
98247,96038
98232,95984
98255,95995
98127,95967
98206,96006
98219,96010
98213,96027
98191,95987
98090,95933
98215,95970
98181,96021
98169,95997
98142,95965
98092,95938
98157,95960
98168,95934
98169,95984
98153,95938
98056,95932
98101,95944
98181,95987
98159,95941
98139,95973
98054,95888
98154,95935
98169,95976
98136,95938
98172,95974
98062,95903
98135,95945
98192,95999
98173,95973
98191,95961
98108,95980
98220,95972
98246,96036
98257,96020
98236,95984
98202,95999
98250,96017
98297,96025
98290,96026
98323,96052
98249,95981
98333,96030
98369,96069
98324,96060
98390,96046
98308,96018
98388,96058
98400,96109
98402,96067
98454,96098
98391,96034
98459,96108
98502,96124
98498,96136
98480,96095
98490,96126
98506,96151
98589,96151
98579,96131
98587,96178
98561,96106
98619,96186
98658,96173
98644,96200
98634,96200
98577,96133
98723,96211
98696,96230
98704,96204
98704,96222
98678,96170
98746,96263
98783,96243
98790,96247
98783,96227
98693,96217
98792,96253
98821,96291
98868,96259
98807,96302
98761,96260
98859,96286
98900,96291
98855,96305
98833,96225
98818,96287
98889,96316
98952,96310
98885,96290
98902,96282
98867,96321
98898,96306
98956,96310
98938,96296
98890,96281
98884,96324
98929,96325
99020,96340
98978,96319
98944,96292
98960,96306
98970,96343
99015,96349
99003,96316
98969,96336
98997,96320
99028,96358
99073,96391
99053,96337
99047,96366
98993,96360
99069,96384
99105,96390
99067,96394
99068,96343
99075,96401
99129,96374
99149,96444
99152,96431
99127,96390
99094,96429
99155,96414
99227,96435
99206,96412
99192,96404
99169,96410
99237,96468
99283,96463
99251,96447
99222,96432
99215,96436
99271,96476
99285,96487
99286,96472
99284,96427
99224,96428
99327,96499
99354,96483
99335,96498
99316,96474
99324,96470
99370,96499
99390,96509
99384,96503
99391,96507
99386,96513
99434,96548
99482,96551
99459,96541
99460,96532
99450,96518
99540,96581
99584,96612
99542,96579
99501,96576
99517,96552
99645,96614
99628,96598
99659,96602
99575,96566
99583,96585
99706,96647
99698,96639
99686,96639
99651,96626
99646,96604
99667,96637
99655,96639
99571,96565
99486,96531
99354,96486
99326,96457
99197,96417
99033,96360
98929,96237
98791,96257
98761,96187
98712,96148
98578,96127
98437,96054
98376,96056
98352,96017
98278,96023
98203,95935
98113,95946
98087,95902
98049,95891
98021,95865
97941,95871
97893,95785
97845,95779
97857,95795
97833,95834
97792,95747
97761,95710
97717,95763
97804,95762
97789,95802
97746,95745
97690,95743
97696,95727
97761,95766
97761,95778
97729,95751
97749,95732
97707,95754
97742,95762
97791,95799
97728,95776
97742,95718
97730,95743
97814,95778
97795,95793
97796,95786
97728,95731
97736,95792
97823,95789
97807,95788
97808,95787
97726,95753
97759,95794
97789,95808
97784,95766
97795,95786
97697,95720
97725,95769
97783,95776
97746,95777
97766,95765
97680,95765
97712,95782
97814,95809
97809,95785
97817,95814
97714,95752
97796,95809
97862,95831
97866,95810
97876,95807
97789,95823
97853,95798
97860,95856
97876,95851
97840,95812
97810,95817
97805,95805
97884,95823
97841,95821
97835,95808
97754,95778
97820,95795
97833,95835
97835,95792
97823,95822
97749,95772
97758,95795
97795,95779
97800,95821
97764,95769
97723,95769
97774,95769
97794,95781
97798,95783
97763,95784
97695,95716
97733,95768
97727,95757
97792,95791
97746,95778
97718,95760
97725,95766
97770,95765
97758,95800
97743,95775
97726,95758
97725,95791
97770,95767
97786,95822
97771,95788
97709,95725
97781,95762
97804,95841
97827,95783
97820,95815
97747,95759
97829,95818
97894,95832
97849,95833
97849,95800
97839,95830
97880,95859
97898,95845
97958,95880
97913,95857
97932,95839
97976,95876
97991,95887
98032,95909
98000,95897
97993,95892
98027,95914
98134,95949
98123,95903
98100,95941
98073,95938
98091,95939
98183,95943
98169,95990
98170,95961
98149,95936
98196,95987
98248,96007
98248,96011
98254,96004
98233,95999
98280,96016
98321,96050
98348,96018
98310,96079
98282,96010
98338,96058
98352,96097
98338,96026
98398,96072
98296,96027
98389,96066
98432,96081
98379,96068
98380,96102
98361,96057
98404,96065
98476,96083
98447,96071
98466,96082
98374,96074
98442,96093
98527,96116
98515,96123
98483,96118
98476,96109
98514,96167
98546,96120
98559,96149
98557,96112
98496,96130
98570,96153
98567,96145
98579,96170
98548,96130
98543,96140
98581,96164
98623,96179
98640,96149
98646,96189
98585,96127
98644,96166
98718,96213
98708,96189
98676,96211
98665,96166
98703,96232
98758,96237
98757,96207
98753,96256
98679,96208
98776,96252
98765,96220
98800,96228
98774,96229
98733,96222
98749,96226
98803,96267
98762,96233
98787,96250
98718,96208
98785,96269
98815,96232
98804,96274
98777,96223
98724,96246
98774,96252
98881,96311
98826,96251
98843,96239
98777,96228
98841,96277
98946,96304
98918,96284
98919,96279
98832,96256
98933,96293
98976,96331
98993,96325
98948,96292
98908,96294
99016,96323
99026,96385
99018,96318
99027,96323
98963,96286
99073,96345
99062,96398
99076,96368
99082,96364
99033,96355
99122,96366
99128,96425
99140,96375
99149,96405
99099,96405
99166,96390
99160,96391
99157,96389
99137,96347
99010,96334
99003,96303
98916,96320
98787,96235
98711,96172
98536,96090
98509,96106
98451,96043
98339,95980
98198,95941
98081,95874
98120,95885
98022,95889
97940,95830
97861,95765
97734,95727
97772,95759
97697,95694
97659,95702
97600,95660
97510,95634
97522,95640
97503,95610
97445,95610
97391,95546
97318,95553
97381,95578
97341,95588
97336,95525
97332,95571
97280,95515
97311,95548
97340,95567
97271,95547
97303,95501
97227,95546
97295,95558
97293,95572
97305,95557
97297,95541
97240,95499
97338,95586
97283,95532
97305,95572
97258,95544
97216,95543
97262,95577
97342,95588
97287,95547
97223,95502
97254,95518
97272,95581
97321,95546
97256,95570
97217,95504
97194,95549
97217,95551
97269,95560
97257,95522
97173,95551
97211,95528
97225,95533
97291,95573
97235,95541
97256,95540
97208,95510
97275,95559
97281,95570
97294,95583
97278,95524
97282,95603
97334,95587
97356,95584
97327,95576
97255,95535
97289,95564
97298,95594
97372,95571
97316,95593
97272,95555
97305,95543
97327,95609
97373,95573
97319,95617
97285,95547
97280,95580
97364,95587
97336,95591
97344,95571
97259,95595
97280,95571
97303,95575
97366,95581
97292,95606
97295,95526
97234,95569
97320,95581
97335,95567
97316,95584
97268,95576
97291,95578
97341,95604
97382,95595
97342,95626
97314,95550
97317,95574
97407,95632
97377,95606
97410,95616
97353,95565
97376,95608
97440,95666
97494,95658
97441,95673
97415,95603
97461,95661
97501,95677
97504,95629
97527,95673
97481,95645
97538,95683
97587,95687
97613,95715
97596,95720
97609,95712
97568,95724
97673,95710
97672,95748
97674,95754
97642,95733
97687,95740
97762,95803
97781,95796
97748,95779
97743,95736
97745,95801
97795,95797
97831,95826
97826,95800
97772,95786
97808,95830
97896,95839
97894,95842
97925,95833
97852,95829
97923,95860
97995,95890
97958,95876
97974,95887
97923,95849
97991,95915
98031,95922
98055,95915
98058,95911
97962,95881
98050,95893
98075,95933
98111,95945
98088,95943
98050,95910
98094,95939
98150,95960
98176,95972
98133,95947
98105,95936
98145,95948
98215,96000
98215,95988
98197,95989
98179,95981
98201,95996
98225,96014
98265,96020
98249,95999
98201,95968
98263,96034
98263,96006
98303,96033
98274,96013
98222,95994
98285,96042
98334,96028
98302,96055
98352,96043
98317,96005
98329,96094
98401,96050
98401,96054
98421,96074
98347,96084
98386,96057
98479,96133
98487,96087
98452,96099
98417,96083
98445,96104
98481,96140
98530,96141
98504,96124
98448,96088
98530,96120
98552,96176
98565,96143
98520,96115
98507,96145
98526,96118
98605,96153
98595,96120
98624,96168
98582,96141
98617,96189
98686,96223
98674,96173
98652,96178
98623,96163
98654,96189
98746,96202
98751,96186
98721,96222
98686,96188
98741,96255
98827,96239
98818,96230
98808,96261
98748,96220
98863,96301
98910,96312
98876,96251
98900,96307
98876,96258
98913,96336
98945,96309
98952,96311
98967,96322
98888,96326
98945,96314
99035,96380
99009,96325
98966,96306
98868,96271
98862,96283
98835,96236
98708,96180
98601,96155
98443,96090
98382,96048
98315,96036
98218,95976
98091,95903
97993,95864
97929,95866
97924,95826
97827,95791
97708,95728
97644,95696
97604,95727
97590,95659
97564,95664
97500,95639
97363,95589
97434,95620
97367,95583
97329,95565
97300,95531
97233,95526
97273,95531
97248,95572
97230,95508
97268,95522
97152,95477
97208,95532
97200,95504
97178,95515
97148,95484
97121,95453
97189,95550
97198,95530
97208,95516
97177,95504
97138,95510
97182,95534
97265,95531
97221,95522
97199,95516
97151,95489
97210,95557
97252,95519
97199,95560
97200,95531
97124,95491
97192,95556
97235,95536
97146,95514
97168,95518
97128,95499
97158,95525
97165,95517
97171,95538
97130,95479
97084,95531
97177,95527
97146,95498
97129,95531
97157,95520
97100,95489
97172,95526
97191,95554
97185,95539
97188,95520
97092,95477
97212,95547
97214,95563
97173,95525
97157,95517
97091,95516
97168,95521
97178,95578
97169,95503
97098,95494
97086,95478
97116,95517
97189,95573
97146,95517
97114,95493
97077,95506
97132,95506
97122,95526
97104,95485
97141,95526
97058,95443
97105,95491
97105,95517
97106,95471
97095,95513
97065,95455
97104,95513
97126,95510
97089,95507
97084,95471
97050,95478
97080,95502
97121,95504
97096,95481
97089,95464
97065,95509
97070,95499
97131,95552
97156,95519
97120,95509
97091,95477
97160,95517
97199,95558
97180,95530
97144,95520
97132,95511
97216,95554
97237,95605
97223,95554
97253,95540
97188,95542
97246,95582
97310,95563
97281,95597
97262,95556
97275,95583
97303,95618
97365,95632
97345,95615
97338,95589
97321,95634
97362,95608
97442,95661
97446,95642
97367,95624
97419,95652
97512,95681
97497,95683
97498,95690
97459,95659
97448,95705
97532,95667
97564,95722
97569,95686
97537,95706
97532,95714
97602,95712
97618,95760
97621,95744
97589,95741
97584,95741
97649,95755
97715,95752
97686,95761
97646,95752
97640,95738
97693,95784
97736,95796
97723,95784
97702,95759
97721,95794
97800,95816
97782,95814
97798,95804
97790,95818
97783,95806
97826,95820
97863,95850
97856,95825
97834,95847
97832,95820
97865,95833
97920,95877
97872,95861
97867,95857
97866,95861
97947,95883
97965,95870
97939,95911
97924,95842
97934,95869
97995,95912
98006,95905
97989,95918
97959,95867
97993,95893
98012,95946
98072,95937
98016,95922
98001,95882
98038,95902
98064,95964
98099,95953
98087,95949
98040,95945
98057,95931
98154,95984
98121,95945
98128,95978
98091,95909
98139,95964
98141,96008
98218,96016
98158,95981
98170,95964
98151,96005
98244,95982
98221,95983
98269,96015
98188,95983
98218,96021
98287,96006
98288,96046
98315,96034
98269,96014
98286,96066
98353,96043
98345,96051
98360,96054
98329,96048
98356,96100
98395,96059
98411,96095
98427,96080
98342,96061
98395,96108
98478,96103
98462,96080
98467,96126
98407,96084
98504,96112
98526,96169
98546,96166
98534,96152
98540,96148
98546,96170
98654,96211
98655,96169
98649,96193
98594,96166
98678,96189
98722,96261
98755,96234
98696,96237
98681,96218
98675,96222
98708,96208
98676,96214
98587,96138
98436,96068
98377,96081
98289,95997
98190,95980
98092,95931
97944,95858
97867,95845
97850,95778
97726,95747
97636,95699
97498,95640
97479,95669
97438,95614
97355,95615
97276,95533
97185,95507
97171,95495
97131,95510
97113,95447
97086,95457
96917,95379
96964,95432
96981,95402
96938,95368
96937,95386
96794,95319
96842,95364
96846,95347
96833,95389
96819,95358
96744,95279
96798,95351
96767,95344
96801,95356
96762,95317
96728,95294
96732,95319
96782,95392
96752,95330
96790,95330
96686,95285
96754,95345
96810,95387
96756,95351
96745,95331
96694,95342
96734,95349
96792,95385
96764,95341
96768,95364
96692,95280
96722,95326
96773,95374
96764,95312
96738,95367
96688,95283
96768,95369
96766,95381
96755,95360
96721,95331
96687,95302
96757,95327
96804,95392
96812,95351
96801,95386
96751,95322
96817,95402
96869,95377
96850,95414
96844,95379
96812,95351
96910,95413
96896,95435
96900,95412
96863,95402
96818,95385
96907,95407
96912,95406
96928,95445
96894,95438
96858,95395
96913,95397
96938,95450
96894,95429
96902,95406
96808,95392
96908,95408
96949,95429
96935,95436
96905,95423
96834,95392
96920,95418
96944,95423
96902,95396
96883,95405
96829,95382
96912,95427
96946,95439
96915,95405
96917,95429
96870,95420
96950,95438
96952,95452
96953,95437
96945,95436
96901,95416
96986,95436
96986,95456
96986,95451
96961,95422
96964,95443
97031,95452
97009,95499
97065,95483
97052,95458
97026,95480
97053,95504
97090,95517
97096,95512
97105,95488
97059,95467
97162,95558
97194,95524
97191,95529
97167,95531
97189,95535
97213,95597
97279,95581
97272,95573
97286,95575
97228,95580
97256,95572
97367,95647
97304,95606
97334,95615
97284,95575
97349,95622
97400,95640
97404,95640
97379,95652
97350,95606
97426,95641
97467,95660
97465,95679
97457,95690
97411,95664
97484,95704
97512,95703
97506,95708
97499,95675
97479,95686
97549,95717
97604,95723
97602,95735
97561,95723
97533,95704
97615,95746
97677,95774
97647,95754
97619,95741
97628,95755
97698,95780
97723,95766
97706,95772
97721,95777
97683,95772
97726,95808
97786,95826
97727,95801
97730,95782
97710,95787
97776,95832
97820,95837
97803,95843
97805,95804
97755,95808
97834,95841
97871,95865
97829,95833
97850,95821
97829,95812
97889,95859
97935,95882
97909,95888
97895,95855
97892,95874
97955,95894
97980,95915
97954,95913
97973,95888
97957,95867
97997,95907
98029,95922
98009,95943
98011,95884
97980,95895
98069,95969
98099,95940
98080,95963
98043,95908
98071,95947
98092,95962
98134,95999
98118,95956
98169,95965
98145,95971
98197,96012
98219,96031
98212,96003
98197,96001
98175,95980
98242,95997
98314,96067
98277,96037
98245,96010
98204,95992
98327,96055
98340,96069
98311,96078
98277,96028
98335,96054
98344,96091
98428,96098
98410,96096
98376,96048
98415,96094
98441,96122
98494,96155
98432,96112
98473,96102
98454,96146
98532,96138
98532,96157
98547,96167
98496,96142
98516,96143
98574,96177
98628,96194
98558,96204
98552,96150
98561,96164
98594,96178
98623,96190
98615,96220
98600,96151
98638,96167
98633,96213
98705,96229
98697,96215
98656,96225
98670,96232
98729,96228
98784,96293
98748,96257
98734,96217
98773,96271
98815,96264
98850,96308
98831,96286
98811,96247
98807,96253
98843,96315
98874,96310
98825,96276
98723,96196
98652,96197
98615,96179
98546,96123
98403,96073
98250,95985
98126,95946
98076,95929
98003,95892
97892,95829
97745,95756
97664,95731
97603,95723
97565,95688
97470,95617
97352,95578
97291,95582
97288,95575
97254,95548
97172,95493
97119,95453
97007,95457
97057,95457
97035,95424
96979,95434
96904,95371
96864,95396
96909,95414
96917,95398
96844,95372
96789,95326
96792,95333
96843,95361
96868,95366
96837,95388
96803,95349
96779,95359
96833,95379
96813,95361
96831,95375
96767,95346
96781,95367
96827,95393
96813,95373
96808,95373
96749,95338
96806,95378
96850,95384
96838,95400
96830,95374
96774,95348
96788,95371
96853,95392
96847,95376
96811,95387
96777,95354
96805,95384
96819,95384
96824,95387
96790,95373
96770,95333
96769,95374
96857,95384
96833,95384
96827,95399
96770,95348
96816,95382
96856,95406
96895,95406
96875,95389
96836,95378
96874,95414
96941,95435
96937,95416
96939,95448
96891,95405
96902,95426
96953,95432
96920,95422
96941,95419
96907,95410
96935,95428
96949,95448
96943,95433
96948,95429
96912,95410
96906,95416
96979,95440
96970,95443
96914,95430
96917,95416
96922,95426
96957,95452
96961,95424
96948,95418
96895,95401
96914,95419
96962,95437
96942,95450
96938,95440
96901,95405
96918,95440
96959,95439
96969,95440
96936,95413
96905,95411
96970,95451
96992,95455
96993,95454
96995,95449
96942,95417
97009,95451
97047,95493
97048,95474
97016,95479
96976,95447
97026,95488
97096,95490
97083,95498
97104,95512
97044,95473
97122,95496
97166,95510
97145,95532
97154,95487
97087,95524
97177,95554
97194,95543
97178,95556
97236,95544
97159,95482
97253,95589
97283,95618
97275,95575
97280,95577
97268,95591
97334,95600
97371,95619
97392,95648
97355,95602
97356,95619
97382,95647
97473,95691
97429,95691
97456,95649
97388,95609
97510,95705
97521,95699
97544,95690
97507,95666
97512,95692
97560,95709
97577,95705
97644,95732
97570,95752
97567,95719
97612,95720
97676,95771
97671,95770
97661,95720
97617,95754
97708,95761
97702,95780
97749,95808
97730,95802
97696,95785
97759,95798
97772,95816
97824,95806
97787,95813
97755,95772
97832,95834
97887,95827
97859,95849
97876,95857
97828,95790
97895,95872
97939,95864
97930,95901
97885,95825
97891,95861
97929,95902
97932,95890
97987,95889
97936,95906
97897,95889
97980,95895
98001,95893
98022,95913
97983,95869
97971,95891
98066,95942
98089,95935
98094,95959
98080,95918
98018,95922
98140,95984
98174,95988
98187,95991
98135,95940
98119,95928
98184,96009
98228,96034
98219,96011
98236,95988
98159,95992
98255,96040
98325,96035
98297,96065
98281,96042
98250,96032
98353,96067
98357,96069
98368,96069
98352,96071
98333,96049
98397,96095
98444,96115
98451,96101
98430,96104
98415,96084
98488,96142
98549,96136
98501,96140
98518,96142
98476,96134
98568,96190
98600,96164
98605,96188
98589,96159
98574,96147
98632,96193
98682,96232
98663,96194
98659,96186
98650,96200
98714,96221
98705,96230
98730,96231
98681,96171
98681,96208
98766,96231
98783,96270
98751,96246
98734,96238
98721,96212
98816,96271
98855,96262
98837,96273
98790,96255
98799,96266
98887,96303
98899,96309
98891,96307
98883,96311
98904,96312
98927,96319
98996,96343
98966,96332
98976,96353
98990,96332
99024,96372
99071,96393
99069,96368
99051,96351
99046,96368
99131,96418
99156,96404
99078,96375
99023,96332
98947,96295
98952,96295
98844,96242
98712,96183
98547,96114
98380,96052
98344,96037
98237,95971
98120,95910
97975,95856
97851,95804
97830,95815
97770,95764
97683,95724
97585,95652
97487,95637
97472,95654
97451,95600
97362,95590
97299,95546
97200,95506
97239,95527
97204,95536
97145,95492
97096,95467
97029,95442
97085,95461
97078,95459
97021,95423
96967,95413
96981,95416
97005,95399
97028,95442
97014,95418
96975,95402
96952,95394
96992,95442
97043,95423
96988,95432
96974,95399
96968,95407
97050,95475
97074,95455
97045,95436
97017,95424
96997,95443
97054,95459
97077,95473
97078,95476
97036,95442
97017,95451
97084,95467
97060,95481
97077,95469
97046,95452
97039,95444
97077,95493
97084,95481
97052,95463
97021,95457
97031,95424
97085,95475
97094,95486
97050,95470
97012,95428
97034,95466
97095,95513
97121,95494
97090,95506
97098,95461
97095,95487
97165,95515
97190,95517
97150,95524
97135,95491
97123,95510
97204,95513
97198,95520
97193,95544
97169,95494
97151,95507
97211,95531
97194,95526
97212,95525
97138,95504
97192,95515
97234,95534
97181,95536
97198,95521
97146,95486
97172,95526
97213,95537
97233,95530
97216,95518
97126,95483
97175,95512
97204,95529
97223,95547
97224,95519
97142,95481
97208,95518
97222,95525
97211,95544
97228,95519
97198,95507
97224,95535
97252,95549
97270,95561
97257,95526
97222,95555
97282,95567
97294,95572
97330,95595
97321,95574
97296,95562
97354,95587
97393,95604
97408,95618
97394,95594
97368,95611
97443,95613
97480,95666
97499,95654
97486,95653
97458,95623
97505,95644
97590,95694
97592,95703
97585,95695
97533,95670
97595,95716
97644,95713
97671,95724
97672,95735
97642,95710
97649,95743
97732,95762
97733,95757
97746,95787
97714,95740
97758,95758
97803,95808
97799,95777
97816,95798
97781,95761
97812,95801
97895,95836
97897,95816
97874,95827
97841,95808
97910,95839
97948,95864
97974,95847
97968,95856
97924,95828
97981,95883
98018,95883
98071,95878
98034,95904
98004,95850
98057,95932
98086,95947
98081,95912
98107,95924
98038,95850
98117,95930
98174,95961
98163,95917
98179,95978
98133,95928
98174,95949
98201,95970
98231,95954
98245,95945
98166,95930
98239,95984
98293,96008
98257,96018
98275,95985
98240,95953
98278,96000
98310,96044
98323,95999
98368,96049
98286,95978
98348,96034
98388,96064
98337,96019
98380,96062
98316,96000
98365,96034
98394,96083
98387,96023
98424,96056
98358,96011
98413,96063
98463,96088
98461,96080
98438,96042
98395,96062
98480,96081
98516,96117
98534,96125
98500,96071
98459,96070
98584,96130
98616,96123
98580,96141
98566,96118
98521,96113
98586,96156
98657,96135
98656,96172
98616,96130
98596,96158
98649,96153
98712,96214
98684,96187
98722,96175
98667,96160
98736,96195
98749,96251
98741,96167
98770,96248
98745,96208
98807,96243
98826,96220
98820,96196
98862,96265
98804,96233
98856,96251
98901,96280
98896,96270
98937,96277
98874,96236
98921,96303
98973,96302
98975,96319
98966,96294
98928,96280
99034,96293
99055,96367
99075,96339
99050,96333
99067,96338
99113,96359
99171,96424
99155,96371
99198,96381
99118,96375
99205,96413
99156,96389
99077,96365
99021,96254
98852,96220
98768,96170
98700,96173
98528,96070
98381,96017
98227,95957
98216,95942
98095,95891
98014,95853
97924,95768
97811,95729
97757,95764
97754,95702
97680,95703
97567,95638
97471,95624
97513,95629
97475,95575
97460,95585
97351,95527
97280,95514
97303,95512
97305,95542
97260,95508
97217,95466
97157,95473
97200,95456
97211,95486
97202,95485
97195,95491
97103,95435
97198,95462
97228,95487
97178,95480
97179,95441
97140,95469
97196,95505
97260,95543
97225,95525
97182,95448
97195,95500
97220,95529
97249,95553
97244,95513
97252,95498
97216,95501
97242,95504
97294,95555
97252,95546
97258,95477
97239,95496
97262,95559
97277,95519
97245,95495
97187,95468
97193,95471
97233,95522
97273,95570
97216,95498
97233,95527
97206,95516
97279,95528
97315,95549
97266,95523
97291,95540
97262,95527
97294,95555
97368,95551
97337,95563
97315,95510
97294,95554
97356,95575
97346,95576
97341,95584
97277,95538
97297,95549
97307,95541
97301,95565
97311,95553
97305,95544
97247,95516
97271,95560
97290,95562
97288,95534
97246,95486
97211,95515
97257,95549
97291,95544
97280,95506
97195,95487
97230,95509
97232,95561
97248,95533
97269,95520
97227,95518
97211,95511
97258,95514
97264,95511
97223,95500
97193,95459
97230,95515
97226,95507
97254,95513
97277,95513
97226,95514
97198,95495
97288,95551
97311,95526
97266,95523
97284,95530
97272,95504
97325,95574
97379,95587
97351,95545
97333,95572
97308,95551
97382,95601
97433,95612
97395,95582
97358,95555
97375,95589
97457,95601
97489,95632
97449,95640
97462,95600
97455,95610
97513,95608
97577,95661
97498,95606
97500,95642
97520,95631
97616,95656
97616,95694
97566,95648
97561,95625
97585,95654
97650,95717
97639,95693
97685,95713
97626,95659
97669,95700
97774,95756
97718,95746
97738,95730
97706,95674
97763,95759
97768,95771
97829,95788
97822,95759
97766,95749
97830,95752
97868,95796
97885,95778
97898,95803
97852,95756
97919,95825
97929,95815
97938,95819
97980,95834
97871,95802
97922,95796
97974,95859
97989,95859
97960,95832
97954,95820
97951,95832
98042,95894
98037,95874
98017,95843
97956,95849
97979,95852
98081,95883
98067,95893
98037,95885
98020,95836
98085,95887
98120,95897
98122,95912
98083,95902
98085,95860
98132,95915
98160,95901
98178,95910
98125,95924
98110,95873
98181,95942
98216,95925
98207,95932
98215,95933
98147,95925
98223,95927
98236,96000
98225,95967
98293,95953
98213,95949
98268,95964
98314,95993
98297,95985
98316,95977
98265,95948
98324,95993
98331,95975
98358,95993
98324,96030
98273,95948
98358,96006
98432,96022
98444,96018
98412,96009
98391,96017
98383,96031
98457,96059
98463,96038
98442,96067
98391,95994
98512,96073
98522,96058
98526,96093
98519,96100
98460,96038
98543,96088
98579,96129
98557,96095
98600,96088
98537,96099
98582,96078
98661,96175
98632,96130
98650,96126
98629,96117
98655,96104
98734,96210
98718,96145
98716,96169
98695,96135
98777,96193
98784,96222
98799,96210
98768,96192
98754,96189
98827,96201
98854,96233
98841,96209
98801,96206
98739,96150
98701,96156
98692,96146
98588,96097
98472,96061
98296,95941
98278,95953
98180,95913
98056,95841
97969,95798
97784,95721
97782,95717
97696,95695
97626,95644
97510,95594
97394,95516
97398,95577
97393,95497
97271,95505
97223,95441
97120,95404
97095,95413
97097,95424
97017,95370
96983,95360
96907,95285
96921,95309
96918,95340
96912,95304
96830,95311
96781,95239
96832,95289
96834,95269
96823,95298
96781,95271
96716,95241
96801,95217
96782,95298
96790,95272
96778,95248
96690,95228
96789,95292
96811,95253
96772,95277
96775,95236
96731,95226
96774,95306
96819,95283
96793,95292
96760,95268
96740,95214
96764,95289
96783,95276
96755,95248
96745,95283
96645,95224
96744,95269
96759,95277
96737,95251
96691,95271
96644,95217
96749,95261
96729,95245
96711,95249
96698,95214
96690,95227
96696,95298
96760,95279
96720,95250
96764,95248
96728,95272
96759,95260
96810,95312
96778,95272
96749,95279
96715,95269
96822,95278
96806,95269
96775,95294
96778,95267
96722,95252
96811,95292
96831,95283
96772,95270
96789,95267
96680,95234
96779,95246
96773,95266
96769,95263
96738,95270
96737,95211
96742,95291
96774,95284
96755,95251
96711,95241
96668,95224
96749,95270
96779,95279
96756,95275
96723,95223
96710,95256
96746,95227
96751,95273
96757,95272
96725,95241
96689,95265
96755,95229
96765,95283
96782,95263
96750,95245
96736,95267
96801,95265
96812,95292
96792,95301
96794,95290
96748,95259
96846,95281
96817,95280
96861,95304
96831,95260
96834,95306
96861,95292
96858,95331
96909,95354
96865,95296
96852,95300
96910,95358
96957,95376
96931,95351
96894,95337
96936,95343
96980,95328
96992,95384
97011,95399
96975,95342
96982,95347
97005,95379
97045,95411
97063,95402
97012,95371
97051,95374
97094,95418
97127,95409
97103,95415
97114,95435
97069,95411
97154,95458
97166,95454
97176,95436
97149,95414
97158,95461
97218,95427
97234,95493
97235,95484
97192,95457
97161,95448
97252,95499
97292,95490
97224,95496
97248,95460
97241,95495
97295,95494
97310,95522
97257,95526
97267,95507
97267,95492
97310,95485
97349,95522
97298,95506
97283,95540
97266,95498
97380,95525
97376,95537
97337,95545
97318,95495
97367,95526
97390,95574
97423,95558
97431,95584
97373,95534
97371,95527
97462,95614
97475,95588
97421,95576
97457,95581
97389,95591
97495,95582
97538,95600
97499,95607
97486,95577
97534,95624
97561,95596
97577,95638
97559,95625
97558,95617
97530,95629
97631,95666
97622,95669
97640,95649
97610,95635
97629,95673
97623,95694
97676,95676
97681,95668
97649,95647
97666,95674
97728,95694
97750,95714
97734,95688
97671,95685
97717,95697
97767,95704
97795,95732
97772,95700
97756,95718
97783,95728
97831,95713
97876,95778
97809,95765
97834,95704
97810,95743
97865,95781
97898,95751
97896,95794
97832,95736
97877,95780
97935,95778
97912,95799
97927,95811
97905,95757
97941,95815
98013,95853
98014,95840
97983,95793
97986,95825
97953,95856
98040,95853
98065,95873
98034,95859
98008,95795
98051,95866
98072,95844
98119,95852
98112,95889
98051,95822
98112,95887
98126,95870
98193,95883
98151,95890
98113,95903
98121,95872
98202,95960
98209,95935
98220,95925
98159,95901
98238,95963
98267,95933
98297,95960
98261,95928
98219,95899
98205,95929
98212,95888
98183,95891
98042,95831
97933,95774
97843,95777
97791,95710
97696,95667
97573,95595
97457,95575
97350,95483
97322,95511
97236,95472
97147,95422
96993,95324
96972,95316
96920,95285
96904,95302
96763,95236
96693,95190
96655,95204
96637,95156
96603,95141
96481,95133
96422,95058
96434,95097
96433,95060
96373,95071
96293,95053
96246,94956
96288,95040
96288,95004
96252,95022
96232,95019
96132,94958
96195,94970
96208,94987
96166,94989
96141,94984
96110,94926
96153,95020
96185,94988
96185,95011
96133,94992
96106,94991
96122,94949
96122,94997
96165,94998
96158,94983
96058,94945
96105,94951
96103,94989
96139,94992
96081,94967
96036,94942
96076,94953
96107,95002
96108,94962
96047,94991
96016,94896
96071,94982
96124,94953
96080,94955
96055,94992
96024,94892
96111,94993
96116,94985
96131,94976
96116,94994
96088,94969
96165,94996
96155,94987
96199,95026
96163,95053
96084,94946
96184,94999
96202,95020
96192,95014
96192,95023
96104,94962
96218,95012
96184,95005
96187,95030
96199,95008
96096,94980
96118,95041
96220,95031
96141,95010
96173,94966
96118,94985
96157,94967
96173,95023
96177,95001
96146,95001
96077,94948
96115,95021
96186,94999
96157,94986
96130,95021
96047,94956
96143,94978
96159,94998
96168,94986
96142,94967
96114,94987
96114,94972
96169,95022
96193,95025
96197,94996
96127,95014
96187,94987
96235,95056
96244,95040
96219,94998
96202,95001
