11111,11111
0,0
82456,82479
137003,110705
142329,110696
142321,110686
142353,110707
142256,110693
142272,110664
142312,110650
142358,110652
142285,110637
142307,110658
142281,110697
142307,110630
142347,110670
142327,110654
142283,110641
142265,110682
142347,110605
142350,110628
142299,110651
142259,110610
142301,110621
142303,110625
142313,110608
142288,110581
142229,110577
142277,110593
142308,110593
142281,110603
142267,110544
142217,110568
142267,110568
142263,110560
142266,110566
142217,110606
142162,110537
142187,110553
142278,110570
142233,110593
142216,110532
142169,110560
142149,110533
142206,110523
142234,110503
142182,110552
142111,110524
142148,110500
142197,110528
142183,110511
142168,110490
142103,110509
142149,110484
142207,110513
142172,110511
142153,110488
142123,110460
142117,110464
142195,110491
142136,110516
142131,110447
142079,110480
142169,110459
142136,110507
142150,110471
142167,110471
142113,110510
142177,110465
142177,110478
142204,110443
142135,110509
142106,110471
142194,110488
142211,110460
142206,110504
142145,110469
142148,110463
142137,110480
142181,110457
142223,110469
142190,110502
142143,110490
142182,110447
142234,110480
142214,110502
142161,110448
142157,110452
142175,110488
142226,110450
142236,110453
142194,110459
142158,110454
142231,110479
142256,110455
142200,110482
142201,110450
142189,110446
142210,110494
142275,110457
142248,110438
142194,110488
142178,110430
142228,110464
142239,110444
142253,110454
142236,110474
142148,110451
142243,110413
142286,110464
142271,110464
142215,110431
142217,110461
142236,110428
142263,110423
142229,110453
142217,110399
142218,110412
142176,110387
142226,110393
142166,110430
142096,110344
142044,110369
142060,110330
142045,110320
141999,110294
141251,109989
141226,110003
141231,109987
141115,109907
141174,109918
141116,109907
141124,109914
140981,109837
140994,109851
141020,109824
141013,109860
141006,109804
141044,109828
141065,109820
141006,109814
141015,109860
141087,109860
141061,109828
141111,109840
141056,109878
141070,109860
141124,109858
141088,109854
141094,109838
141098,109845
141097,109877
141141,109868
141133,109824
141147,109862
141082,109836
141157,109854
141185,109848
141221,109875
141131,109872
141123,109836
141181,109872
141185,109857
141163,109859
141157,109854
141159,109841
141167,109907
141213,109876
141197,109857
141224,109867
141155,109874
141222,109841
141251,109852
141216,109875
141171,109861
141132,109839
141175,109792
141175,109807
141175,109830
141085,109824
141022,109794
141066,109802
141039,109777
140998,109762
140903,109746
140812,109697
140878,109715
140832,109674
140787,109662
140707,109660
140604,109643
140634,109588
140609,109586
140548,109587
140472,109588
140359,109538
140417,109523
140397,109544
140356,109527
140272,109476
140179,109489
140258,109453
140256,109463
140205,109457
140166,109420
140117,109444
140117,109457
140108,109395
140131,109405
140086,109386
140055,109435
140066,109396
140071,109382
140077,109383
140025,109395
139977,109384
140067,109374
140064,109375
140051,109385
140009,109367
140002,109419
140041,109344
140072,109376
140040,109366
140010,109350
140010,109411
140046,109363
140062,109392
140041,109406
140056,109390
140024,109356
140071,109422
140088,109390
140095,109416
140069,109375
140044,109410
140127,109414
140141,109416
140160,109406
140111,109426
140087,109399
140131,109390
140181,109396
140131,109398
140116,109400
140132,109408
140137,109377
140158,109422
140154,109395
140114,109408
140108,109378
140116,109417
140150,109419
140130,109400
140058,109383
140056,109334
140111,109396
140105,109363
140051,109381
140030,109346
140054,109381
140075,109341
140047,109363
140041,109337
139986,109341
140007,109338
140002,109332
140012,109329
139972,109315
139979,109321
139930,109365
139959,109351
139958,109321
139952,109336
139890,109312
139941,109336
139970,109327
139992,109322
139969,109312
139933,109320
139886,109304
139948,109304
140013,109327
139942,109309
139920,109302
139941,109277
139992,109308
139963,109327
139980,109290
139927,109333
139925,109304
139998,109343
139981,109328
139993,109314
139944,109327
139968,109317
140000,109304
140012,109329
139993,109300
139959,109296
139983,109336
139988,109280
140044,109338
140007,109305
139976,109348
140006,109290
140058,109355
140043,109341
140048,109331
139965,109345
140049,109347
140038,109333
140100,109341
140078,109311
140036,109340
140073,109371
140098,109356
140110,109309
140112,109355
140096,109363
140124,109390
140124,109341
140153,109347
140129,109361
140112,109337
140110,109379
140191,109375
140180,109353
140204,109363
140140,109371
140155,109350
140218,109375
140221,109373
140166,109355
140129,109323
140169,109386
140166,109340
140131,109342
140102,109315
140035,109309
140018,109338
139993,109276
140011,109279
139915,109273
139861,109227
139798,109228
139817,109204
139762,109211
139689,109177
139617,109139
139624,109132
139556,109136
139563,109118
139478,109115
139397,109066
139431,109083
139404,109037
139347,109044
139294,109030
139229,108979
139253,108999
139267,109007
139260,108992
139202,109025
139108,108963
139203,108991
139174,108987
139189,108973
139127,108955
139144,108967
139150,109005
139152,108952
139197,108970
139184,108957
139139,109003
139165,108965
139204,109016
139219,108982
139211,108981
139220,108990
139250,108990
139305,109031
139239,109011
139263,108993
139239,109018
139307,109044
139338,109021
139287,109014
139320,109020
139291,109038
139360,109044
139354,109042
139392,109044
139365,109064
139315,109025
139388,109036
139419,109056
139409,109039
139354,109026
139375,109070
139375,109049
139429,109016
139408,109010
139392,109023
139387,109026
139368,109078
139416,109029
139457,109073
139394,109059
139331,109032
139381,109057
139424,109026
139391,109045
139336,109035
139289,109045
139374,109019
139356,109008
139342,109033
139303,109007
139267,108971
139336,109019
139365,108985
139271,109018
139256,108976
139253,109005
139256,108996
139294,108962
139281,108989
139207,108960
139205,108973
139226,108960
139289,108974
139235,108987
139195,108970
139189,108981
139249,108972
139300,108960
139240,108995
139203,108982
139230,108990
139260,108984
139292,108984
139261,108983
139252,108999
139255,109000
139312,109002
139302,108996
139294,108993
139258,108981
139271,109019
139350,109033
139363,108995
139298,109005
139317,109051
139325,109018
139357,109019
139374,109010
139390,109007
139314,109022
139375,109048
139430,109047
139406,109038
139429,109050
139375,109037
139385,109043
139455,109050
139489,109050
139473,109078
139441,109092
139482,109049
139538,109062
139568,109128
139561,109086
139523,109132
139553,109090
139618,109119
139596,109113
139602,109155
139575,109127
139599,109115
139658,109169
139661,109092
139673,109144
139644,109133
139597,109105
139686,109121
139654,109146
139634,109136
139549,109113
139571,109089
139586,109090
139555,109068
139480,109061
139409,109058
139384,109008
139425,109026
139366,109034
139301,108985
139250,108962
139235,108999
139233,108942
139230,108984
139178,108936
139103,108934
139085,108935
139110,108904
139095,108927
139046,108907
138961,108911
138971,108867
139015,108873
138958,108904
138929,108874
138899,108862
138913,108855
138960,108864
138951,108851
138893,108862
138885,108855
138900,108856
138923,108824
138938,108906
138917,108868
138869,108850
138937,108879
138954,108865
138976,108877
138976,108880
138894,108887
138976,108897
139016,108880
139027,108908
139058,108903
138993,108890
139043,108920
139088,108911
139114,108923
139066,108925
139059,108926
139108,108961
139166,108915
139186,108993
139189,108956
139151,108943
139233,108972
139234,108990
139280,108984
139235,109011
139225,109006
139243,109006
139310,108969
139314,108992
139294,109009
139253,109018
139324,108992
139364,109029
139308,108987
139352,109019
139303,108989
139349,109026
139343,109032
139402,108996
139357,109026
139292,109004
139357,108994
139384,109014
139364,109038
139355,109019
139321,109000
139373,109029
139378,108997
139390,109029
139330,108999
139338,109016
139386,109040
139414,109049
139401,109014
139409,109038
139311,109031
139403,109057
139394,109046
139402,109052
139386,109022
139359,109015
139433,109029
139456,109064
139415,109009
139446,109045
139384,109026
139491,109060
139438,109095
139468,109054
139443,109077
139445,109032
139490,109066
139488,109095
139475,109044
139472,109075
139453,109068
139529,109092
139523,109082
139560,109098
139507,109101
139490,109094
139555,109102
139577,109098
139574,109075
139585,109084
139526,109138
139571,109087
139644,109128
139655,109094
139618,109127
139571,109099
139646,109127
139666,109108
139695,109131
139626,109134
139682,109130
139721,109154
139736,109176
139710,109135
139692,109134
139726,109174
139760,109182
139756,109177
139735,109167
139701,109150
139673,109157
139698,109135
139740,109120
139689,109136
139606,109128
139576,109065
139587,109090
139568,109053
139521,109044
139465,109073
139384,108991
139412,109015
139382,108986
139325,109014
139201,108957
139242,108975
139231,108971
139169,108939
139168,108913
139101,108939
139030,108872
139076,108893
139052,108890
139004,108868
138913,108836
138924,108862
138915,108854
138944,108828
138898,108829
138854,108820
138829,108827
138882,108808
138870,108852
138884,108842
138809,108841
138841,108810
138878,108811
138883,108861
138863,108860
138849,108821
138888,108865
138880,108850
138920,108867
138906,108843
138887,108818
138938,108864
138932,108904
138982,108828
138999,108881
138926,108911
138977,108883
139042,108882
139018,108893
139050,108876
139029,108905
139057,108891
139102,108914
139118,108889
139121,108925
139059,108936
139111,108910
139190,108951
139159,108949
139143,108918
139148,108953
139153,108972
139210,108955
139222,108950
139173,108960
139154,108941
139182,108973
139185,108953
139217,108944
139188,108940
139186,108937
139144,108949
139213,108987
139190,108913
139205,108960
139126,108960
139181,108950
139208,108955
139186,108942
139147,108919
139093,108922
139162,108949
139186,108951
139160,108928
139178,108896
139120,108954
139152,108934
139226,108950
139156,108959
139147,108934
139154,108930
139155,108972
139190,108922
139215,108921
139187,108941
139113,108952
139169,108922
139239,108930
139228,108938
139205,108940
139155,108960
139168,108949
139220,108922
139232,108980
139187,108948
139195,108964
139195,108956
139238,108924
139284,108961
139220,108989
139242,108923
139247,108938
139312,108946
139292,108969
139267,109004
139221,108947
139272,108963
139337,108965
139325,108985
139290,108972
139259,108974
139330,108989
139352,108991
139386,108974
139375,109020
139279,108963
139375,108992
139416,109015
139397,108986
139425,108994
139336,109013
139418,109006
139455,109037
139449,108995
139416,109019
139377,109037
139389,109027
139421,108967
139393,108990
139316,108985
139285,108963
139282,108957
139246,108956
139209,108885
139147,108908
139078,108890
139066,108867
139017,108858
138980,108802
138939,108828
138829,108780
138849,108801
138828,108793
138766,108761
138715,108718
138638,108766
138659,108733
138681,108715
138613,108694
138517,108701
138491,108656
138573,108659
138529,108704
138509,108637
138481,108682
138449,108667
138458,108670
138505,108655
138501,108675
138436,108619
138436,108691
138500,108674
138523,108640
138503,108681
138419,108610
138449,108623
138501,108655
138487,108686
138466,108651
138440,108640
138457,108692
138507,108652
138536,108662
138530,108642
138490,108698
138484,108677
138583,108678
138566,108701
138583,108706
138559,108716
138553,108717
138637,108695
138659,108721
138648,108724
138645,108737
138665,108742
138717,108724
138704,108731
138704,108734
138687,108730
138670,108764
138775,108784
138769,108748
138750,108736
138742,108761
138737,108768
138787,108755
138760,108741
138779,108746
138750,108768
138720,108766
138755,108752
138766,108746
138764,108798
138692,108714
138739,108774
138742,108768
138785,108726
138749,108748
138672,108750
138723,108745
138689,108736
138771,108738
138760,108741
138668,108764
138687,108753
138692,108741
138754,108720
138749,108740
138692,108732
138680,108718
138766,108785
138722,108739
138716,108689
138712,108768
138689,108763
138721,108745
138750,108756
138744,108737
138705,108769
138717,108750
138782,108752
138766,108778
138756,108734
138779,108789
138810,108774
138852,108775
138843,108786
138788,108771
138778,108768
138842,108802
138849,108819
138890,108796
138908,108815
138829,108786
138885,108788
138934,108837
138916,108795
138953,108811
138891,108834
138951,108836
138998,108798
139029,108843
139010,108866
138981,108838
138987,108845
139071,108828
139103,108877
139041,108877
139048,108851
139100,108858
139083,108868
139132,108874
139108,108876
139094,108878
139122,108911
139146,108887
139163,108899
139172,108903
139111,108892
139161,108875
139168,108899
139138,108850
139068,108852
139004,108820
139021,108822
138982,108852
138938,108778
138881,108788
138825,108763
138817,108740
138773,108741
138715,108744
138597,108676
138569,108672
138517,108659
138523,108658
138465,108623
138384,108588
138325,108587
138300,108578
138265,108547
138252,108558
138206,108543
138102,108520
138158,108520
138163,108492
138125,108503
138089,108480
137999,108482
138067,108485
138044,108473
138018,108452
138031,108487
137959,108464
138021,108478
138052,108467
138031,108447
138048,108481
137962,108470
138053,108485
138071,108491
138043,108490
138060,108477
138024,108484
138096,108478
138089,108491
138107,108466
138093,108514
138045,108485
138125,108510
138145,108489
138147,108489
138156,108555
138134,108488
138211,108566
138223,108524
138229,108540
138197,108558
138197,108522
138243,108567
138288,108562
138269,108583
138250,108543
138229,108544
138304,108563
138297,108576
138293,108592
138253,108569
138254,108579
138280,108578
138346,108589
138331,108589
138258,108542
138282,108581
138326,108574
138348,108584
138299,108565
138280,108541
138255,108555
138289,108599
138310,108545
138330,108563
138241,108587
138223,108569
138258,108571
138327,108565
138272,108582
138200,108517
138203,108545
138283,108533
138306,108557
138266,108543
138216,108562
138183,108532
138245,108516
138277,108591
138258,108539
138192,108516
138213,108523
138287,108570
138271,108569
138275,108538
138265,108541
138247,108552
138276,108557
138353,108582
138304,108577
138312,108577
138282,108601
138344,108546
138378,108603
138344,108576
138332,108609
138355,108606
138406,108632
138430,108607
138444,108606
138366,108625
138382,108629
138443,108613
138486,108625
138479,108632
138419,108623
138449,108646
138537,108634
138552,108654
138527,108653
138536,108650
138556,108671
138594,108669
138640,108672
138620,108703
138584,108670
138624,108690
138634,108687
138689,108661
138698,108727
138629,108681
138682,108691
138719,108716
138741,108715
138765,108705
138728,108725
138724,108761
138754,108721
138777,108743
138767,108712
138708,108707
138723,108709
138817,108724
138764,108725
138706,108701
138646,108664
138665,108672
138632,108707
138596,108632
138569,108657
138488,108581
138427,108607
138394,108591
138338,108571
138266,108498
138156,108514
138140,108506
138111,108459
138086,108446
137970,108448
137886,108380
137881,108412
137871,108359
137804,108351
137785,108345
137602,108326
137642,108282
137674,108309
137641,108277
137567,108285
137496,108234
137559,108268
137541,108307
137504,108270
137498,108224
137438,108286
137466,108255
137541,108243
137528,108278
137492,108259
137497,108264
137487,108270
137556,108262
137529,108271
137562,108289
137526,108268
137562,108314
137562,108283
137587,108290
137598,108272
137568,108308
137631,108313
137627,108306
137627,108305
137653,108292
137621,108335
137653,108333
137739,108353
137721,108334
137706,108368
137638,108321
137719,108312
137785,108361
137758,108353
137749,108335
137654,108339
137735,108347
137796,108330
137782,108366
137740,108316
137694,108352
137750,108332
137778,108353
137709,108347
137711,108297
137688,108322
137683,108335
137671,108303
137715,108290
137643,108319
137555,108267
137629,108251
137651,108259
137619,108291
137530,108245
137519,108245
137576,108277
137558,108270
137533,108249
137496,108210
137508,108235
137491,108233
137528,108247
137482,108187
137471,108205
137396,108215
137432,108213
137515,108224
137466,108236
137434,108192
137398,108203
137465,108222
137479,108252
137439,108224
137453,108190
137406,108193
137457,108230
137441,108206
137461,108195
137438,108242
137421,108239
137508,108212
137506,108236
137473,108219
137497,108240
137451,108272
137506,108231
137512,108266
137513,108265
137499,108234
137503,108245
137541,108245
137608,108236
137577,108252
137555,108219
137583,108268
137603,108314
137622,108241
137654,108279
137570,108259
137581,108260
137698,108274
137686,108317
137633,108297
137634,108285
137621,108310
137701,108296
137720,108292
137740,108331
137664,108275
137703,108305
137749,108316
137791,108334
137745,108332
137763,108306
137740,108303
137785,108363
137815,108336
137760,108336
137730,108313
137753,108306
137757,108349
137756,108290
137691,108302
137624,108280
137613,108245
137626,108276
137552,108245
137491,108225
137412,108198
137305,108175
137300,108166
137248,108097
137227,108076
137092,108101
137023,108067
137037,108021
136960,108008
136897,107994
136761,107937
136769,107949
136695,107914
136686,107917
136601,107884
136527,107843
136538,107831
136504,107853
136462,107823
136469,107816
136356,107801
136338,107772
136421,107822
136357,107777
136348,107759
136287,107751
136336,107783
136284,107752
136323,107764
136355,107757
136260,107750
136323,107753
136369,107781
136333,107773
136324,107809
136263,107738
136366,107785
136364,107820
136351,107818
136368,107782
136367,107775
136372,107797
136379,107770
136424,107796
136415,107801
136352,107788
136391,107778
136444,107796
136458,107800
136398,107812
136397,107793
136447,107802
136426,107805
136479,107813
136408,107794
136410,107790
136412,107802
136425,107757
136431,107780
136361,107779
136333,107759
136320,107762
136384,107741
136389,107781
136307,107771
136279,107714
136298,107751
136318,107716
136294,107720
136217,107716
136189,107677
136207,107681
136240,107699
136140,107675
136140,107638
136099,107658
136077,107670
136104,107662
136108,107649
136054,107630
136016,107634
135988,107626
136043,107638
135977,107613
136011,107605
135920,107586
135984,107630
135950,107576
135943,107573
135914,107556
135870,107549
135919,107582
135901,107578
135909,107549
135890,107567
135824,107521
135886,107575
135846,107564
135843,107530
135875,107536
135798,107555
135827,107547
135880,107535
135864,107523
135807,107547
135761,107510
135850,107558
135837,107546
135827,107547
135810,107503
135793,107531
135779,107504
135872,107539
135840,107551
135821,107489
135784,107517
135819,107515
135885,107562
135859,107528
135822,107538
135820,107524
135832,107549
135870,107538
135878,107552
135814,107536
135861,107540
135881,107547
135951,107590
135955,107566
135882,107559
135952,107612
135952,107569
135995,107582
136002,107576
135926,107579
135978,107604
136030,107606
136011,107619
135995,107615
136007,107580
135995,107638
136077,107597
136068,107642
136043,107617
136064,107632
136047,107655
136132,107681
136105,107634
136077,107643
136084,107627
136021,107626
136065,107618
136041,107596
136037,107624
135960,107591
135867,107583
135895,107555
135853,107508
135785,107511
135650,107466
135609,107454
135537,107405
135492,107413
135421,107341
135286,107334
135172,107330
135133,107264
135053,107221
134992,107216
134841,107154
134754,107112
134750,107149
134633,107069
134547,107021
134452,106994
134360,106963
134308,106972
134245,106918
134184,106877
134061,106857
133995,106867
133965,106770
133917,106796
133821,106770
133738,106756
133670,106713
133686,106721
133635,106720
133570,106657
133474,106666
133487,106675
133478,106641
133447,106622
133411,106665
133380,106616
133362,106625
133395,106632
133387,106644
133347,106580
133295,106621
133346,106631
133353,106616
133406,106652
133393,106623
133324,106610
133337,106634
133404,106633
133409,106640
133438,106642
133382,106672
133418,106687
133433,106662
133469,106650
133473,106696
133401,106677
133470,106669
133457,106686
133507,106682
133490,106730
133428,106688
133495,106681
133537,106719
133491,106693
133546,106703
133459,106744
133484,106691
133523,106704
133515,106702
133493,106697
133431,106712
133408,106694
133478,106685
133434,106669
133431,106693
133354,106682
133338,106726
133385,106657
133409,106674
133326,106690
133257,106676
133293,106651
133352,106644
133339,106652
133274,106628
133239,106650
133276,106670
133277,106646
133282,106622
133285,106673
133207,106633
133289,106643
133339,106643
133327,106682
133303,106648
133311,106666
133342,106707
133396,106701
133439,106735
133444,106712
133414,106725
133493,106715
133579,106773
133566,106809
133592,106754
133600,106775
133669,106826
133721,106848
133752,106831
133728,106869
133736,106865
133789,106887
133859,106902
133862,106862
133881,106895
133829,106895
133908,106926
133954,106891
133966,106904
133970,106944
133965,106918
134018,106961
134072,106976
134092,106953
134082,106972
134029,106970
134117,106965
134160,106992
134135,106973
134145,106986
134118,107027
134143,106982
134199,107030
134166,107014
134176,106999
134143,107019
134239,107003
134207,107015
134245,107044
134228,107028
134193,107041
134256,107053
134301,107051
134285,107060
134300,107024
134271,107068
134338,107073
134344,107066
134335,107091
134343,107055
134297,107093
134381,107099
134381,107108
134408,107102
134367,107089
134362,107095
134428,107108
134480,107121
134448,107116
134462,107112
134417,107144
134539,107128
134557,107173
134538,107158
134551,107141
134568,107164
134537,107162
134567,107144
134544,107165
134469,107111
134428,107084
134452,107136
134422,107128
134345,107078
134260,107045
134144,107013
134158,107001
134059,106938
133969,106927
133841,106873
133698,106829
133633,106800
133537,106733
133450,106725
133233,106629
133116,106600
133039,106566
132926,106504
132814,106449
132651,106405
132517,106388
132459,106340
132453,106329
132308,106321
132207,106283
132155,106250
132196,106266
132156,106240
132101,106204
132034,106181
132011,106189
131982,106205
131981,106202
131948,106157
131877,106176
131894,106142
131923,106192
131906,106177
131917,106149
131865,106150
131904,106146
131895,106161
131925,106152
131933,106178
131896,106161
131877,106193
131928,106199
131935,106163
131981,106204
131928,106207
131926,106217
132037,106204
132002,106226
132046,106213
132025,106229
132033,106241
132141,106268
132143,106274
132119,106252
132112,106267
132157,106286
132220,106323
132224,106342
132222,106309
132185,106327
132285,106311
132291,106355
132245,106352
132302,106328
132272,106352
132301,106346
132282,106376
132304,106341
132346,106374
132240,106381
132258,106355
132278,106362
132273,106357
132264,106318
132171,106335
132219,106334
132213,106346
132239,106337
132236,106299
132152,106305
132161,106337
132185,106297
132191,106291
132116,106295
132073,106298
132096,106288
132134,106277
132112,106269
132092,106298
132021,106299
132088,106304
132135,106314
132090,106327
132082,106258
132053,106275
132100,106292
132129,106293
132149,106343
132127,106284
132112,106315
132155,106326
132221,106373
132234,106378
132212,106372
132148,106343
132246,106343
132280,106368
132315,106395
132308,106345
132272,106377
132303,106443
132367,106396
132392,106440
132394,106408
132347,106440
132428,106465
132442,106449
132466,106434
132483,106477
132453,106462
132511,106499
132528,106488
132558,106467
132562,106493
132587,106500
132596,106530
132635,106540
132677,106532
132687,106562
132651,106555
132759,106594
132802,106596
132820,106623
132820,106607
132854,106596
132906,106653
132972,106664
132987,106662
133012,106659
132988,106708
133010,106662
133110,106692
133112,106717
133158,106739
133114,106746
133243,106764
133249,106797
133251,106760
133290,106796
133306,106813
133366,106819
133414,106818
133438,106871
133428,106827
133446,106861
133553,106890
133580,106917
133665,106899
133636,106947
133628,106938
133716,106924
133778,106941
133800,106949
133815,106983
133784,107017
133893,107004
133943,107032
133929,107051
133961,107031
133902,107062
134000,107036
134062,107073
134032,107040
133972,107039
134002,107070
134027,107052
134033,107063
133991,107007
133924,107013
133887,106989
133887,107023
133847,106984
133793,106955
133694,106914
133623,106875
133615,106905
133560,106877
133444,106825
133362,106763
133255,106765
133202,106728
133096,106672
133023,106681
132870,106626
132730,106534
132701,106546
132642,106501
132500,106470
132371,106418
132304,106395
132229,106336
132176,106327
132068,106306
131954,106261
131896,106266
131875,106203
131794,106205
131726,106176
131696,106134
131601,106149
131645,106142
131605,106130
131544,106110
131470,106079
131475,106094
131467,106088
131471,106077
131452,106055
131354,106052
131364,106052
131403,106045
131399,106093
131353,106031
131352,106044
131296,106072
131371,106046
131394,106053
131373,106053
131335,106077
131380,106038
131401,106074
131448,106107
131474,106088
131458,106107
131458,106147
131505,106161
131602,106162
131575,106142
131565,106133
131581,106191
131644,106194
131658,106185
131700,106175
131643,106175
131694,106237
131734,106204
131713,106216
131728,106222
131675,106210
131733,106201
131754,106216
131774,106213
131759,106233
131668,106223
131681,106182
131723,106222
131704,106185
131709,106174
131655,106208
131627,106168
131658,106158
131687,106211
131631,106168
131581,106135
131604,106210
131633,106175
131626,106135
131617,106138
131566,106174
131557,106109
131581,106144
131592,106136
131509,106153
131456,106107
131495,106099
131504,106124
131461,106068
131451,106085
131380,106103
131358,106113
131358,106097
131338,106080
131347,106069
131355,106059
131355,106097
131416,106097
131433,106093
131453,106127
131428,106141
131489,106103
131562,106175
131585,106198
131590,106177
131626,106174
131690,106263
131761,106257
131835,106272
131854,106290
131862,106317
131952,106332
132015,106323
132022,106363
132006,106327
132003,106327
132017,106375
132100,106362
132096,106372
132088,106361
132118,106372
132141,106400
132219,106410
132223,106392
132243,106405
132243,106466
132302,106447
132367,106477
132407,106473
132422,106520
132378,106498
132527,106533
132550,106563
132573,106539
132561,106559
132564,106573
132651,106590
132682,106561
132705,106620
132672,106589
132698,106591
132783,106605
132808,106657
132767,106623
132809,106651
132780,106628
132878,106671
132866,106689
132889,106627
132903,106669
132828,106687
132907,106679
132964,106688
132971,106662
132905,106698
132873,106685
132926,106665
132961,106691
132911,106647
132862,106672
132755,106593
132778,106630
132733,106592
132643,106558
132554,106531
132494,106511
132421,106502
132363,106427
132309,106432
132153,106396
132060,106366
132003,106320
131927,106260
131850,106235
131714,106210
131573,106190
131534,106135
131524,106097
131378,106100
131265,106033
131232,106018
131212,106009
131161,105995
131117,105978
130969,105940
130968,105907
130962,105921
130912,105903
130899,105899
130816,105890
130800,105867
130819,105907
130803,105869
130790,105831
130746,105847
130732,105833
130820,105860
130817,105890
130819,105868
130781,105872
130811,105873
130859,105864
130950,105912
130902,105936
130924,105900
130951,105964
131031,105978
131022,105972
131091,105975
131098,106014
131111,105981
131201,106012
131176,106032
131265,106046
131211,106079
131285,106041
131354,106101
131360,106111
131426,106126
131393,106127
131458,106127
131505,106176
131539,106134
131519,106174
131504,106126
131479,106141
131558,106158
131503,106179
131463,106157
131425,106136
131402,106128
131420,106107
131453,106141
131386,106100
131336,106139
131349,106099
131425,106145
131463,106135
131421,106132
131381,106119
131408,106155
131458,106142
131503,106121
131533,106155
131456,106168
131492,106137
131591,106186
131570,106200
131651,106211
131637,106222
131676,106207
131750,106257
131793,106244
131803,106267
131773,106292
131854,106287
131949,106324
131944,106333
131980,106310
131966,106365
132018,106365
132034,106355
132089,106374
132074,106382
132056,106334
132100,106398
132123,106370
132173,106372
132142,106397
132087,106379
132185,106401
132192,106411
132202,106433
132184,106410
132177,106390
132195,106451
132214,106402
132268,106386
132292,106444
132194,106471
132301,106428
132354,106493
132380,106463
132371,106483
132308,106484
132371,106499
132445,106471
132481,106532
132450,106520
132419,106500
132522,106505
132560,106561
132538,106543
132579,106567
132545,106570
132574,106602
132595,106577
132715,106606
132680,106640
132649,106591
132707,106644
132770,106621
132828,106656
132811,106675
132813,106634
132853,106708
132951,106709
132963,106701
132970,106672
132994,106740
133036,106713
133049,106751
133088,106732
133097,106759
133062,106725
133105,106798
133104,106763
133143,106758
133143,106747
133100,106771
133152,106795
133168,106773
133206,106789
133182,106804
133099,106794
133196,106801
133199,106787
133211,106770
133159,106798
133109,106750
133117,106746
133075,106737
133040,106725
132956,106687
132831,106639
132796,106628
132716,106585
132663,106553
132467,106510
132385,106486
132277,106449
132219,106377
132063,106377
131948,106283
131804,106290
131695,106218
131675,106168
131537,106147
131447,106123
131321,106106
131271,106064
131195,106001
131135,106000
131038,105964
130947,105950
130914,105905
130883,105921
130800,105873
130760,105840
130689,105871
130688,105859
130723,105850
130711,105862
130681,105832
130647,105850
130714,105863
130736,105893
130777,105884
130756,105889
130812,105918
130862,105944
130907,105934
130935,105955
130977,105967
130986,105975
131066,105993
131141,106061
131172,106041
131137,106062
131182,106075
131239,106097
131308,106060
131369,106121
131328,106135
131297,106124
131407,106126
131502,106186
131471,106161
131490,106161
131495,106194
131591,106211
131656,106212
131662,106262
131620,106249
131653,106239
131736,106215
131769,106259
131725,106259
131736,106242
131726,106276
131757,106270
131794,106263
131797,106246
131719,106273
131757,106250
131821,106306
131765,106250
131764,106249
131767,106261
131745,106304
131830,106287
131839,106283
131806,106294
131750,106233
131810,106285
131790,106312
131864,106279
131838,106296
131765,106276
131776,106302
131821,106281
131839,106269
131848,106264
131808,106312
131786,106279
131874,106264
131867,106285
131879,106311
131796,106303
131827,106272
131901,106324
131887,106288
131891,106303
131828,106327
131862,106300
131937,106340
131973,106322
131952,106348
131969,106349
131946,106354
132060,106391
132055,106380
132099,106396
132077,106390
132117,106408
132209,106426
132238,106443
132271,106438
132225,106446
132276,106467
132347,106490
132373,106495
132385,106491
132366,106505
132424,106537
132440,106530
132531,106549
132506,106530
132513,106543
132529,106570
132565,106583
132574,106582
132566,106548
132538,106567
132582,106604
132578,106582
132677,106588
132683,106608
132655,106633
132680,106650
132732,106620
132837,106679
132855,106659
132803,106672
132880,106692
132979,106747
132968,106693
133011,106742
132977,106728
133059,106749
133100,106806
133147,106751
133179,106801
133117,106819
133203,106832
133233,106847
133279,106833
133295,106827
133248,106820
133344,106849
133364,106873
133393,106898
133386,106867
133363,106899
133412,106886
133476,106913
133470,106901
133444,106911
133412,106901
133392,106903
133343,106849
133372,106858
133265,106837
133179,106796
133143,106805
133076,106723
132996,106748
132913,106700
132800,106652
132780,106632
132703,106653
132651,106551
132538,106535
132384,106514
132379,106499
132274,106418
132208,106446
132068,106419
132001,106353
132022,106345
131943,106331
131922,106302
131830,106302
131812,106293
131831,106296
131811,106256
131762,106256
131771,106254
131658,106218
131732,106240
131729,106280
131743,106259
131693,106261
131656,106238
131713,106239
131784,106300
131791,106280
131736,106285
131719,106275
131758,106305
131825,106265
131840,106277
131816,106326
131802,106289
131904,106331
131906,106299
131927,106335
131955,106343
131920,106322
132027,106347
132060,106368
132062,106391
132115,106404
132084,106433
132171,106439
132282,106482
132275,106456
132318,106479
132308,106486
132425,106506
132459,106564
132500,106544
132496,106539
132498,106562
132573,106576
132603,106598
132589,106589
132610,106577
132562,106607
132628,106580
132676,106606
132638,106590
132661,106617
132606,106594
132682,106612
132702,106607
132718,106597
132681,106623
132625,106598
132707,106619
132692,106582
132670,106595
132661,106601
132609,106600
132592,106580
132652,106564
132612,106559
132566,106573
132533,106575
132566,106573
132566,106547
132579,106557
132535,106566
132528,106593
132574,106586
132658,106559
132648,106611
132624,106567
132652,106608
132739,106624
132739,106621
132790,106615
132789,106673
132802,106653
132903,106716
132942,106715
132940,106688
132976,106716
132976,106747
133084,106731
133093,106782
133108,106778
133145,106774
133182,106811
133276,106803
133334,106849
133344,106833
133359,106838
133426,106911
133445,106918
133520,106898
133539,106956
133520,106934
133545,106915
133688,106947
133666,107009
133662,106956
133668,107007
133658,106997
133722,106985
133769,106982
133791,107015
133715,107002
133714,107035
133777,107017
133819,106991
133846,107012
133817,107029
133828,107068
133879,107065
133977,107087
133961,107088
133982,107130
134010,107135
134116,107106
134159,107158
134201,107162
134185,107154
134255,107212
134299,107248
134371,107201
134377,107248
134400,107253
134410,107284
134493,107248
134543,107322
134527,107313
134566,107298
134626,107339
134692,107383
134752,107397
134748,107359
134799,107373
134799,107399
134892,107407
134892,107410
134910,107388
134880,107439
134901,107450
134971,107455
134967,107417
134907,107413
134856,107417
134831,107393
134813,107346
134800,107362
134681,107351
134614,107279
134623,107281
134583,107313
134508,107236
134416,107232
134330,107193
134292,107188
134295,107133
134231,107124
134154,107101
134059,107104
134041,107064
133973,107044
133902,107008
133882,106984
133770,107001
133779,106990
133700,106973
133684,106908
133657,106894
133561,106922
133581,106891
133625,106905
133625,106895
133576,106882
133560,106871
133600,106923
133585,106881
133628,106904
133557,106904
133561,106886
133635,106934
133616,106921
133670,106926
133595,106921
133602,106927
133701,106961
133701,106947
133715,106928
133744,106941
133669,106972
133763,106970
133770,106995
133789,106967
133820,106984
133793,106983
133909,107021
133922,107041
133923,107034
133955,107023
133932,107077
134011,107043
134082,107118
134072,107096
134096,107097
134136,107097
134194,107163
134233,107136
134244,107170
134257,107137
134212,107162
134272,107204
134315,107165
134379,107192
134308,107179
134328,107190
134349,107205
134420,107198
134410,107182
134387,107213
134395,107214
134420,107233
134519,107231
134522,107269
134484,107215
134500,107237
134542,107271
134554,107269
134606,107254
134572,107317
134576,107264
134661,107317
134747,107317
134701,107326
134693,107303
134739,107327
134772,107325
134824,107381
134796,107358
134818,107394
134807,107383
134896,107356
134950,107413
134960,107395
134950,107419
134954,107447
134999,107417
135068,107447
135074,107466
135055,107432
135086,107434
135167,107479
135178,107494
135205,107470
135201,107523
135239,107533
135310,107559
135386,107542
135391,107556
135415,107560
135446,107620
135548,107627
135588,107613
135650,107679
135630,107635
135690,107673
135740,107717
135787,107711
135821,107721
135791,107707
135837,107712
135942,107755
135953,107764
135992,107757
135959,107769
136027,107789
136059,107807
136151,107799
136176,107839
136122,107851
136176,107850
136285,107834
136322,107906
136328,107888
136333,107902
136330,107914
136433,107924
136488,107965
136490,107952
136509,107933
136554,107999
136571,107996
136643,108001
136618,108013
136650,108019
136685,108040
136756,108023
136806,108042
136799,108061
136785,108055
136804,108062
136939,108100
136939,108111
136938,108088
136941,108108
136931,108124
137009,108102
137048,108157
136974,108106
136963,108102
136957,108096
136979,108076
136974,108091
136923,108057
136889,108100
136871,108048
136891,108089
136851,108054
136835,108027
136737,108019
136751,108012
136761,108003
136757,107971
136660,107979
136585,107942
136642,107935
136584,107949
136581,107928
136529,107925
136483,107910
136492,107906
136494,107881
136502,107881
136446,107878
136418,107873
136436,107873
136427,107870
136463,107880
136411,107851
136393,107875
136433,107889
136436,107867
136466,107849
136433,107879
136382,107847
136438,107855
136453,107906
136484,107885
136464,107867
136436,107846
136468,107881
136494,107898
136492,107874
136511,107876
136512,107869
136530,107924
136575,107865
136592,107878
136584,107922
136542,107899
136626,107920
136661,107937
136649,107928
136634,107891
136628,107923
136716,107946
136728,107976
136732,107968
136735,107950
136739,107975
136773,107976
136819,107947
136832,107964
136806,108002
136812,107979
136818,108010
136891,107990
136903,108022
136846,107953
136823,107974
136900,108029
136878,108000
136887,107970
136894,108025
136883,108001
136866,108014
136910,108001
136900,108032
136893,107975
136829,107981
136954,108019
136920,108009
136906,107994
136901,107957
136882,107966
136916,108011
136932,107992
136991,107997
136934,107989
136893,107977
136968,108020
137005,108027
137024,108053
136959,108002
136959,108035
137014,108022
137073,108037
137032,108059
137017,108003
137036,108026
137082,108052
137105,108064
137100,108082
137113,108039
137103,108058
137177,108079
137181,108070
137207,108061
137163,108096
137170,108105
137271,108093
137328,108134
137285,108133
137327,108103
137289,108128
137368,108129
137397,108165
137397,108187
137384,108160
137358,108161
137469,108174
137497,108170
137505,108188
137460,108164
137511,108205
137568,108216
137579,108195
137550,108194
137597,108211
137563,108244
137648,108238
137667,108204
137659,108249
137611,108232
137621,108231
137702,108280
137691,108255
137708,108236
137709,108265
137711,108267
137759,108237
137791,108287
137736,108269
137760,108258
137775,108317
137804,108253
137864,108301
137822,108303
137768,108271
137822,108317
137846,108313
137825,108300
137850,108294
137740,108257
137717,108230
137764,108271
137755,108245
137692,108237
137566,108190
137559,108168
137552,108170
137549,108184
137505,108106
137441,108111
137373,108142
137407,108078
137399,108086
137284,108077
137239,108031
137285,108046
137247,108070
137254,107999
137199,107997
137116,107997
137142,107975
137161,107968
137173,107978
137120,108009
137099,107968
137080,107967
137155,107967
137123,107971
137095,107936
137075,107971
137031,107968
137108,107966
137137,107956
137114,107991
137045,107937
137084,107949
137121,107992
137107,107968
137105,107943
137093,107940
137150,107970
137181,107987
137171,107991
137172,107981
137133,107983
137174,107955
137242,107991
137254,108000
137246,107994
137211,107998
137243,108027
137271,107977
137322,107989
137311,108027
137267,107986
137275,108007
137338,108019
137386,108059
137291,108009
137320,108020
137322,108037
137370,108046
137356,108004
137387,108029
137331,108051
137408,108040
137391,107997
137451,108034
137399,108022
137338,108042
137412,108031
137439,108018
137427,108026
137396,108011
137363,108032
137352,108050
137379,108005
137404,108012
137401,107992
137338,107992
137385,108031
137360,107994
137372,107975
137357,107975
137318,107989
137365,107975
137407,108016
137347,108017
137341,107932
137322,107969
137314,107996
137373,107997
137358,108014
137357,107951
137314,107986
137321,107999
137339,107987
137311,107944
137328,107957
137223,107956
137298,107928
137276,107943
137296,107941
137205,107940
137185,107925
137280,107910
137291,107959
137248,107931
137237,107919
137238,107909
137276,107960
137297,107931
137309,107931
137309,107929
137267,107945
137283,107953
137315,107921
137337,107930
137276,107934
137298,107921
137317,107937
137373,107941
137375,107931
137324,107946
137354,107948
137402,107952
137392,107957
137425,107978
137424,107967
137377,107970
137474,107984
137480,107993
137482,107996
137441,107966
137444,107967
137524,108009
137527,108013
137493,107989
137500,108006
137503,107991
137538,108005
137580,108028
137541,107986
137535,108022
137489,107991
137566,107995
137563,108003
137511,107971
137462,107968
137465,107947
137466,107987
137454,107966
137374,107960
137296,107908
137299,107892
137313,107872
137311,107888
137223,107877
137174,107825
137141,107833
137117,107820
137087,107835
137043,107763
136996,107766
136947,107771
136929,107718
136917,107730
136872,107678
136782,107692
136766,107657
136791,107684
136752,107674
136709,107669
136689,107607
136666,107640
136663,107648
136679,107637
136642,107580
136624,107608
136565,107636
136610,107571
136633,107599
136587,107558
136519,107575
136519,107573
136523,107520
136546,107566
136522,107544
136471,107573
136451,107542
136489,107550
136539,107574
136508,107528
136464,107538
136468,107537
136548,107536
136517,107548
136511,107545
136482,107555
136500,107551
136572,107612
136597,107573
136599,107595
136538,107580
136608,107558
136629,107621
136668,107613
136645,107591
136608,107579
136666,107631
136672,107594
136719,107613
136651,107587
136646,107577
136624,107612
136699,107605
136706,107618
136693,107655
136628,107612
136680,107590
136712,107612
136715,107620
136700,107604
136674,107590
136642,107596
136715,107590
136709,107577
136691,107617
136603,107602
136670,107583
136666,107625
136647,107574
136623,107594
136575,107579
136593,107552
136639,107544
136663,107590
136600,107579
136549,107529
136604,107577
136624,107558
136673,107590
136570,107542
136565,107540
136625,107573
136636,107570
136657,107579
136635,107560
136572,107528
136614,107592
136681,107584
136634,107599
136634,107563
136602,107542
136641,107593
136667,107552
136702,107560
136697,107602
136604,107578
136687,107567
136724,107596
136704,107584
136707,107550
136662,107592
136725,107602
136753,107617
136752,107586
136770,107606
136719,107593
136766,107618
136797,107622
136801,107615
136808,107637
136766,107586
136821,107620
136837,107651
136858,107626
136793,107628
136799,107629
136826,107647
136889,107654
136857,107621
136824,107633
136795,107640
136837,107639
136886,107642
136896,107631
136867,107637
136836,107645
136890,107676
136910,107645
136929,107649
136880,107647
136889,107659
136945,107686
136965,107661
136973,107656
136945,107673
136901,107650
136949,107694
136975,107684
136947,107660
136916,107611
136861,107645
136844,107611
136850,107602
136830,107579
136769,107574
136665,107584
136675,107513
136657,107528
136618,107481
136506,107472
136422,107451
136459,107429
136424,107420
136386,107387
136316,107378
136208,107381
136263,107336
136243,107336
136178,107366
136096,107303
136065,107323
136083,107257
136094,107260
136038,107284
135955,107260
135932,107219
135966,107260
135957,107245
135929,107199
135900,107202
135856,107196
135864,107235
135877,107198
135869,107232
135806,107161
135862,107203
135883,107182
135939,107189
135911,107225
135885,107239
135852,107218
135937,107219
135936,107239
135926,107209
135935,107204
135867,107200
135943,107231
135942,107218
135930,107239
135929,107221
135886,107246
135957,107201
135970,107248
135972,107262
135952,107245
135943,107232
136052,107295
136069,107265
136044,107282
136047,107277
136046,107277
136163,107334
136159,107317
136174,107339
136133,107330
136164,107312
136261,107368
136227,107342
136263,107343
136238,107331
136184,107361
136281,107335
136282,107329
136305,107390
136276,107354
136243,107351
136302,107398
136317,107370
136299,107388
136247,107383
136249,107378
136353,107369
136352,107385
136307,107388
136288,107383
136285,107370
136371,107421
136362,107408
136386,107392
136341,107412
136346,107364
136378,107400
136425,107425
136369,107426
136352,107434
136365,107380
136432,107403
136469,107417
136431,107445
136402,107405
136451,107429
136524,107463
136536,107491
136525,107431
136521,107456
136504,107462
136620,107479
136655,107504
136628,107492
136631,107493
136660,107499
136704,107506
136784,107568
136709,107532
136720,107538
136763,107561
136787,107591
136862,107557
136844,107589
136781,107572
136870,107593
136932,107615
136973,107604
137004,107635
136938,107640
136961,107630
137023,107656
137059,107651
137076,107661
137022,107660
137054,107666
137165,107679
137165,107672
137189,107690
137157,107712
137171,107691
137251,107711
137281,107744
137270,107756
137221,107738
137293,107786
137382,107769
137375,107799
137382,107747
137332,107774
137438,107786
137500,107813
137492,107841
137524,107807
137497,107839
137529,107801
137617,107874
137643,107864
137604,107895
137542,107843
137656,107903
137656,107882
137714,107873
137680,107884
137610,107876
137682,107849
137665,107876
137654,107856
137586,107828
137531,107820
137552,107859
137526,107810
137505,107812
137426,107809
137360,107747
137377,107771
137344,107733
137337,107761
137275,107689
137163,107711
137200,107691
137173,107691
137121,107652
137085,107628
136976,107622
137033,107635
136997,107617
136984,107613
136924,107566
136915,107574
136921,107604
136901,107573
136867,107578
136804,107528
136794,107519
136813,107543
136810,107539
136807,107534
136776,107521
136679,107520
136781,107518
136818,107549
136778,107496
136777,107504
136723,107533
136745,107509
136813,107501
136797,107548
136793,107520
136742,107534
136764,107513
136843,107520
136795,107567
136751,107504
136753,107516
136833,107569
136830,107552
136812,107550
136761,107519
136798,107515
136845,107554
136841,107533
136875,107563
136837,107573
136821,107521
136885,107570
136902,107557
136902,107577
136840,107571
136807,107565
136881,107533
136935,107586
136911,107584
136844,107551
136796,107544
136880,107527
136897,107546
136869,107566
136844,107553
136788,107543
136884,107567
136858,107567
136878,107518
136824,107540
136792,107487
136810,107539
136839,107514
136833,107533
136767,107525
136760,107476
136819,107523
136801,107522
136793,107480
136750,107477
136714,107498
136770,107481
136772,107525
136758,107511
136720,107460
136744,107528
136753,107504
136821,107495
136763,107493
136773,107489
136785,107476
136865,107536
136850,107562
136849,107512
136875,107529
136827,107568
136897,107556
136939,107585
136958,107540
136903,107593
136951,107623
136994,107599
137050,107590
137052,107618
136993,107625
137024,107594
137067,107606
137119,107611
137135,107637
137067,107654
137084,107608
137185,107667
137217,107687
137180,107680
137191,107626
137196,107701
137252,107696
137312,107712
137317,107720
137288,107707
137337,107732
137328,107745
137407,107730
137386,107735
137394,107763
137395,107772
137428,107755
137522,107776
137437,107789
137445,107752
137430,107764
137521,107776
137565,107800
137541,107821
137475,107796
137581,107818
137613,107822
137597,107808
137617,107807
137612,107818
137611,107851
137723,107871
137730,107882
137655,107865
137670,107842
137732,107916
137777,107879
137782,107907
137824,107949
137816,107908
137813,107945
137840,107946
137934,107941
137931,107937
137903,107979
137943,107917
137997,108002
138040,107977
138019,107975
137950,107978
138018,108025
138018,107985
138009,107974
137999,107953
137917,107976
137919,107958
137922,107948
137900,107904
137832,107912
137739,107926
137755,107855
137752,107882
137722,107900
137642,107862
137591,107812
137613,107845
137567,107857
137520,107807
137505,107795
137429,107758
137459,107805
137443,107800
137422,107745
137411,107746
137352,107740
137347,107759
137405,107746
137370,107790
137330,107757
137330,107767
137375,107755
137370,107765
137410,107773
137340,107787
137328,107727
137369,107764
137419,107790
137419,107765
137365,107767
137389,107794
137431,107791
137444,107783
137437,107794
137391,107775
137407,107810
137470,107797
137492,107811
137485,107811
137470,107812
137435,107804
137503,107817
137544,107812
137519,107816
137530,107808
137453,107836
137553,107851
137582,107837
137553,107827
137567,107852
137523,107804
137589,107842
137656,107860
137618,107843
137617,107846
137573,107830
137591,107833
137654,107883
137638,107828
137622,107850
137580,107854
137669,107885
137651,107888
137636,107826
137644,107855
137572,107853
137626,107834
137669,107882
137624,107821
137590,107829
137576,107884
137606,107860
137653,107836
137606,107872
137606,107833
137538,107818
137627,107852
137592,107866
137618,107865
137542,107850
137559,107845
137611,107873
137598,107838
137612,107869
137586,107825
137567,107864
137617,107884
137623,107837
137615,107881
137581,107852
137586,107877
137649,107853
137680,107909
137680,107869
137597,107869
137642,107858
137699,107923
137688,107874
137688,107902
137684,107900
137632,107882
137736,107930
137726,107892
137756,107929
137712,107891
137760,107950
137790,107962
137794,107924
137791,107944
137781,107946
137785,107934
137844,107943
137911,107965
137861,107962
137828,107946
137828,107965
137914,107984
137934,107987
137923,107978
137899,107988
137927,107988
137993,108022
138028,108016
138017,108023
138012,108017
138020,108026
138100,108063
138135,108075
138143,108094
138111,108074
138115,108088
138238,108106
138238,108110
138239,108130
138202,108089
138231,108132
138303,108132
138302,108153
138329,108179
138283,108130
138340,108174
138365,108174
138388,108171
138382,108148
138323,108174
138358,108201
138400,108181
138415,108182
138426,108167
138336,108152
138393,108189
138431,108190
138412,108182
138369,108164
138295,108143
138318,108142
138297,108147
138305,108129
138242,108128
138164,108100
138151,108085
138150,108100
138137,108080
138087,108071
138007,108028
137988,108045
138029,108066
138014,108026
137934,108003
137875,107978
137869,108004
137890,108016
137868,107969
137779,107974
137749,107976
137760,107980
137757,107950
137750,107967
137737,107928
137707,107939
137748,107925
137718,107938
137773,107968
137760,107938
137678,107940
137759,107986
137779,107957
137787,107972
137794,107950
137708,107937
137789,107964
137846,107975
137843,107970
137826,107958
137776,107970
137864,107998
137897,108006
137874,108011
137892,108021
137824,108005
137901,108020
137983,108022
137972,108027
137957,108030
137945,108039
137997,108044
138027,108067
138045,108068
138054,108075
138016,108067
138104,108102
138113,108085
138127,108093
138134,108102
138074,108080
138150,108104
138179,108119
138210,108146
138163,108116
138102,108111
138171,108120
138233,108137
138195,108140
138198,108118
138108,108109
138196,108143
138226,108135
138199,108121
138199,108129
138117,108114
138206,108135
138229,108143
138222,108107
138166,108113
138129,108102
138201,108140
138255,108121
138210,108139
138179,108111
138172,108112
138211,108119
138221,108143
138248,108144
138207,108124
138216,108142
138246,108164
138288,108146
138246,108171
138196,108127
138246,108164
138269,108162
138310,108151
138309,108143
138247,108160
138274,108157
138329,108165
138329,108170
138373,108189
138317,108193
138320,108170
138354,108207
138394,108216
138391,108178
138372,108168
138360,108222
138426,108240
138475,108224
138459,108240
138394,108219
138440,108221
138487,108230
138494,108220
138515,108219
138495,108236
138476,108204
138580,108248
138576,108261
138546,108247
138557,108245
138529,108265
138645,108254
138596,108259
138620,108299
138593,108234
138568,108291
138659,108296
138673,108298
138652,108286
138650,108305
138675,108299
138713,108317
138738,108337
138722,108323
138698,108288
138726,108327
138800,108344
138784,108319
138810,108325
138781,108366
138785,108328
138836,108339
138878,108378
138856,108362
138831,108336
138819,108349
138918,108365
138943,108377
138939,108404
138864,108362
138878,108399
138950,108382
138972,108436
138957,108426
138916,108364
138939,108391
139026,108417
138996,108411
139028,108413
138971,108429
139019,108428
139030,108414
139055,108394
139016,108411
138920,108419
138948,108402
138936,108386
138958,108396
138874,108359
138762,108317
138748,108320
138769,108288
138724,108287
138672,108271
138610,108282
138550,108247
138539,108239
138508,108195
138444,108207
138338,108160
138343,108190
138347,108166
138328,108159
138251,108114
138174,108127
138183,108119
138156,108128
138152,108091
138141,108100
138075,108067
138074,108090
138117,108109
138064,108094
138030,108057
138021,108103
138040,108042
138089,108084
138026,108077
138067,108100
137985,108053
138052,108092
138082,108081
138114,108086
138092,108118
138001,108057
138083,108077
138122,108096
138141,108121
138090,108117
138049,108048
138121,108125
138161,108112
138166,108110
138132,108109
138080,108117
138161,108128
138220,108122
138259,108127
138218,108141
138156,108171
138232,108148
138335,108175
138310,108188
138329,108190
138272,108157
138301,108196
138340,108207
138376,108185
138367,108164
138316,108225
138386,108226
138382,108229
138397,108182
138400,108174
138352,108224
138382,108231
138429,108248
138423,108235
138412,108175
138358,108231
138405,108194
138486,108206
138440,108239
138428,108177
138355,108223
138445,108204
138463,108233
138452,108225
138460,108212
138378,108228
138437,108200
138466,108173
138484,108217
138440,108245
138413,108229
138433,108231
138498,108253
138459,108233
138464,108193
138410,108261
138490,108240
138505,108237
138544,108215
138521,108253
138486,108224
138556,108257
138580,108276
138571,108278
138580,108256
138533,108266
138607,108304
138645,108294
138611,108307
138598,108241
138574,108307
138670,108288
138701,108298
138674,108346
138653,108317
138675,108302
138754,108341
138778,108329
138785,108354
138714,108358
138746,108343
138796,108353
138832,108382
138809,108362
138803,108332
138818,108353
138856,108382
138924,108394
138894,108402
138893,108364
138840,108410
138903,108390
138993,108393
138984,108388
138940,108447
138952,108415
139011,108433
139001,108422
139047,108426
138944,108406
138987,108423
139020,108413
139070,108449
139060,108436
139015,108447
139050,108437
139075,108471
139087,108435
139094,108447
139080,108443
139108,108458
139120,108462
139178,108460
139154,108479
139104,108447
139114,108464
139195,108448
139226,108496
139217,108504
139169,108496
139197,108498
139236,108526
139268,108479
139250,108508
139248,108484
139261,108511
139290,108539
139348,108502
139323,108533
139302,108524
139300,108552
139336,108531
139370,108563
139324,108558
139333,108504
139330,108534
139349,108563
139365,108528
139305,108525
139260,108496
139222,108517
139208,108475
139243,108478
139132,108468
139038,108396
139026,108418
139043,108388
139021,108399
138952,108392
138829,108327
138810,108318
138838,108343
138789,108286
138772,108279
138631,108299
138624,108266
138644,108270
138626,108276
138566,108260
138480,108189
138511,108215
138532,108204
138510,108231
138453,108191
138391,108204
138434,108178
138441,108219
138437,108175
138438,108188
138349,108191
138362,108174
138470,108186
138433,108202
138440,108215
138367,108177
138437,108221
138442,108169
138450,108207
138455,108209
138408,108176
138472,108245
138484,108222
138500,108240
138489,108205
138470,108227
138461,108238
138533,108202
138567,108224
138566,108214
138517,108260
138573,108248
138579,108252
138637,108242
138620,108259
138535,108274
138578,108266
138690,108263
138693,108299
138652,108276
138643,108270
138712,108301
138697,108317
138707,108287
138689,108285
138667,108260
138727,108306
138713,108282
138733,108300
138748,108285
138666,108291
138691,108288
138741,108266
138727,108295
138708,108294
138686,108278
138689,108278
138728,108280
138699,108279
138684,108278
138619,108269
138673,108292
138714,108284
138665,108259
138633,108236
138601,108263
138658,108267
138668,108263
138690,108275
138603,108268
138582,108250
138652,108283
138624,108248
138664,108261
138640,108246
138573,108243
138650,108270
138655,108263
138665,108246
138659,108247
138634,108274
138680,108253
138697,108286
138709,108250
138669,108240
138678,108246
138724,108311
138725,108278
138754,108298
138694,108294
138666,108271
138771,108275
138754,108335
138768,108303
138811,108306
138730,108292
138802,108291
138866,108357
138826,108338
138839,108294
138825,108312
138854,108360
138938,108349
138864,108341
138873,108330
138893,108359
138947,108353
138958,108346
138994,108368
138938,108358
138940,108351
138995,108367
139038,108388
139023,108388
139016,108381
138988,108433
139024,108382
139094,108413
139046,108388
139062,108400
139045,108398
139079,108390
139127,108435
139110,108423
139091,108418
139069,108417
139166,108397
139160,108447
139183,108424
139140,108426
139143,108423
139201,108446
139222,108439
139249,108432
139182,108448
139181,108459
139253,108442
139248,108455
139261,108473
139215,108442
139216,108454
139294,108496
139289,108494
139275,108462
139236,108468
139263,108453
139315,108508
139328,108478
139343,108475
139281,108481
139281,108477
139404,108515
139408,108498
139421,108527
139333,108508
139327,108484
139439,108494
139434,108506
139431,108506
139352,108500
139397,108513
139355,108511
139349,108513
139335,108470
139261,108467
139220,108436
139256,108465
139228,108398
139169,108405
139074,108395
139007,108384
139050,108331
139019,108327
138924,108344
138825,108285
138804,108281
138820,108316
138771,108277
138684,108232
138628,108237
138609,108220
138609,108183
138563,108176
138526,108156
138447,108145
138440,108161
138420,108165
138431,108155
138403,108115
138349,108087
138361,108126
138342,108103
138360,108105
138359,108120
138277,108125
138308,108079
138352,108140
138360,108126
138284,108112
138269,108070
138292,108117
138302,108144
138308,108116
138338,108100
138288,108106
138291,108127
138355,108096
138370,108121
138309,108109
138303,108100
138330,108124
138375,108142
138332,108130
138331,108111
138273,108130
138322,108086
138417,108107
138407,108161
138361,108119
138341,108106
138423,108123
138417,108146
138426,108149
138443,108138
138400,108113
138441,108132
138466,108174
138459,108154
138496,108152
138419,108134
138498,108136
138508,108152
138484,108157
138447,108141
138446,108115
138463,108164
138469,108134
138504,108154
138427,108114
138410,108123
138430,108169
138442,108111
138445,108104
138390,108132
138341,108125
138394,108085
138398,108135
138361,108091
138369,108124
138320,108131
138344,108065
138363,108117
138363,108084
138324,108101
138266,108071
138306,108111
138365,108098
138322,108102
138310,108064
138281,108067
138320,108076
138341,108101
138368,108086
138290,108060
138320,108085
138350,108130
138368,108088
138376,108093
138354,108075
138324,108116
138348,108082
138419,108157
138400,108115
138380,108138
138340,108107
138462,108117
138450,108136
138480,108163
138449,108130
138437,108148
138471,108164
138558,108189
138548,108145
138524,108164
138506,108153
138547,108206
138601,108200
138573,108203
138604,108184
138593,108204
138644,108218
138681,108221
138703,108225
138645,108227
138629,108164
138713,108249
138758,108253
138743,108238
138737,108227
138706,108258
138772,108226
138799,108270
138819,108249
138793,108254
138791,108293
138850,108235
138871,108271
138891,108296
138827,108266
138830,108269
138946,108315
138937,108339
138912,108265
138926,108325
138886,108314
138953,108323
138971,108338
138920,108287
138921,108310
138900,108305
138973,108322
139012,108317
139013,108322
138962,108317
139006,108343
139044,108304
139043,108354
139049,108320
138980,108307
139033,108327
139036,108326
139031,108327
139015,108331
138922,108295
138931,108266
138966,108323
138923,108313
138829,108252
138785,108241
138756,108226
138772,108265
138738,108234
138654,108194
138601,108154
138582,108143
138561,108177
138514,108146
138493,108133
138420,108104
138358,108138
138382,108070
138377,108065
138336,108074
138263,108066
138204,108038
138277,108044
138220,108045
138190,108007
138150,108012
138109,108009
138205,108027
138205,108015
138135,108040
138107,108018
138105,108007
138192,108042
138176,108019
138193,107990
138125,108004
138177,108011
138205,108063
138219,108038
138227,108035
138191,108044
138193,108069
138280,108033
138314,108086
138269,108059
138241,108045
138293,108076
138320,108077
138347,108079
138331,108090
138294,108072
138387,108116
138395,108103
138446,108119
138397,108112
138354,108103
138439,108142
138505,108161
138531,108177
138484,108117
138424,108144
138540,108175
138524,108187
138564,108148
138592,108175
138487,108166
138549,108150
138618,108205
138615,108196
138555,108134
138551,108176
138599,108168
138602,108182
138627,108167
138554,108191
138542,108143
138567,108190
138623,108185
138609,108186
138601,108154
138524,108180
138527,108174
138606,108169
138579,108183
138547,108140
138523,108147
138533,108175
138572,108147
138591,108171
138550,108118
138521,108129
138532,108133
138609,108165
138591,108178
138526,108119
138513,108141
138569,108182
138603,108181
138581,108158
138575,108184
138531,108156
138605,108193
138614,108173
138626,108188
138609,108193
138567,108166
138633,108188
138673,108197
138675,108190
138628,108203
138635,108224
138712,108218
138711,108205
138735,108201
138732,108224
138687,108218
138748,108229
138783,108276
138806,108228
138783,108239
138712,108230
138818,108235
138868,108230
138862,108255
138843,108251
138814,108238
138883,108241
138944,108244
138924,108267
138883,108258
138889,108279
138934,108276
138982,108270
139005,108328
138964,108274
138945,108303
138998,108314
139063,108310
139019,108354
139011,108299
138978,108325
139074,108343
139098,108320
139114,108358
139065,108294
139060,108348
139147,108356
139156,108376
139153,108358
139136,108333
139111,108335
139198,108365
139195,108394
139153,108352
139169,108370
139128,108382
139230,108382
139257,108391
139200,108363
139162,108377
139211,108398
139234,108376
139292,108377
139228,108409
139193,108387
139151,108378
139213,108363
139211,108389
139110,108329
139045,108310
139024,108278
139053,108332
138955,108263
138912,108271
138823,108223
138738,108213
138785,108209
138729,108207
138649,108189
138547,108154
138514,108101
138514,108143
138456,108106
138412,108064
138320,108062
138292,108027
138320,108054
138288,108062
138234,107989
138139,107982
138112,107973
138193,108007
138175,108024
138102,107943
138039,107952
138084,107959
138101,108000
138059,107986
138060,107942
137992,107938
138000,107965
138053,107959
138039,107976
138040,107925
138010,107928
138024,107955
138066,107979
138064,107960
138077,107931
138024,107935
138057,107962
138078,107985
138115,107961
138150,107993
138078,107981
138132,107962
138179,108008
138154,108031
138199,107987
138150,108024
138181,108023
138243,108050
138283,108012
138260,108071
138217,108062
138253,108037
138306,108038
138340,108035
138347,108033
138309,108057
138288,108079
138381,108067
138403,108071
138353,108102
138286,108061
138382,108067
138371,108088
138394,108066
138398,108109
138325,108085
138374,108097
138394,108110
138386,108047
138377,108058
138332,108043
138370,108058
138403,108081
138376,108074
138374,108072
138305,108067
138342,108094
138360,108070
138354,108082
138353,108038
138300,108048
138337,108040
138392,108053
138364,108070
138325,108035
138327,108028
138332,108100
138370,108056
138399,108090
138368,108036
138324,108056
138333,108072
138379,108038
138351,108074
138351,108076
138283,108043
138345,108095
138384,108044
138449,108071
138390,108066
138364,108073
138417,108084
138422,108105
138455,108064
138425,108120
138396,108076
138412,108109
138462,108135
138470,108133
138448,108101
138433,108064
138514,108107
138568,108142
138539,108124
138549,108117
138491,108131
138558,108109
138605,108131
138608,108148
138559,108165
138536,108147
138616,108130
138649,108163
138632,108173
138611,108191
138615,108143
138686,108181
138691,108230
138706,108168
138696,108171
138620,108185
138743,108185
138749,108212
138756,108212
138737,108228
138685,108182
138801,108217
138776,108221
138828,108248
138768,108237
138716,108191
138817,108200
138876,108230
138827,108253
138800,108215
138827,108198
138862,108262
138933,108265
138904,108250
138904,108227
138873,108227
138903,108262
138965,108254
138973,108275
138925,108254
138929,108277
138972,108255
139015,108263
139003,108309
138991,108296
138962,108289
138969,108280
138966,108270
138983,108266
138874,108249
138808,108228
138868,108218
138818,108229
138723,108164
138696,108135
138589,108151
138601,108128
138525,108108
138450,108105
138361,108033
138254,108020
138284,108022
138218,107994
138146,107973
138020,107953
137924,107888
137960,107896
137917,107903
137817,107817
137746,107810
137660,107822
137664,107785
137683,107775
137566,107787
137517,107733
137487,107732
137497,107726
137514,107764
137440,107699
137401,107723
137385,107723
137365,107750
137384,107701
137420,107712
137324,107686
137344,107671
137359,107707
137388,107714
137356,107738
137321,107691
137349,107687
137415,107721
137370,107716
137410,107716
137364,107695
137401,107724
137442,107736
137431,107714
137458,107738
137396,107713
137399,107723
137470,107722
137491,107755
137511,107744
137461,107756
137489,107773
137536,107764
137560,107736
137574,107790
137554,107750
137571,107785
137624,107792
137660,107787
137608,107796
137573,107784
137606,107830
137665,107808
137695,107791
137677,107789
137639,107814
137619,107774
137644,107829
137683,107817
137672,107815
137605,107773
137700,107834
137680,107834
137704,107828
137660,107778
137596,107773
137619,107795
137658,107787
137691,107761
137608,107797
137599,107775
137557,107782
137649,107793
137611,107807
137591,107753
137577,107746
137585,107805
137605,107821
137588,107802
137601,107762
137551,107737
137567,107793
137591,107790
137618,107773
137648,107778
137582,107808
137576,107794
137675,107822
137639,107822
137652,107766
137647,107794
137648,107798
137687,107799
137748,107830
137710,107804
137652,107810
137700,107836
137751,107799
137808,107863
137731,107848
137708,107810
137767,107878
137810,107891
137805,107872
137787,107840
137770,107867
137839,107841
137908,107893
137915,107921
137872,107892
137840,107873
137879,107892
137950,107896
137945,107911
137942,107889
137929,107891
137984,107928
138025,107963
138021,107936
138031,107935
138025,107897
138056,107967
138137,107960
138092,107980
138109,107948
138067,107987
138149,107971
138227,108015
138216,108018
138176,107970
138214,108001
138223,107990
138305,108056
138305,108016
138317,108050
138280,108063
138339,108034
138387,108077
138397,108027
138372,108065
138343,108072
138407,108039
138429,108064
138465,108082
138431,108081
138408,108055
138448,108116
138489,108107
138516,108095
138456,108117
138475,108098
138542,108151
138561,108137
138602,108142
138590,108140
138522,108139
138521,108147
138560,108106
138563,108148
138489,108114
138425,108081
138470,108103
138422,108077
138357,108049
138254,108015
138213,107992
138143,107976
138129,107980
138053,107936
137915,107885
137882,107892
137821,107863
137798,107859
137732,107822
137570,107786
137536,107781
137514,107783
137477,107720
137381,107710
137325,107678
137210,107657
137260,107700
137233,107686
137145,107663
137035,107588
137052,107608
137038,107620
137004,107598
136995,107564
136975,107558
136936,107593
136955,107572
136997,107540
136939,107588
136944,107550
136909,107556
136974,107567
137021,107570
136983,107541
136979,107569
136942,107596
137041,107580
137004,107593
137035,107573
137055,107581
137015,107649
137096,107631
137146,107607
137142,107641
137079,107615
137122,107601
137196,107634
137209,107654
137229,107640
137205,107665
137190,107652
137298,107697
137330,107707
137284,107683
137253,107661
137302,107696
137328,107712
137373,107706
137356,107699
137331,107680
137369,107727
137403,107723
137400,107738
137380,107709
137384,107680
137408,107704
137451,107736
137466,107754
137409,107731
137347,107697
137432,107747
137419,107730
137443,107744
137402,107688
137427,107724
137368,107709
137432,107711
137449,107735
137369,107710
137316,107675
137350,107733
137396,107706
137421,107697
137381,107675
137306,107711
137311,107689
137354,107686
137379,107701
137328,107726
137305,107678
137310,107705
137317,107692
137348,107702
137328,107678
137325,107693
137306,107696
137396,107701
137362,107674
137412,107689
137302,107731
137368,107682
137416,107723
137455,107729
137401,107737
