11111,11111
0,0
80586,80628
99944,100357
99974,100348
99947,100292
99889,100291
99951,100307
99990,100337
99985,100358
99975,100303
99947,100350
99968,100301
100054,100353
100006,100328
100003,100301
99956,100310
99982,100304
100041,100369
100016,100309
99998,100304
99987,100307
99922,100299
100039,100301
99980,100321
99966,100275
99956,100283
99956,100266
99941,100316
99956,100307
99908,100320
99888,100231
99902,100270
99927,100332
99947,100252
99886,100292
99875,100247
99852,100297
99861,100284
99868,100266
99833,100260
99805,100223
99828,100257
99901,100231
99878,100253
99843,100256
99818,100241
99811,100258
99909,100280
99874,100280
99891,100242
99876,100258
99904,100275
99934,100291
99951,100268
99977,100295
99894,100278
99955,100296
100038,100323
99991,100331
100020,100273
99973,100314
100039,100333
100084,100327
100105,100362
100109,100350
100095,100371
100115,100336
100153,100363
100178,100402
100194,100372
100147,100382
100232,100391
100332,100449
100286,100394
100314,100434
100280,100395
100358,100428
100410,100448
100436,100473
100410,100476
100380,100477
100432,100461
100509,100522
100472,100498
100516,100505
100490,100480
100511,100517
100584,100549
100583,100486
100574,100547
100529,100478
100603,100528
100646,100575
100648,100530
100631,100539
100642,100558
100633,100574
100654,100585
100687,100597
100664,100579
100653,100554
100716,100563
100807,100641
100750,100624
100749,100562
100698,100574
100771,100590
100795,100663
100784,100581
100767,100590
100751,100601
100815,100609
100809,100669
100799,100602
100864,100609
100797,100578
100840,100636
100866,100597
100862,100639
100810,100624
100838,100590
100877,100642
100895,100609
100849,100631
100852,100611
100831,100560
98535,99628
98466,99564
97999,99395
97974,99371
98001,99387
98362,99586
98368,99533
98355,99545
98361,99568
98320,99575
98326,99539
98391,99558
98390,99536
98384,99573
98315,99549
98347,99574
98400,99580
98413,99588
98389,99581
98361,99523
98365,99574
98452,99591
98430,99595
98414,99571
98428,99558
98437,99589
98483,99627
98501,99555
98488,99599
98510,99615
98477,99642
98531,99598
98594,99645
98546,99631
98551,99599
98581,99615
98606,99692
98654,99655
98650,99667
98622,99663
98667,99670
98723,99728
98735,99702
98721,99693
98730,99705
98734,99691
98824,99766
98818,99749
98850,99753
98841,99698
98854,99763
98947,99798
98996,99774
98962,99770
98938,99788
99007,99804
99044,99831
99055,99831
99070,99803
99085,99790
99092,99833
99183,99883
99183,99875
99173,99895
99170,99837
99158,99889
99276,99920
99271,99868
99255,99917
99221,99872
99294,99933
99332,99932
99314,99920
99333,99928
99287,99912
99370,99929
99390,99950
99365,99914
99413,99946
99321,99948
99355,99922
99477,99960
99452,99972
99416,99970
99381,99932
99473,99967
99501,100017
99520,99953
99486,99987
99462,99954
99525,100001
99542,100029
99572,100006
99531,100009
99508,99983
99573,99980
99597,100020
99625,100037
99593,100016
99570,99978
99637,100033
99641,100080
99673,100013
99648,100025
99594,100041
99627,100020
99714,100067
99698,100083
99663,100057
99666,100016
99712,100080
99730,100101
99727,100068
99705,100063
99702,100034
99747,100130
99782,100057
99745,100133
99768,100100
99757,100071
99822,100107
99872,100121
99843,100135
99816,100106
99839,100099
99882,100140
99935,100171
99902,100140
99919,100136
99864,100158
99957,100161
100013,100205
99963,100206
99983,100132
99956,100182
100001,100182
100071,100207
100061,100232
100059,100211
100019,100149
100113,100238
100117,100280
100114,100237
100092,100250
100078,100193
100139,100271
100200,100234
100150,100223
100113,100218
100012,100196
100029,100224
99994,100147
99903,100127
99795,100090
99681,100033
99616,100005
99568,100010
99459,99886
99347,99889
99141,99796
99146,99790
99051,99780
98900,99724
98752,99638
98636,99597
98521,99556
98481,99544
98342,99498
98217,99436
98109,99349
98055,99359
97945,99298
97885,99307
97782,99244
97670,99208
97654,99230
97601,99160
97556,99167
97478,99128
97406,99091
97440,99109
97452,99071
97399,99116
97373,99060
97343,99038
97398,99097
97424,99112
97384,99061
97394,99054
97326,99074
97423,99124
97429,99094
97433,99075
97412,99082
97366,99066
97491,99114
97498,99134
97490,99141
97462,99126
97505,99132
97589,99167
97583,99179
97587,99165
97529,99157
97602,99143
97688,99207
97670,99194
97703,99202
97647,99222
97692,99188
97762,99254
97773,99235
97800,99245
97835,99280
97786,99270
97869,99284
97924,99314
97888,99307
97915,99300
97861,99337
97947,99313
98017,99374
98013,99340
97967,99359
98004,99335
98057,99401
98072,99407
98077,99362
98050,99353
98058,99367
98111,99420
98150,99392
98094,99411
98124,99391
98114,99398
98175,99459
98157,99390
98150,99436
98137,99379
98086,99401
98162,99396
98191,99466
98161,99399
98149,99419
98136,99421
98172,99440
98206,99444
98189,99409
98144,99425
98166,99388
98217,99427
98224,99476
98215,99451
98165,99419
98178,99484
98229,99451
98281,99477
98286,99482
98263,99477
98286,99480
98346,99545
98364,99501
98354,99516
98391,99507
98410,99547
98466,99564
98542,99584
98526,99588
98530,99570
98511,99590
98644,99655
98637,99603
98649,99645
98662,99617
98694,99652
98772,99665
98807,99704
98814,99691
98777,99699
98825,99728
98932,99745
98948,99761
98950,99761
98956,99774
99008,99803
99066,99827
99090,99831
99106,99821
99119,99835
99159,99857
99217,99879
99253,99902
99253,99910
99256,99879
99298,99905
99371,99940
99385,99925
99372,99935
99379,99902
99436,99960
99468,99969
99514,99980
99543,99966
99512,100008
99545,99990
99616,100070
99623,100049
99604,100008
99616,99996
99614,100037
99728,100081
99709,100061
99720,100067
99652,100062
99724,100068
99750,100077
99773,100068
99797,100093
99718,100098
99791,100115
99821,100099
99807,100114
99835,100115
99766,100098
99825,100141
99861,100134
99919,100115
99903,100140
99846,100083
99905,100149
99931,100188
99932,100107
99950,100139
99862,100145
99929,100144
99972,100195
99984,100130
99956,100163
99946,100157
99977,100194
100028,100167
100025,100202
99981,100180
99990,100184
100017,100170
100063,100198
100026,100197
100015,100193
100038,100186
100029,100184
100140,100248
100082,100198
100117,100201
100046,100201
100065,100210
100176,100203
100119,100252
100109,100212
100139,100179
100143,100246
100162,100210
100192,100242
100156,100247
100192,100240
100212,100242
100246,100280
100261,100252
100251,100281
100219,100222
100288,100296
100350,100333
100340,100270
100349,100309
100297,100265
100362,100325
100397,100323
100391,100319
100405,100338
100378,100289
100376,100328
100423,100323
100368,100320
100321,100271
100203,100226
100226,100223
100178,100187
100040,100138
99948,100105
99767,100026
99757,100025
99655,99980
99542,99941
99436,99873
99235,99825
99219,99802
99101,99740
98973,99706
98881,99644
98697,99590
98636,99569
98608,99533
98452,99469
98354,99440
98263,99360
98247,99414
98141,99359
98055,99355
97980,99288
97872,99256
97899,99242
97883,99257
97803,99184
97780,99166
97696,99180
97692,99173
97750,99191
97688,99196
97661,99178
97649,99115
97689,99209
97681,99167
97727,99209
97681,99161
97686,99144
97738,99210
97743,99186
97756,99203
97734,99192
97728,99180
97800,99203
97856,99251
97814,99180
97847,99220
97826,99213
97884,99266
97907,99233
97895,99275
97878,99251
97893,99220
97957,99291
97974,99302
97973,99292
97990,99281
97947,99277
98032,99328
98093,99310
98069,99331
98061,99346
98045,99320
98154,99360
98182,99337
98134,99336
98152,99338
98124,99361
98201,99364
98209,99402
98224,99350
98149,99356
98127,99339
98228,99387
98206,99350
98237,99382
98181,99373
98137,99361
98211,99395
98222,99394
98183,99372
98183,99342
98161,99331
98232,99382
98185,99409
98158,99378
98189,99363
98127,99324
98199,99380
98206,99376
98153,99339
98168,99338
98193,99345
98236,99403
98217,99407
98252,99397
98224,99383
98193,99375
98252,99386
98312,99405
98269,99381
98263,99405
98297,99378
98367,99432
98376,99450
98363,99459
98343,99430
98356,99446
98462,99505
98484,99487
98456,99464
98448,99495
98445,99477
98590,99524
98574,99503
98584,99553
98590,99523
98599,99594
98669,99598
98741,99589
98715,99629
98719,99613
98734,99619
98813,99654
98854,99641
98858,99690
98832,99654
98906,99659
98991,99711
98946,99696
99018,99707
99017,99746
99051,99708
99139,99771
99138,99796
99160,99777
99158,99738
99161,99804
99269,99827
99293,99820
99305,99831
99312,99853
99289,99856
99396,99891
99462,99919
99424,99904
99393,99889
99423,99904
99510,99907
99522,99952
99487,99938
99518,99918
99545,99938
99593,99985
99576,99939
99626,99998
99584,99976
99599,99972
99681,100000
99680,99996
99639,100002
99665,99992
99702,99985
99758,100025
99763,100032
99763,100000
99732,100033
99737,99993
99844,100053
99824,100034
99807,100056
99814,100059
99862,100030
99902,100109
99860,100053
99880,100088
99887,100079
99902,100067
99967,100114
99918,100106
99967,100077
99943,100102
99919,100125
100025,100155
99988,100095
99991,100140
99998,100098
99993,100153
100062,100144
100065,100148
100050,100159
100037,100109
100077,100180
100150,100183
100103,100192
100119,100168
100143,100202
100171,100170
100252,100238
100247,100203
100222,100213
100182,100180
100303,100241
100302,100293
100316,100242
100305,100271
100289,100222
100317,100270
100369,100264
100351,100290
100380,100275
100339,100227
100350,100271
100391,100268
100304,100213
100277,100195
100158,100163
100132,100120
100104,100143
99974,100058
99872,100030
99680,99983
99652,99930
99578,99923
99436,99835
99332,99831
99108,99693
99092,99713
98970,99665
98847,99624
98719,99541
98575,99498
98553,99448
98452,99477
98344,99368
98232,99331
98101,99290
98103,99313
98048,99288
97907,99216
97865,99206
97806,99168
97774,99152
97765,99168
97715,99151
97629,99112
97601,99077
97648,99101
97646,99115
97608,99126
97549,99090
97557,99056
97582,99109
97599,99113
97607,99103
97581,99105
97547,99057
97607,99141
97655,99128
97652,99095
97656,99157
97627,99086
97691,99143
97730,99138
97716,99150
97726,99138
97692,99161
97780,99152
97854,99204
97772,99165
97800,99208
97763,99173
97880,99214
97875,99253
97904,99211
97912,99233
97879,99210
97972,99292
98008,99261
98025,99315
97984,99283
98058,99250
98083,99327
98118,99313
98143,99361
98127,99330
98098,99294
98216,99345
98223,99366
98189,99320
98178,99315
98156,99320
98257,99386
98215,99415
98198,99366
98188,99345
98162,99324
98212,99384
98214,99328
98222,99378
98160,99337
98189,99331
98202,99390
98241,99363
98210,99387
98183,99338
98143,99346
98211,99379
98247,99386
98195,99350
98173,99341
98161,99345
98227,99377
98225,99382
98196,99359
98188,99327
98182,99377
98225,99353
98284,99394
98243,99360
98240,99373
98243,99391
98291,99390
98366,99403
98326,99429
98331,99418
98322,99406
98409,99436
98430,99481
98397,99422
98435,99477
98409,99443
98451,99474
98527,99474
98499,99504
98489,99466
98509,99496
98559,99532
98620,99549
98577,99520
98570,99494
98626,99553
98685,99561
98705,99565
98672,99600
98717,99557
98724,99594
98780,99644
98812,99605
98808,99662
98761,99605
98815,99624
98909,99642
98900,99688
98930,99656
98913,99644
98928,99666
99042,99697
99020,99710
99023,99716
99012,99668
99011,99710
99133,99728
99116,99754
99153,99751
99070,99744
99098,99771
99178,99778
99216,99793
99213,99784
99224,99757
99197,99794
99266,99830
99307,99823
99290,99824
99254,99780
99344,99838
99347,99841
99346,99838
99383,99885
99359,99807
99400,99872
99439,99868
99511,99863
99488,99893
99449,99873
99513,99870
99550,99954
99567,99909
99563,99922
99553,99888
99575,99952
99628,99961
99669,99933
99655,99974
99565,99928
99657,99976
99706,99981
99710,99989
99735,99985
99668,99968
99726,99952
99804,100031
99763,100017
99756,100029
99746,99971
99766,100050
99800,100036
99814,100023
99830,100064
99817,100019
99829,100031
99905,100079
99940,100088
99914,100069
99824,100065
99948,100064
100003,100104
99946,100085
99963,100084
99917,100067
99991,100095
100016,100135
99990,100109
100035,100095
99992,100134
100037,100130
100089,100146
100096,100115
100131,100172
100072,100161
100161,100140
100180,100207
100214,100173
100196,100200
100198,100162
100195,100215
100291,100226
100269,100242
100261,100223
100268,100202
100321,100229
100334,100240
100312,100244
100280,100212
100256,100183
100245,100194
100182,100152
100071,100114
99989,100054
99874,100019
99810,99984
99709,99950
99576,99921
99463,99822
99317,99783
99256,99772
99143,99698
98982,99631
98859,99616
98718,99511
98672,99517
98548,99457
98442,99406
98297,99376
98187,99304
98112,99302
98047,99245
97979,99224
97884,99175
97776,99148
97797,99128
97739,99152
97686,99086
97640,99050
97562,99041
97614,99089
97571,99095
97549,99018
97501,99025
97443,99022
97534,99058
97514,99056
97550,99021
97514,99053
97468,99054
97572,99074
97571,99082
97562,99056
97562,99043
97560,99074
97598,99055
97635,99107
97638,99058
97650,99105
97585,99113
97699,99125
97682,99143
97745,99125
97710,99157
97646,99078
97786,99167
97784,99154
97745,99129
97758,99164
97787,99107
97808,99204
97879,99191
97870,99176
97860,99165
97832,99154
97961,99244
97961,99231
97977,99194
97937,99221
97930,99240
98025,99263
98064,99253
98029,99225
98059,99277
98009,99265
98084,99266
98095,99263
98068,99281
98001,99256
98015,99223
98045,99284
98086,99262
98061,99238
98037,99261
97979,99240
98078,99283
98064,99275
98030,99231
98000,99250
98030,99221
98013,99267
98053,99268
98059,99253
97995,99256
97959,99227
98068,99284
98048,99257
98008,99238
98053,99239
97995,99261
98057,99290
98094,99273
98079,99255
98059,99240
98058,99280
98103,99273
98113,99269
98134,99270
98064,99286
98113,99242
98139,99337
98171,99297
98165,99337
98139,99319
98178,99319
98254,99338
98243,99335
98274,99350
98228,99321
98261,99366
98327,99364
98368,99400
98377,99395
98300,99383
98303,99408
98411,99431
98417,99432
98425,99450
98390,99410
98457,99412
98517,99474
98551,99469
98554,99436
98547,99468
98523,99447
98610,99495
98645,99504
98615,99522
98627,99473
98647,99536
98761,99552
98748,99534
98743,99545
98749,99565
98752,99528
98828,99601
98811,99581
98852,99604
98831,99579
98853,99565
98946,99622
98915,99660
98943,99599
98925,99606
98965,99606
98999,99684
99000,99635
99049,99689
98974,99638
98995,99653
99099,99716
99116,99684
99062,99697
99084,99651
99090,99711
99177,99714
99180,99692
99149,99705
99178,99678
99149,99744
99222,99738
99267,99741
99204,99706
99234,99718
99204,99741
99265,99741
99301,99749
99287,99754
99266,99738
99272,99751
99370,99800
99332,99797
99349,99748
99322,99761
99352,99810
99389,99803
99422,99796
99376,99799
99403,99769
99430,99813
99483,99869
99471,99836
99494,99826
99450,99829
99480,99832
99571,99900
99565,99848
99544,99865
99549,99853
99601,99873
99635,99917
99639,99883
99650,99911
99626,99871
99661,99904
99710,99971
99673,99917
99724,99941
99686,99912
99749,99908
99818,99971
99781,99987
99813,99972
99779,99970
99828,99985
99899,100035
99905,100005
99850,100002
99841,99962
99908,100016
99959,100020
99978,100060
99938,100051
99917,99980
100020,100084
100013,100077
100022,100030
100012,100068
99900,100015
99960,99994
99911,100038
99792,99962
99740,99931
99577,99832
99539,99842
99432,99761
99386,99761
99210,99691
99068,99595
98982,99612
98889,99543
98700,99474
98615,99431
98428,99337
98406,99363
98265,99311
98117,99225
98035,99177
97850,99136
97831,99073
97747,99076
97615,99026
97544,98986
97400,98964
97367,98904
97334,98885
97280,98876
97211,98838
97091,98831
97139,98785
97097,98836
97043,98776
97027,98799
96965,98745
96960,98782
96980,98752
96995,98800
96973,98755
96933,98743
96994,98761
97046,98807
96987,98798
97024,98781
97012,98753
97048,98801
97077,98846
97045,98787
97107,98798
97045,98839
97111,98831
97147,98843
97109,98862
97128,98827
97112,98840
97168,98824
97208,98844
97180,98824
97126,98833
97175,98815
97202,98898
97249,98879
97255,98895
97192,98880
97223,98844
97311,98924
97302,98888
97339,98909
97319,98894
97295,98892
97357,98945
97377,98917
97428,98945
97351,98959
97314,98934
97428,98959
97420,98972
97413,98920
97386,98950
97366,98889
97440,98955
97456,98948
97408,98942
97398,98911
97359,98920
97372,98918
97412,98932
97406,98938
97309,98908
97288,98925
97377,98892
97369,98936
97334,98891
97305,98865
97252,98887
97344,98938
97314,98936
97329,98875
97282,98881
97304,98868
97360,98931
97307,98906
97346,98899
97290,98903
97312,98892
97359,98936
97392,98941
97365,98893
97359,98927
97325,98905
97420,98938
97459,98948
97410,98963
97422,98945
97458,98942
97525,98988
97563,98979
97547,99026
97546,99012
97570,98996
97673,99032
97665,99081
97680,99036
97653,99033
97669,99062
97765,99068
97833,99113
97773,99077
97783,99079
97810,99097
97927,99162
97900,99179
97959,99141
97913,99153
97925,99138
98014,99194
98043,99192
98049,99208
98030,99213
98076,99192
98113,99253
98154,99245
98147,99267
98106,99232
98178,99224
98204,99291
98245,99282
98235,99286
98215,99262
98255,99283
98276,99294
98358,99310
98297,99302
98296,99301
98345,99338
98362,99360
98382,99298
98406,99363
98375,99337
98446,99356
98497,99391
98462,99362
98477,99381
98450,99378
98503,99356
98533,99406
98558,99404
98539,99394
98499,99402
98565,99387
98639,99418
98643,99409
98628,99441
98576,99440
98633,99388
98684,99496
98688,99452
98645,99460
98654,99439
98669,99483
98758,99486
98740,99484
98730,99443
98706,99466
98751,99499
98802,99500
98804,99491
98757,99496
98750,99494
98796,99516
98847,99511
98803,99499
98802,99500
98803,99484
98866,99516
98891,99553
98887,99536
98860,99527
98856,99532
98929,99530
98938,99580
98943,99538
98944,99573
98934,99554
98967,99572
99004,99611
98980,99565
99013,99592
98978,99563
99053,99604
99101,99626
99060,99612
99105,99616
99047,99598
99097,99660
99118,99659
99157,99598
99124,99645
99113,99621
99168,99637
99210,99657
99211,99694
99190,99638
99153,99654
99227,99627
99261,99693
99161,99672
99160,99636
99085,99608
99055,99565
99005,99569
98927,99491
98792,99512
98660,99408
98659,99396
98565,99354
98366,99263
98270,99257
98089,99178
98039,99126
97914,99084
97788,99054
97605,98972
97455,98885
97430,98894
97312,98826
97162,98770
97054,98719
96879,98683
96845,98627
96757,98624
96695,98587
96617,98530
96485,98504
96445,98501
96399,98482
96382,98444
96295,98454
96193,98380
96278,98400
96254,98399
96195,98378
96205,98383
96134,98331
96230,98406
96189,98378
96216,98366
96198,98407
96158,98351
96249,98413
96266,98405
96230,98400
96289,98390
96261,98421
96291,98410
96346,98443
96335,98438
96351,98454
96306,98430
96438,98486
96448,98465
96428,98444
96402,98472
96428,98474
96489,98463
96520,98499
96524,98512
96533,98503
96520,98499
96590,98518
96628,98543
96646,98557
96601,98560
96609,98506
96689,98596
96718,98607
96700,98598
96687,98574
96716,98571
96756,98616
96804,98608
96780,98617
96748,98602
96767,98625
96816,98637
96811,98656
96813,98601
96810,98634
96757,98615
96830,98648
96810,98647
96837,98626
96816,98660
96789,98598
96842,98635
96840,98628
96826,98662
96825,98589
96786,98636
96785,98628
96838,98634
96797,98647
96762,98591
96781,98613
96808,98645
96825,98638
96805,98623
96816,98632
96774,98654
96840,98634
96864,98672
96862,98645
96866,98655
96830,98666
96905,98673
96916,98700
96909,98685
96903,98670
96932,98672
96998,98710
97017,98736
96978,98691
96998,98726
96979,98701
97102,98741
97101,98763
97080,98731
97089,98780
97057,98760
97181,98790
97225,98814
97206,98814
97177,98821
97182,98788
97339,98863
97317,98824
97317,98857
97279,98875
97327,98836
97389,98905
97445,98873
97409,98917
97409,98876
97408,98887
97501,98936
97538,98941
97463,98913
97526,98945
97526,98944
97577,98991
97596,98971
97619,98999
97569,98935
97611,98988
97713,99027
97678,98975
97732,99039
97700,98983
97722,99039
97752,99057
97765,99039
97798,99032
97770,99053
97772,99022
97856,99094
97878,99052
97838,99072
97824,99056
97882,99067
97926,99127
97904,99099
97927,99111
97921,99114
97951,99093
98002,99145
98026,99131
98021,99162
97997,99134
97994,99151
98120,99204
98045,99181
98116,99175
98003,99147
98094,99198
98154,99209
98144,99233
98114,99160
98102,99200
98109,99185
98192,99212
98154,99196
98169,99210
98129,99185
98143,99195
98262,99249
98226,99234
98215,99192
98169,99209
98239,99247
98271,99237
98272,99254
98281,99237
98240,99228
98295,99270
98330,99266
98323,99274
98309,99274
98276,99249
98339,99278
98376,99292
98353,99274
98378,99335
98375,99259
98415,99325
98442,99309
98437,99318
98456,99324
98431,99299
98491,99364
98514,99363
98537,99364
98517,99343
98508,99297
98564,99397
98599,99379
98598,99424
98650,99415
98551,99388
98679,99388
98686,99465
98700,99426
98693,99449
98645,99408
98661,99442
98662,99389
98627,99384
98519,99355
98415,99271
98340,99286
98310,99219
98173,99174
98081,99144
97885,99078
97829,99044
97781,99033
97588,98961
97509,98912
97307,98834
97263,98789
97171,98797
97033,98702
96908,98624
96801,98612
96690,98611
96638,98554
96527,98521
96480,98496
96306,98430
96325,98394
96254,98419
96194,98355
96106,98288
96065,98284
96054,98317
96064,98300
96013,98292
95977,98286
95923,98251
95960,98261
95973,98311
95941,98247
95981,98278
95903,98258
95974,98287
95979,98298
95967,98265
95978,98305
95948,98241
96039,98310
96058,98304
96044,98327
96075,98286
96065,98333
96099,98345
96175,98368
96134,98338
96182,98320
96135,98380
96204,98354
96257,98413
96229,98386
96256,98371
96257,98403
96302,98435
96348,98426
96362,98457
96361,98422
96372,98461
96420,98455
96490,98479
96477,98516
96463,98452
96489,98504
96537,98525
96542,98554
96560,98514
96520,98544
96530,98492
96575,98562
96588,98565
96553,98533
96526,98530
96527,98493
96599,98558
96581,98541
96551,98538
96526,98509
96488,98494
96568,98526
96546,98561
96493,98520
96510,98504
96467,98482
96522,98513
96493,98513
96424,98488
96431,98497
96422,98485
96481,98489
96452,98527
96408,98429
96384,98492
96378,98448
96407,98482
96425,98493
96420,98482
96356,98456
96404,98470
96426,98511
96450,98493
96453,98514
96431,98482
96420,98477
96492,98552
96502,98523
96507,98505
96453,98552
96489,98521
96590,98566
96561,98571
96565,98543
96545,98558
96583,98555
96632,98616
96624,98574
96667,98591
96661,98595
96664,98612
96720,98635
96767,98626
96753,98672
96755,98622
96789,98640
96864,98716
96879,98701
96872,98673
96838,98689
96878,98673
96966,98733
96967,98729
96968,98743
97004,98717
97027,98771
97063,98763
97142,98785
97095,98789
97069,98781
97128,98759
97163,98855
97213,98822
97182,98845
97208,98798
97207,98821
97264,98851
97279,98855
97280,98877
97231,98834
97278,98879
97360,98873
97360,98915
97348,98888
97310,98865
97364,98891
97429,98909
97396,98905
97394,98958
97397,98900
97461,98953
97491,98975
97459,98960
97502,98951
97452,98935
97511,98961
97535,98968
97530,98964
97513,98960
97490,98961
97524,98978
97587,99005
97546,98976
97537,98977
97490,98957
97511,98972
97568,98999
97564,98981
97530,98993
97528,98961
97554,98999
97563,99012
97581,98971
97566,98992
97557,98974
97598,99000
97594,99005
97599,99006
97609,98988
97564,98989
97601,98983
97648,99042
97655,99017
97679,99047
97607,99001
97679,99007
97738,99089
97720,99067
97736,99025
97697,99061
97732,99063
97813,99093
97762,99079
97815,99082
97750,99050
97751,99084
97833,99094
97763,99063
97761,99064
97633,99013
97694,99018
97613,98992
97502,98935
97392,98912
97276,98861
97202,98815
97109,98803
96938,98714
96871,98662
96656,98575
96600,98569
96499,98513
96339,98460
96234,98370
96040,98318
95962,98300
95893,98263
95753,98195
95619,98174
95482,98082
95406,98076
95387,98051
95243,98007
95169,97985
95058,97904
95003,97904
94981,97866
94887,97855
94799,97796
94740,97791
94747,97776
94689,97755
94657,97722
94627,97752
94594,97709
94635,97698
94612,97722
94611,97690
94592,97727
94570,97674
94592,97709
94645,97679
94639,97706
94580,97690
94595,97700
94674,97699
94679,97736
94654,97723
94697,97716
94692,97727
94727,97747
94787,97778
94729,97751
94737,97768
94735,97756
94799,97773
94839,97773
94852,97813
94821,97769
94825,97772
94936,97814
94916,97831
94948,97798
94950,97873
94935,97819
95054,97891
95051,97871
95057,97919
95094,97876
95076,97887
95120,97932
95159,97927
95174,97927
95151,97934
95107,97896
95229,97937
95196,97961
95199,97945
95157,97940
95173,97921
95192,97995
95211,97961
95216,97958
95195,97924
95169,97933
95183,97960
95222,97974
95185,97976
95190,97942
95134,97917
95214,97962
95220,97942
95238,97964
95163,97949
95154,97962
95247,97992
95230,97994
95225,98010
95231,97951
95247,98023
95303,98009
95316,98041
95293,98018
95316,98058
95331,98050
95413,98033
95399,98095
95433,98065
95409,98049
95409,98094
95479,98072
95521,98133
95494,98102
95511,98152
95533,98123
95630,98161
95637,98200
95651,98163
95629,98186
95694,98207
95787,98219
95786,98266
95794,98257
95840,98251
95851,98282
95915,98324
95982,98315
95993,98361
96008,98305
96065,98363
96131,98415
96170,98389
96148,98416
96178,98404
96197,98464
96296,98456
96298,98491
96347,98509
96342,98496
96343,98511
96435,98541
96435,98558
96461,98564
96493,98555
96509,98600
96601,98600
96597,98621
96609,98669
96600,98633
96691,98628
96724,98706
96760,98681
96746,98703
96734,98702
96804,98694
96853,98697
96871,98740
96901,98753
96859,98713
96956,98768
96985,98809
97007,98777
96977,98779
96973,98801
97001,98831
97094,98810
97062,98835
97093,98847
97051,98812
97102,98841
97143,98863
97162,98823
97147,98866
97106,98887
97162,98879
97225,98891
97204,98899
97225,98882
97191,98876
97265,98908
97337,98950
97287,98949
97250,98892
97291,98947
97290,98943
97348,98930
97340,98941
97389,98987
97305,98907
97346,98963
97408,98955
97406,98969
97379,98978
97359,98956
97402,98979
97450,98989
97429,99013
97421,98992
97380,98988
97420,99021
97522,99016
97492,99047
97476,99015
97437,98976
97506,99019
97546,99084
97516,99036
97555,99025
97526,99055
97557,99054
97656,99060
97625,99090
97601,99071
97637,99059
97665,99103
97709,99099
97699,99115
97684,99106
97670,99104
97662,99100
97672,99092
97647,99084
97570,99051
97455,99013
97423,98975
97384,98984
97252,98906
97145,98841
96977,98797
96908,98740
96853,98740
96672,98647
96510,98608
96387,98532
96277,98517
96190,98467
96045,98396
95930,98379
95770,98309
95685,98259
95644,98226
95496,98194
95383,98099
95272,98072
95237,98071
95204,98058
95068,98012
95020,97996
94909,97902
94911,97923
94883,97893
94793,97855
94763,97840
94719,97877
94706,97853
94739,97854
94679,97846
94691,97837
94650,97814
94748,97873
94723,97827
94728,97850
94732,97856
94696,97826
94774,97875
94798,97904
94779,97854
94822,97931
94789,97908
94869,97893
94903,97915
94905,97933
94868,97909
94907,97951
94981,97932
94994,97980
95003,97980
94965,97931
95012,97962
95028,98034
95070,98024
95063,97996
95103,98005
95040,98015
95120,97999
95181,98068
95172,98038
95149,98059
95167,98021
95249,98066
95246,98049
95276,98088
95205,98084
95240,98082
95287,98101
95284,98104
95262,98106
95264,98115
95256,98097
95304,98126
95314,98081
95309,98116
95301,98114
95245,98103
95318,98095
95311,98157
95303,98112
95299,98066
95277,98108
95282,98107
95321,98121
95304,98120
95231,98108
95251,98054
95300,98122
95274,98062
95223,98082
95236,98064
95250,98085
95255,98103
95250,98121
95236,98078
95240,98077
95250,98077
95282,98157
95316,98099
95342,98125
95289,98151
95356,98144
95410,98158
95393,98182
95424,98140
95417,98200
95417,98156
95499,98238
95548,98210
95509,98212
95494,98249
95554,98197
95603,98283
95653,98275
95631,98281
95631,98278
95661,98296
95730,98303
95775,98317
95794,98328
95803,98320
95772,98350
95900,98356
95899,98431
95912,98365
95925,98396
95964,98383
95986,98406
96056,98441
96028,98465
96049,98414
96062,98461
96159,98475
96146,98469
96209,98485
96134,98504
96226,98519
96318,98570
96243,98543
96311,98525
96257,98546
96356,98558
96386,98609
96399,98584
96408,98579
96392,98582
96436,98601
96479,98631
96514,98632
96494,98635
96486,98636
96511,98654
96600,98676
96581,98661
96577,98664
96569,98643
96598,98697
96673,98712
96664,98689
96670,98738
96672,98695
96681,98715
96746,98731
96729,98736
96747,98742
96743,98727
96736,98746
96804,98771
96804,98760
96783,98759
96809,98758
96818,98776
96898,98808
96849,98797
96854,98764
96853,98794
96889,98820
96929,98806
96931,98816
96927,98851
96902,98768
96967,98839
96987,98859
96983,98817
97032,98876
96968,98797
97038,98841
97075,98864
97088,98901
97040,98892
97004,98855
97080,98892
97126,98921
97083,98908
97120,98886
97099,98890
97171,98947
97161,98898
97180,98930
97205,98949
97136,98905
97265,98966
97262,98999
97247,98991
97265,98960
97199,98942
97335,99001
97328,99032
97332,99018
97356,98989
97350,99025
97359,99042
97450,99030
97415,99034
97427,99017
97405,99036
97450,99080
97477,99038
97418,99055
97343,99035
97298,98971
97284,98963
97242,98925
97137,98897
96990,98863
96877,98740
96791,98749
96684,98683
96547,98592
96438,98591
96187,98486
96158,98484
96018,98427
95894,98369
95752,98315
95564,98212
95508,98226
95388,98132
95275,98113
95155,98040
94995,97995
94946,97981
94848,97963
94757,97875
94639,97820
94525,97805
94520,97790
94451,97779
94415,97710
94340,97726
94285,97691
94285,97670
94303,97670
94282,97682
94229,97651
94248,97637
94287,97711
94302,97669
94325,97645
94326,97703
94338,97641
94391,97724
94446,97710
94461,97715
94522,97730
94466,97780
94581,97785
94618,97793
94636,97800
94633,97805
94641,97811
94736,97832
94735,97894
94738,97850
94782,97899
94819,97874
94860,97905
94895,97922
94932,97925
94932,97962
94930,97943
95023,97994
95102,97987
95066,98012
95038,97982
95095,98031
95175,98060
95177,98036
95174,98094
95165,98021
95181,98099
95266,98060
95268,98102
95261,98089
95256,98050
95262,98080
95308,98094
95306,98128
95314,98088
95298,98120
95312,98092
95336,98131
95336,98118
95325,98089
95267,98128
95306,98090
95356,98135
95368,98155
95296,98117
95288,98100
95299,98108
95323,98114
95351,98089
95347,98105
95269,98103
95299,98090
95329,98107
95357,98125
95315,98135
95283,98122
95333,98105
95370,98149
95355,98113
95379,98124
95345,98130
95359,98112
95441,98167
95458,98161
95474,98146
95433,98157
95468,98197
95541,98183
95582,98246
95557,98218
95571,98200
95588,98235
95692,98284
95708,98290
95679,98300
95693,98254
95730,98261
95838,98332
95817,98329
95847,98366
95818,98309
95885,98378
95939,98381
95992,98402
95975,98410
95976,98364
96051,98394
96116,98477
96147,98467
96148,98466
96123,98427
96212,98518
96232,98495
96271,98532
96258,98525
96268,98518
96317,98538
96411,98620
96434,98563
96426,98622
96390,98605
96437,98612
96516,98631
96538,98630
96551,98630
96513,98643
96573,98662
96656,98696
96676,98706
96678,98711
96655,98662
96730,98749
96739,98752
96789,98743
96761,98752
96790,98728
96807,98759
96895,98778
96849,98756
96894,98768
96895,98757
96917,98850
96955,98797
96982,98843
96962,98791
96933,98813
96982,98809
96980,98843
97015,98882
97019,98836
96949,98810
97008,98883
97072,98870
97054,98902
97065,98851
97074,98874
97124,98895
97138,98946
97132,98863
97174,98898
97087,98920
97181,98894
97227,98950
97218,98957
97239,98940
97159,98887
97262,98969
97270,98969
97312,98948
97266,98962
97206,98963
97253,98959
97309,98988
97328,98962
97294,98989
97291,98960
97311,98988
97376,98998
97349,99021
97372,98983
97365,98961
97430,99044
97438,99048
97433,99011
97467,99046
97408,99006
97501,99084
97535,99062
97473,99064
97499,99030
97513,99062
97566,99076
97616,99120
97579,99065
97529,99069
97468,99010
97499,99083
97459,99007
97391,98973
97249,98922
97158,98873
97100,98849
97023,98839
96864,98727
96699,98697
96554,98588
96476,98592
96363,98531
96180,98467
96043,98395
95899,98367
95827,98311
95700,98240
95584,98234
95430,98152
95318,98114
95238,98092
95184,98034
95014,97969
94903,97891
94764,97900
94745,97864
94678,97829
94617,97801
94500,97774
94431,97715
94470,97732
94435,97755
94382,97715
94350,97685
94285,97664
94341,97659
94372,97711
94338,97656
94363,97685
94303,97638
94412,97706
94418,97732
94453,97684
94459,97726
94449,97702
94533,97731
94566,97768
94587,97754
94608,97779
94592,97751
94696,97808
94752,97830
94756,97837
94719,97843
94757,97848
94859,97900
94882,97898
94931,97912
94916,97914
94919,97903
95044,97947
95049,97970
95049,97971
95060,97957
95039,97977
95156,97973
95179,98032
95171,98004
95120,98026
95154,98019
95260,98043
95226,98085
95270,98035
95215,98049
95215,98070
95286,98084
95311,98094
95316,98089
95308,98067
95256,98059
95365,98093
95348,98122
95301,98098
95285,98036
95300,98107
95363,98108
95329,98097
95315,98070
95322,98085
95253,98044
95332,98095
95311,98051
95249,98049
95263,98042
95252,98055
95307,98054
95277,98075
95290,98067
95214,98029
95235,98074
95328,98049
95308,98096
95335,98087
95271,98043
95319,98084
95335,98128
95388,98106
95364,98126
95331,98059
95391,98120
95446,98147
95468,98109
95510,98164
95414,98144
95497,98153
95548,98175
95573,98183
95581,98202
95540,98193
95625,98210
95675,98261
95697,98237
95725,98243
95686,98248
95763,98269
95843,98322
95849,98279
95834,98311
95867,98308
95898,98341
95996,98366
95992,98378
96035,98381
96017,98366
96038,98396
96110,98431
96157,98437
96168,98435
96151,98442
96218,98472
96241,98503
96256,98456
96245,98499
96269,98496
96347,98506
96361,98555
96393,98521
96356,98545
96386,98512
96414,98559
96518,98598
96500,98577
96492,98576
96443,98565
96543,98630
96587,98642
96582,98584
96588,98650
96568,98606
96619,98660
96624,98640
96670,98675
96655,98647
96622,98616
96646,98660
96718,98661
96725,98711
96691,98664
96672,98642
96735,98693
96748,98664
96800,98717
96763,98696
96720,98651
96795,98723
96819,98724
96778,98673
96802,98684
96727,98689
96798,98728
96818,98743
96815,98698
96858,98727
96770,98741
96840,98729
96864,98740
96874,98784
96845,98746
96831,98711
96897,98757
96924,98766
96924,98736
96950,98778
96913,98770
96964,98772
96960,98800
96981,98799
96938,98784
96957,98748
96995,98817
97026,98823
97004,98802
97021,98795
96966,98780
97000,98800
96981,98756
96895,98771
96845,98704
96737,98637
96733,98687
96592,98641
96488,98580
96371,98496
96214,98458
96133,98395
96031,98331
95878,98302
95718,98231
95576,98150
95535,98135
95444,98140
95288,98022
95168,97998
95021,97934
94998,97904
94862,97893
94786,97817
94630,97753
94499,97720
94446,97699
94412,97651
94275,97587
94224,97565
94066,97547
94079,97509
94048,97498
94019,97503
93940,97434
93870,97398
93954,97442
93911,97457
93921,97416
93889,97407
93837,97382
93947,97424
93939,97448
93938,97403
93943,97417
93929,97412
94001,97464
94063,97439
94023,97471
94038,97465
94061,97459
94170,97520
94175,97514
94210,97555
94155,97526
94221,97522
94277,97573
94313,97566
94303,97561
94360,97579
94306,97620
94429,97628
94463,97628
94460,97667
94495,97642
94468,97707
94599,97698
94614,97746
94607,97726
94608,97706
94598,97720
94697,97764
94725,97765
94716,97780
94684,97754
94686,97747
94781,97793
94761,97772
94753,97765
94709,97777
94720,97762
94820,97816
94803,97783
94795,97793
94736,97786
94708,97776
94766,97784
94748,97763
94742,97782
94709,97736
94719,97782
94744,97766
94739,97764
94717,97740
94650,97760
94680,97722
94753,97778
94674,97739
94685,97739
94636,97708
94663,97754
94726,97768
94686,97790
94730,97749
94674,97741
94713,97767
94745,97783
94769,97756
94728,97794
94732,97777
94781,97780
94826,97806
94851,97830
94851,97809
94794,97812
94872,97861
94944,97897
94966,97839
94969,97875
94989,97874
95017,97899
95067,97918
95083,97939
95115,97949
95104,97943
95199,97977
95237,98010
95267,97999
95284,98036
95274,98005
95322,98003
95383,98081
95369,98057
95424,98090
95421,98050
95445,98078
95551,98112
95542,98152
95593,98138
95563,98103
95636,98190
95669,98176
95724,98185
95731,98186
95698,98199
95782,98226
95852,98276
95850,98222
95864,98258
95835,98259
95890,98283
95955,98294
95953,98290
95967,98305
95934,98296
96021,98342
96042,98365
96048,98346
96064,98364
96020,98329
96075,98377
96142,98354
96163,98396
96134,98357
96105,98375
96201,98401
96218,98446
96201,98378
96209,98400
96176,98390
96217,98465
96255,98416
96277,98431
96262,98415
96187,98406
96252,98433
96323,98460
96260,98420
96277,98441
96229,98417
96309,98424
96342,98486
96328,98421
96326,98443
96261,98443
96352,98480
96367,98501
96350,98488
96334,98489
96367,98448
96375,98481
96467,98481
96397,98520
96424,98525
96364,98478
96432,98513
96489,98527
96462,98543
96497,98510
96438,98503
96523,98573
96522,98551
96550,98544
96483,98526
96482,98557
96526,98543
96529,98539
96508,98518
96410,98492
96286,98428
96356,98464
96266,98425
96133,98343
96001,98236
95865,98250
95768,98173
95670,98167
95504,98104
95333,98017
95237,97945
95123,97961
94972,97829
94872,97824
94711,97749
94561,97664
94503,97671
94388,97592
94253,97566
94113,97469
93989,97398
93908,97424
93877,97388
93774,97335
93715,97302
93605,97264
93581,97243
93577,97229
93498,97236
93420,97167
93422,97128
93427,97190
93439,97158
93415,97155
93389,97115
93397,97161
93478,97142
93509,97213
93481,97183
93465,97165
93507,97190
93614,97229
93619,97203
93688,97277
93653,97257
93675,97252
93764,97305
93832,97342
93827,97298
93831,97339
93835,97343
93934,97377
93959,97386
93968,97377
93965,97363
94023,97420
94083,97415
94084,97453
94120,97470
94092,97451
94167,97485
94188,97476
94269,97528
94257,97525
94271,97513
94281,97518
94389,97586
94370,97595
94413,97583
94381,97560
94399,97570
94507,97614
94439,97652
94474,97579
94427,97612
94456,97613
94522,97608
94518,97629
94484,97579
94495,97609
94461,97593
94515,97636
94512,97628
94495,97595
94444,97611
94454,97579
94482,97611
94493,97616
94431,97595
94401,97595
94439,97578
94502,97624
94459,97582
94435,97595
94415,97566
94420,97615
94472,97600
94472,97598
94461,97582
94411,97587
94457,97554
94534,97623
94472,97628
94483,97593
94459,97613
94503,97620
94525,97646
94564,97640
94522,97647
94561,97623
94576,97683
94653,97703
94678,97688
94656,97722
94648,97698
94687,97707
94784,97728
94772,97740
94818,97760
94768,97753
94833,97746
94921,97814
94900,97821
94893,97797
94910,97822
94952,97815
95070,97901
95039,97883
95093,97893
95039,97845
95120,97891
95181,97937
95216,97947
95249,97971
95217,97946
95293,97975
95353,98013
95347,98018
95375,98017
95364,98008
95428,98057
95520,98066
95494,98060
95516,98124
95491,98082
95556,98111
95627,98124
95609,98124
95634,98122
95629,98125
95686,98171
95750,98161
95760,98178
95707,98183
95729,98171
95791,98245
95853,98219
95823,98247
95841,98199
95827,98215
95900,98272
95914,98261
95955,98284
95946,98272
95916,98242
95990,98293
96034,98305
95997,98326
96054,98306
95993,98272
96062,98350
96067,98337
96123,98344
96058,98325
96036,98286
96116,98372
96162,98381
96132,98383
96134,98349
96152,98348
96151,98394
96193,98410
96202,98417
96201,98360
96194,98395
96210,98381
96267,98427
96257,98407
96291,98430
96248,98397
96287,98442
96328,98439
96320,98414
96311,98428
96273,98427
96353,98403
96355,98466
96328,98437
96351,98458
96290,98464
96407,98484
96382,98481
96385,98453
96390,98474
96307,98455
96419,98489
96442,98489
96438,98512
96437,98465
96415,98496
96468,98491
96518,98540
96491,98557
96499,98495
96475,98515
96577,98516
96545,98546
96512,98526
96451,98479
96425,98447
96382,98492
96337,98436
96210,98388
96129,98301
95985,98285
95940,98247
95828,98194
95677,98131
95503,98056
95375,97965
95292,97938
95190,97911
94981,97856
94869,97732
94731,97715
94659,97690
94493,97617
94363,97565
94258,97483
94135,97448
94050,97417
93969,97423
93838,97338
93722,97250
93661,97259
93577,97194
93511,97190
93461,97143
93352,97107
93315,97059
93341,97109
93293,97078
93297,97027
93225,97017
93229,97055
93287,97080
93296,97039
93292,97057
93255,97055
93321,97028
93360,97065
93411,97100
93387,97130
93403,97070
93435,97111
93558,97143
93574,97165
93592,97174
93561,97200
93561,97155
93691,97254
93707,97237
93705,97251
93702,97227
93723,97251
93791,97265
93846,97286
93830,97325
93816,97293
93862,97303
93916,97349
93953,97340
93984,97391
93977,97337
93987,97370
94104,97431
94065,97417
94105,97404
94060,97414
94122,97417
94171,97472
94166,97452
94195,97446
94187,97449
94154,97476
94229,97486
94235,97479
94190,97497
94152,97431
94211,97450
94219,97488
94268,97485
94218,97480
94199,97430
94214,97485
94255,97442
94278,97478
94218,97472
94185,97469
94253,97464
94298,97512
94210,97466
94259,97482
94198,97454
94228,97488
94276,97495
94272,97499
94228,97465
94242,97463
94259,97494
94304,97499
94273,97514
94265,97486
94250,97449
94306,97518
94375,97534
94323,97534
94357,97494
94359,97505
94373,97573
94473,97555
94431,97568
94480,97564
94445,97592
94509,97583
94559,97651
94555,97605
94572,97626
94554,97610
94623,97652
94726,97671
94681,97652
94725,97698
94688,97683
94743,97682
94808,97748
94827,97727
94817,97738
94808,97699
94904,97760
94958,97781
94933,97801
94982,97776
94958,97790
95024,97817
95087,97875
95057,97828
95097,97852
95073,97826
95142,97922
95213,97885
95197,97897
95240,97934
95211,97866
95232,97961
95308,97983
95286,97950
95368,97955
95294,97960
95381,97979
95397,98018
95423,97969
95416,98043
95433,97995
95490,98038
95546,98079
95499,98064
95531,98046
95480,98037
95573,98084
95639,98087
95602,98077
95641,98108
95593,98053
95701,98133
95731,98125
95687,98134
95691,98156
95676,98096
95799,98199
95831,98185
95810,98176
95817,98191
95779,98202
95891,98189
95917,98272
95899,98207
95883,98246
95878,98223
95969,98262
96033,98259
96015,98315
96027,98254
96025,98287
96076,98328
96132,98364
96091,98311
96107,98350
96065,98315
96199,98343
96228,98368
96187,98374
96208,98370
96175,98385
96288,98378
96276,98419
96285,98411
96273,98391
96261,98386
96353,98417
96374,98477
96388,98466
96360,98393
96344,98424
96435,98481
96424,98504
96442,98463
96395,98446
96426,98456
96506,98502
96532,98538
96518,98488
96524,98522
96530,98500
96600,98568
96612,98542
96634,98529
96564,98541
96595,98522
96701,98567
96725,98618
96691,98576
96699,98575
96699,98578
96772,98649
96771,98621
96824,98648
96768,98621
96754,98587
96880,98671
96853,98655
96808,98637
96793,98616
96701,98568
96772,98622
96648,98542
96535,98492
96388,98443
96300,98388
96267,98368
96097,98337
95937,98206
95787,98178
95632,98108
95580,98059
95417,98040
95304,97955
95097,97841
95006,97819
94920,97775
94843,97764
94673,97705
94556,97573
94493,97613
94388,97568
94307,97519
94206,97508
94086,97432
94066,97408
94005,97448
93985,97396
93881,97371
93845,97316
93829,97326
93817,97310
93863,97316
93794,97307
93721,97273
93783,97326
93834,97315
93829,97319
93864,97310
93823,97277
93858,97295
93991,97385
93980,97368
94036,97403
93962,97368
94048,97381
94177,97476
94181,97460
94212,97469
94165,97486
94225,97457
94301,97533
94308,97526
94366,97564
94313,97535
94398,97567
94453,97604
94497,97591
94514,97608
94459,97632
94558,97599
94629,97704
94662,97668
94660,97709
94667,97681
94731,97729
94772,97739
94822,97726
94790,97783
94800,97711
94869,97784
94891,97816
94921,97767
94929,97836
94878,97762
94948,97803
94972,97858
94982,97825
94981,97816
94959,97827
94947,97832
94998,97861
95004,97842
94995,97856
94935,97811
95020,97835
95015,97852
95009,97866
95005,97814
94941,97800
94973,97874
95053,97855
94990,97854
95000,97831
94955,97811
94999,97839
95007,97865
94993,97812
95011,97878
94949,97823
94988,97854
95023,97891
95056,97860
95030,97917
95020,97826
95078,97876
95106,97918
95117,97898
95140,97907
95088,97902
95155,97907
95214,97967
95233,97948
95218,97939
95169,97929
95251,97967
95313,98012
95322,98019
95323,97984
95290,97970
95395,98021
95445,98034
95418,98029
95427,98047
95413,98049
95509,98071
95513,98108
95547,98104
95580,98090
95518,98084
95632,98132
95660,98156
95669,98160
95674,98151
95644,98127
95736,98192
95775,98205
95791,98217
95762,98197
95773,98199
95863,98239
95890,98262
95910,98252
95862,98242
95855,98230
95977,98262
96001,98306
95988,98298
95983,98293
95982,98296
96016,98305
96076,98318
96077,98317
96062,98336
96038,98320
96112,98338
96166,98358
96137,98345
96079,98313
96127,98345
96168,98383
96224,98384
96212,98414
96241,98379
96206,98374
96318,98425
96318,98432
96329,98442
96312,98436
96340,98427
96415,98468
96406,98471
96384,98445
96337,98441
96361,98453
96422,98475
96452,98512
96430,98472
96397,98473
96406,98460
96449,98495
96471,98481
96435,98487
96428,98445
96377,98473
96465,98493
96503,98504
96473,98483
96446,98466
96427,98454
96482,98544
96509,98534
96470,98500
96439,98486
96438,98450
96513,98538
96489,98513
96487,98485
96446,98486
96470,98496
96529,98557
96564,98533
96507,98522
96517,98529
96504,98512
96600,98527
96579,98547
96584,98539
96532,98519
96592,98517
96627,98597
96634,98584
96651,98566
96629,98545
96642,98562
96647,98568
96655,98553
96607,98513
96511,98517
96489,98474
96419,98453
96341,98406
96249,98395
96114,98258
95999,98241
95890,98247
95755,98189
95620,98086
95434,98018
95323,97949
95279,97982
95084,97874
94968,97806
94767,97732
94692,97674
94625,97729
94503,97628
94339,97565
94250,97486
94106,97452
94099,97448
93976,97366
93833,97336
93694,97259
93661,97236
93604,97253
93486,97190
93462,97144
93392,97133
93388,97085
93359,97122
93339,97093
93337,97085
93263,97026
93318,97043
93390,97079
93362,97061
93361,97114
93333,97043
93437,97124
93468,97118
93481,97141
93529,97137
93473,97115
93544,97151
93616,97211
93622,97197
93647,97208
93618,97179
93677,97217
93742,97265
93755,97273
93760,97256
93725,97229
93803,97280
93862,97332
93874,97313
93888,97332
93876,97310
93958,97363
94004,97383
93990,97374
94047,97402
94006,97360
94095,97425
94132,97433
94130,97432
94146,97440
94112,97416
94184,97470
94223,97477
94231,97468
94213,97472
94187,97446
94206,97478
94246,97492
94256,97478
94242,97484
94157,97437
94242,97483
94240,97500
94237,97509
94246,97456
94171,97420
94216,97470
94270,97505
94242,97489
94214,97455
94194,97450
94238,97489
94251,97489
94219,97485
94250,97479
94219,97441
94249,97496
94278,97519
94250,97486
94282,97487
94247,97468
94301,97511
94319,97538
94325,97527
94342,97518
94296,97515
94363,97542
94412,97562
94425,97578
94409,97565
94408,97558
94499,97593
94529,97616
94539,97640
94560,97600
94567,97617
94616,97669
94641,97690
94672,97681
94654,97680
94687,97684
94766,97735
94763,97728
94802,97741
94829,97745
94817,97747
94913,97783
94947,97805
94933,97806
94943,97820
94959,97803
95006,97840
95065,97866
95087,97858
95048,97850
95078,97842
95177,97893
95173,97910
95179,97919
95199,97883
95174,97901
95284,97982
95292,97961
95269,97947
95295,97931
95287,97933
95354,97995
95384,98000
95346,97986
95355,97968
95368,97959
95422,98006
95430,98023
95440,98018
95442,98025
95418,98003
95506,98059
95484,98046
95485,98032
95453,98028
95460,98039
95550,98076
95534,98064
95533,98048
95499,98014
95509,98047
95557,98076
95593,98068
95552,98042
95532,98073
95564,98052
95635,98089
95585,98096
95624,98073
95584,98067
95569,98046
95649,98138
95680,98107
95644,98125
95608,98063
95646,98100
95686,98157
95719,98124
95671,98131
95661,98066
95678,98083
95700,98115
95722,98131
95706,98152
95682,98082
95707,98124
95760,98140
95753,98183
95757,98157
95725,98115
95734,98144
95816,98175
95813,98197
95822,98156
95763,98110
95804,98167
95884,98198
95904,98228
95861,98192
95864,98167
95900,98229
95953,98233
95972,98270
95922,98226
95933,98239
95962,98251
96029,98270
96015,98288
96013,98251
96022,98278
96041,98291
96120,98300
96136,98323
96140,98303
96097,98301
96166,98320
96245,98343
96224,98353
96249,98354
96227,98369
96246,98368
96327,98385
96312,98413
96312,98399
96243,98352
96244,98389
96249,98336
96117,98308
96065,98261
95956,98219
95835,98162
95804,98132
95641,98022
95504,98012
95328,97935
95215,97872
95166,97886
94979,97774
94808,97717
94641,97627
94530,97596
94433,97551
94309,97488
94179,97453
93999,97357
93912,97318
93858,97329
93719,97233
93596,97193
93460,97100
93427,97088
93356,97092
93286,97028
93219,97005
93086,96948
93109,96978
93103,96963
93052,96951
93062,96920
92962,96886
93023,96886
93050,96940
93061,96918
93028,96928
93008,96904
93120,96968
93175,96983
93162,96977
93205,97002
93188,96972
93287,97024
93307,97060
93373,97081
93409,97065
93381,97060
93456,97099
93487,97118
93533,97137
93527,97137
93521,97131
93604,97171
93647,97225
93679,97205
93684,97200
93657,97179
93690,97230
93772,97270
93774,97273
93770,97253
93761,97228
93853,97313
93891,97316
93890,97306
93915,97297
93880,97288
93963,97343
93991,97371
93976,97342
93970,97353
93946,97306
93976,97340
94024,97351
93993,97368
93989,97327
93941,97292
93967,97347
94009,97340
94004,97338
93918,97327
93908,97320
93969,97335
93994,97349
93960,97325
93886,97282
93883,97274
93936,97318
93926,97311
93901,97288
93866,97275
93829,97265
93871,97275
93886,97287
93873,97288
93840,97276
93786,97251
93875,97277
93880,97277
93834,97259
93809,97244
93798,97260
93880,97274
93906,97322
93905,97292
93888,97278
93833,97288
93956,97337
93948,97306
93962,97318
93962,97325
93966,97327
94029,97366
94063,97375
94041,97370
94050,97367
94076,97376
94126,97404
94167,97411
94142,97396
94152,97406
94192,97411
94217,97446
94282,97468
94239,97442
94276,97450
94282,97463
94368,97514
94377,97503
94379,97495
94368,97507
94388,97507
94442,97559
94504,97546
94491,97559
94499,97532
94518,97571
94571,97601
94621,97630
94590,97607
94571,97610
94592,97578
94700,97677
94667,97613
94688,97631
94668,97624
94657,97635
94758,97662
94745,97714
94736,97669
94759,97645
94792,97680
94838,97735
94824,97685
94856,97703
94789,97685
94818,97676
94855,97722
94903,97728
94865,97709
94857,97699
94814,97717
94904,97745
94902,97701
94927,97721
94843,97727
94893,97731
94913,97760
94941,97730
94916,97756
94858,97685
94910,97741
94996,97764
94962,97763
94967,97769
94897,97718
94941,97772
95040,97760
95000,97781
94965,97755
94926,97743
94979,97784
95010,97801
95031,97810
95004,97772
94981,97775
95027,97754
95071,97825
95078,97808
95045,97800
94997,97784
95075,97804
95089,97819
95147,97815
95122,97830
95015,97771
95110,97843
95181,97845
95154,97852
95149,97820
95163,97837
95175,97832
95215,97874
95188,97863
95233,97878
95160,97872
95215,97885
95270,97889
95233,97881
95275,97880
95225,97868
95252,97901
95358,97925
95324,97936
95334,97944
95326,97883
95364,97939
95416,97956
95438,97959
95469,97989
95397,97901
95446,97968
95574,98005
95534,97993
95551,98014
95536,98006
95582,98027
95630,98068
95621,98023
95631,98053
95563,98027
95651,98053
95664,98057
95604,98040
95594,98031
95480,97947
95462,97974
95385,97926
95266,97847
95175,97829
95017,97740
94934,97704
94821,97668
94670,97596
94529,97530
94345,97441
94240,97409
94142,97395
94006,97307
93832,97209
93651,97155
93589,97119
93484,97075
93324,97006
93176,96953
93040,96873
93001,96857
92897,96804
92801,96762
92693,96717
92641,96680
92639,96671
92586,96641
92523,96641
92482,96611
92404,96581
92489,96622
92491,96605
92502,96604
92492,96613
92494,96602
92570,96637
92588,96659
92620,96674
92628,96658
92660,96683
92752,96724
92826,96750
92841,96749
92868,96781
92901,96776
92986,96845
93045,96867
93059,96873
93066,96866
93094,96895
93189,96927
93235,96936
93271,96947
93274,96969
93272,96985
93394,97029
93418,97045
93434,97040
93412,97030
93449,97045
93532,97091
93589,97115
93605,97133
93618,97135
93623,97112
93744,97189
93784,97196
93797,97205
93807,97200
93777,97207
93873,97252
93908,97256
93913,97256
93901,97254
93903,97260
93987,97292
93991,97312
93982,97290
93939,97273
93931,97274
93977,97307
94001,97305
93975,97283
93958,97283
93930,97257
94022,97320
93995,97297
93970,97305
93944,97294
93935,97270
94002,97312
93985,97309
93976,97288
93917,97258
93901,97275
93961,97277
93969,97303
93923,97287
93937,97267
93935,97274
93983,97310
93991,97300
94017,97293
93980,97294
93985,97315
94075,97349
94087,97353
94097,97325
94055,97312
94079,97344
94159,97400
94179,97389
94206,97390
94178,97397
94215,97408
94304,97464
94317,97436
94291,97452
94316,97452
94320,97474
94431,97501
94441,97506
94456,97521
94430,97472
94471,97516
94545,97556
94557,97587
94588,97573
94562,97543
94619,97594
94669,97617
94711,97618
94719,97634
94707,97620
94778,97671
94865,97705
94849,97676
94869,97696
94887,97686
94894,97713
94995,97760
95005,97773
95019,97762
95001,97749
95037,97772
95122,97819
95080,97812
95123,97816
95074,97791
95157,97833
95252,97856
95220,97870
95212,97875
95214,97830
95280,97883
95348,97916
95341,97910
95331,97916
95299,97886
95364,97942
95416,97957
95423,97949
95425,97936
95375,97918
95445,97974
95516,97982
95451,97968
95493,97986
95457,97978
95479,97989
95581,98020
95570,98018
95553,98000
95529,97987
95606,98012
95634,98036
95627,98051
95658,98054
95579,98001
95649,98056
95668,98080
95694,98070
95683,98064
95641,98063
95699,98069
95749,98101
95751,98096
95736,98086
95671,98054
95760,98118
95827,98113
95810,98111
95830,98153
95769,98121
95837,98148
95910,98175
95869,98180
95860,98143
95881,98141
95951,98197
95956,98204
95981,98221
95967,98187
95976,98177
96024,98214
96091,98261
96055,98222
96106,98247
96031,98243
96118,98289
96127,98280
96173,98304
96177,98288
96186,98311
96256,98324
96290,98347
96298,98375
96316,98348
96287,98327
96375,98396
96429,98422
96443,98407
96427,98431
96423,98397
96503,98461
96530,98444
96462,98458
96392,98412
96358,98375
96317,98339
96276,98333
96169,98253
96033,98213
95855,98135
95839,98150
95719,98063
95572,97993
95432,97959
95250,97843
95153,97835
95078,97809
94903,97703
94778,97657
94586,97606
94529,97571
94421,97520
94302,97445
94158,97420
94070,97349
94021,97345
93919,97305
93846,97250
93728,97205
93648,97133
93627,97180
93580,97135
93520,97131
93420,97060
93411,97062
93446,97087
93416,97047
93394,97052
93360,97008
93364,97068
93419,97074
93470,97074
93440,97075
93409,97036
93489,97095
93553,97113
93569,97127
93599,97127
93584,97142
93606,97083
93705,97171
93712,97195
93762,97195
93755,97185
93775,97204
93864,97279
93876,97252
93933,97298
93911,97270
93915,97278
94027,97310
94061,97372
94059,97323
94053,97341
94074,97387
94171,97407
94215,97438
94216,97407
94219,97405
94215,97448
94321,97458
94359,97481
94350,97444
94317,97458
94356,97480
94433,97492
94395,97495
94375,97491
94369,97460
94399,97498
94459,97539
94470,97502
94434,97526
94384,97497
94414,97466
94468,97508
94412,97495
94440,97489
94299,97469
94329,97476
94367,97492
94338,97454
94342,97468
94242,97416
94293,97405
94292,97465
94289,97413
94221,97432
94176,97360
94169,97419
94222,97412
94193,97372
94195,97396
94076,97378
94151,97390
94223,97401
94167,97412
94167,97385
94108,97356
94130,97397
94196,97403
94197,97417
94186,97376
94139,97366
94187,97423
94210,97430
94248,97376
94216,97414
94230,97432
94248,97430
94345,97442
94304,97472
94308,97476
94292,97418
94351,97478
94450,97507
94414,97509
94443,97504
94413,97479
94480,97514
94566,97575
94554,97569
94596,97558
94501,97531
94601,97606
94636,97607
94676,97603
94664,97584
94671,97588
94720,97623
94823,97679
94780,97676
94792,97698
94776,97627
94854,97725
94900,97713
94951,97743
94967,97729
94882,97695
94982,97745
95019,97787
95052,97775
95029,97774
95038,97762
95075,97804
95141,97828
95118,97790
95129,97842
95108,97803
95159,97830
95250,97864
95209,97840
95218,97864
95213,97830
95225,97855
95327,97885
95284,97906
95312,97888
95260,97878
95378,97935
95357,97959
95369,97880
95377,97903
95317,97907
95401,97934
95408,97960
95443,97966
95398,97937
95365,97879
95428,97965
95482,97951
95444,97991
95447,97961
95416,97950
95453,97979
95485,97979
95528,97991
95504,97975
95466,97959
95515,98011
95547,97990
95531,97995
95501,97988
95527,98004
95568,98026
95601,98024
95603,98064
95565,98002
95573,98024
95632,98046
95640,98052
95659,98059
95666,98021
95635,98048
95683,98084
95726,98071
95742,98113
95733,98088
95727,98082
95766,98107
95826,98126
95840,98162
95840,98134
95845,98096
95927,98194
95932,98202
95954,98149
95959,98184
95892,98176
96018,98202
95997,98222
95935,98197
95867,98162
95876,98153
95818,98118
95751,98109
95669,98053
95532,97940
95385,97950
95347,97889
95268,97849
95099,97799
94902,97720
94812,97657
94706,97644
94548,97550
94470,97506
94283,97422
94151,97371
94083,97357
93975,97317
93809,97177
93647,97139
93512,97117
93485,97085
93379,97027
93233,96995
93089,96898
93026,96888
92975,96839
92921,96831
92848,96810
92810,96770
92746,96724
92772,96740
92784,96753
92742,96717
92706,96754
92723,96673
92793,96776
92825,96755
92834,96752
92814,96721
92841,96762
92905,96806
92946,96820
92966,96833
92969,96818
93027,96854
93108,96909
93134,96888
93130,96903
93119,96895
93182,96927
93266,96968
93259,96977
93292,96995
93286,96961
93319,96990
93387,97042
93389,97041
93422,97041
93355,97018
93456,97047
93515,97105
93527,97089
93541,97108
93552,97068
93537,97141
93650,97161
93627,97137
93678,97169
93634,97109
93645,97122
93749,97187
93735,97182
93711,97163
93709,97180
93710,97173
93761,97204
93767,97191
93711,97191
93712,97160
93746,97180
93785,97218
93710,97203
93764,97174
93661,97141
93682,97130
93765,97201
93699,97185
93691,97110
93650,97128
93672,97168
93674,97192
93619,97126
93650,97133
93564,97095
93616,97105
93653,97170
93573,97088
93618,97145
93534,97090
93527,97121
93608,97090
93589,97106
93581,97120
93520,97061
93604,97128
93616,97124
93655,97123
93589,97100
93603,97102
93675,97133
93720,97167
93661,97179
93711,97189
93646,97146
93751,97169
93795,97205
93777,97216
93753,97235
93753,97180
93853,97250
93884,97256
93908,97230
93888,97256
93874,97251
93947,97290
93977,97321
94017,97327
94001,97294
94043,97287
94098,97321
94161,97388
94110,97361
94178,97375
94135,97372
94214,97420
94254,97444
94289,97381
94266,97424
94267,97418
94332,97486
94406,97486
94397,97477
94405,97485
94381,97455
94470,97494
94534,97547
94517,97514
94496,97542
94501,97535
94582,97542
94614,97602
94565,97529
94598,97561
94567,97536
94617,97587
94699,97611
94630,97620
94660,97602
94623,97568
94701,97604
94753,97615
94747,97651
94751,97634
94705,97608
94768,97666
94770,97651
94799,97644
94738,97646
94751,97654
94841,97678
94838,97667
94831,97683
94815,97657
94778,97652
94881,97713
94869,97726
94849,97695
94862,97710
94833,97663
94917,97706
94914,97696
94882,97744
94880,97701
94885,97678
94934,97729
94969,97690
94974,97759
94972,97706
94922,97702
94972,97765
95023,97751
95003,97786
94996,97743
94953,97731
95056,97763
95048,97803
95071,97744
95037,97750
95053,97744
95103,97824
95138,97804
95117,97840
95109,97798
95072,97784
95201,97865
95189,97871
95206,97835
95162,97802
95183,97842
95259,97905
95240,97868
95291,97886
95230,97861
95266,97855
95294,97905
95332,97882
95335,97914
95322,97867
95320,97907
95401,97910
95415,97981
95396,97918
95395,97913
95395,97939
95461,97991
95490,97946
95489,97987
95458,97940
95500,97960
95512,98007
95523,97985
95439,97957
95389,97880
95327,97910
95288,97853
95219,97799
95090,97747
94919,97701
94778,97638
94762,97640
94563,97564
94451,97470
94245,97404
94085,97333
93981,97310
93825,97208
93685,97134
93499,97053
93378,96989
93238,97017
93079,96884
92954,96825
92759,96715
92693,96711
92650,96659
92514,96637
92380,96520
92264,96498
92237,96501
92247,96494
92173,96442
92104,96458
92042,96390
92091,96424
92159,96437
92115,96420
92129,96437
92095,96403
92137,96432
92241,96470
92225,96501
92222,96460
92203,96443
92320,96527
92384,96517
92386,96542
92416,96529
92425,96530
92502,96604
92561,96611
92598,96620
92564,96624
92579,96633
92666,96650
92716,96689
92753,96691
92702,96687
92713,96692
92747,96725
92863,96772
92859,96745
92846,96784
92814,96725
92909,96813
92962,96803
92978,96827
92991,96790
92973,96818
93042,96835
93084,96881
93051,96849
93108,96871
93057,96857
93124,96895
93165,96898
93117,96848
93172,96927
93108,96867
93091,96904
93173,96891
93183,96933
93149,96855
93112,96861
93160,96902
93162,96908
93155,96870
93119,96897
93081,96847
93167,96902
93168,96873
93137,96888
93092,96834
93066,96827
93101,96892
93139,96856
93138,96875
93074,96864
93056,96846
93071,96862
93153,96903
93088,96860
93097,96879
93074,96849
93129,96914
93149,96870
93158,96901
93114,96858
93135,96881
93218,96910
93251,96958
93224,96929
93267,96928
93234,96927
93325,96966
93326,96988
93328,96975
93385,97001
93343,96975
93429,96993
93477,97042
