11111,11111
0,0
82484,81573
129833,103559
131920,103568
131961,103591
132013,103602
132026,103627
132060,103625
132130,103614
132213,103645
132213,103643
132311,103670
132306,103729
132339,103711
132427,103736
132422,103713
132425,103707
132503,103751
132495,103757
132488,103752
132521,103739
132502,103762
132489,103741
132551,103751
132525,103757
132484,103749
132426,103732
132417,103712
132451,103720
132419,103707
132355,103681
132335,103673
132340,103658
132283,103670
132296,103637
132226,103674
132192,103596
132214,103610
132166,103632
132173,103618
132192,103596
132130,103611
132125,103543
132184,103608
132132,103592
132140,103602
132135,103592
132141,103567
132167,103598
132176,103611
132156,103619
132182,103603
132156,103607
132190,103587
132229,103592
132231,103640
132216,103626
132257,103646
132266,103628
132328,103628
132332,103660
132311,103641
132390,103679
132416,103678
132436,103689
132433,103668
132448,103662
132515,103742
132566,103708
132593,103756
132587,103733
132645,103738
132698,103805
132740,103785
132737,103832
132755,103797
132793,103819
132847,103829
132879,103847
132904,103870
132935,103878
132919,103843
132999,103873
133034,103917
133027,103900
133078,103903
133110,103909
133133,103957
133187,103939
133276,103974
133233,103992
133257,103953
133323,103995
133350,104000
133388,104030
133385,104049
133412,104038
133468,104040
133489,104080
133524,104067
133582,104091
133546,104088
133654,104101
133631,104123
133667,104105
133688,104113
133714,104121
133702,104189
133722,104151
133745,104126
133754,104180
133686,104141
133696,104122
133650,104091
133567,104075
133464,104009
133400,103972
133261,103968
133216,103910
133039,103885
132917,103789
132724,103772
132617,103682
132478,103615
132275,103548
129671,102570
130914,103079
131008,103100
131656,103337
131627,103345
131654,103334
131653,103317
131773,103354
131811,103356
131843,103381
131799,103391
131836,103364
132288,103535
132345,103585
132336,103548
132380,103574
132404,103625
132485,103610
132517,103642
132527,103630
132591,103653
132656,103695
132708,103699
132690,103700
132738,103702
132812,103760
132857,103729
132907,103779
132936,103796
132990,103802
133032,103852
133116,103876
133177,103898
133169,103906
133208,103866
133347,103953
133383,103960
133440,103994
133476,103973
133529,103971
133565,104050
133596,104067
133656,104046
133630,104047
133650,104037
133703,104100
133669,104079
133652,104038
133576,104020
133553,103998
133491,103995
133406,103940
133306,103907
133233,103888
133096,103806
133027,103793
132904,103740
132746,103670
132615,103625
132493,103571
132309,103540
132215,103489
132034,103439
131898,103373
131709,103301
131608,103283
131435,103213
131286,103145
131139,103085
130961,103010
130901,103004
130757,102952
130629,102875
130497,102872
130394,102817
130351,102802
130313,102792
130223,102748
130184,102766
130133,102719
130123,102702
130138,102710
130150,102684
130175,102727
130141,102762
130188,102754
130221,102784
130271,102805
130290,102772
130353,102786
130406,102865
130478,102858
130534,102886
130574,102916
130586,102902
130726,102969
130739,102985
130841,102974
130859,103017
130925,103015
131035,103116
131104,103097
131188,103127
131235,103117
131314,103204
131444,103205
131501,103248
131573,103292
131609,103279
131708,103325
131817,103361
131867,103388
131941,103430
131963,103415
132045,103433
132157,103487
132180,103500
132232,103517
132223,103541
132253,103525
132333,103584
132356,103574
132375,103556
132384,103577
132378,103573
132450,103620
132409,103603
132447,103583
132424,103556
132462,103607
132456,103562
132467,103597
132478,103581
132486,103590
132451,103597
132501,103618
132519,103615
132483,103624
132496,103591
132497,103633
132554,103628
132557,103614
132512,103614
132549,103612
132567,103661
132577,103647
132595,103641
132595,103649
132575,103634
132673,103654
132655,103667
132700,103711
132686,103692
132709,103689
132769,103692
132781,103726
132820,103740
132821,103726
132856,103735
132878,103764
132928,103794
132950,103779
132978,103797
133000,103768
133037,103844
133101,103821
133102,103836
133139,103862
133146,103859
133242,103912
133282,103911
133261,103925
133292,103895
133394,103935
133408,103958
133426,103956
133500,103983
133514,103996
133558,103991
133564,104051
133627,104014
133665,104041
133672,104038
133719,104045
133770,104058
133815,104103
133817,104124
133826,104119
133872,104104
133945,104144
133994,104173
133997,104197
134061,104152
134106,104202
134125,104210
134190,104216
134251,104241
134249,104258
134291,104286
134372,104307
134408,104320
134429,104337
134443,104330
134500,104389
134544,104351
134543,104375
134549,104331
134551,104354
134487,104332
134430,104289
134412,104284
134302,104253
134194,104207
134097,104169
134022,104134
133913,104119
133782,104029
133621,103989
133533,103958
133376,103915
133271,103855
133082,103795
132944,103729
132887,103670
132689,103674
132555,103605
132417,103538
132299,103467
132175,103453
132075,103427
131922,103386
131798,103307
131699,103262
131597,103279
131506,103215
131371,103181
131306,103125
131219,103107
131149,103115
131072,103027
131010,103041
130953,103004
130885,102969
130887,102964
130833,102999
130783,102944
130812,102967
130763,102939
130775,102945
130766,102958
130796,102945
130757,102989
130771,102951
130795,102950
130837,102966
130919,102994
130890,103037
130908,102988
130983,103026
131030,103064
131086,103075
131134,103074
131182,103082
131259,103168
131328,103178
131351,103201
131462,103214
131500,103229
131566,103240
131662,103285
131701,103305
131768,103314
131779,103343
131902,103345
131963,103434
131960,103394
132073,103431
132091,103452
132105,103484
132185,103477
132202,103520
132217,103484
132279,103505
132274,103537
132340,103553
132327,103543
132361,103531
132334,103516
132389,103553
132410,103566
132428,103558
132388,103542
132421,103552
132422,103577
132445,103559
132420,103549
132422,103534
132416,103537
132389,103559
132420,103570
132403,103575
132404,103539
132411,103552
132403,103530
132395,103532
132434,103556
132384,103554
132377,103539
132420,103556
132433,103570
132384,103570
132374,103521
132383,103564
132398,103553
132416,103600
132383,103549
132438,103573
132418,103570
132471,103584
132490,103596
132472,103590
132527,103587
132517,103604
132522,103598
132579,103605
132582,103638
132621,103593
132627,103630
132638,103634
132720,103673
132681,103677
132754,103681
132741,103687
132794,103687
132849,103723
132837,103740
132859,103717
132881,103732
132927,103758
132975,103775
132985,103781
133015,103764
133029,103795
133078,103818
133140,103836
133117,103818
133167,103838
133196,103844
133244,103879
133273,103870
133309,103897
133316,103881
133327,103899
133418,103927
133425,103914
133440,103934
133459,103915
133446,103955
133518,103973
133548,103966
133549,103986
133538,103976
133574,103965
133595,104031
133617,104011
133617,104017
133636,104003
133640,104020
133664,104007
133662,104025
133673,104028
133626,103975
133608,104016
133594,103975
133536,103972
133460,103921
133402,103871
133270,103847
133185,103785
133080,103765
132945,103726
132799,103647
132625,103594
132487,103579
132359,103469
132169,103462
131987,103342
131817,103277
131662,103235
131448,103162
131231,103047
131036,102977
130870,102920
130659,102867
130502,102796
130302,102731
130137,102646
130007,102595
129838,102560
129667,102496
129588,102428
129424,102393
129312,102349
129259,102341
129189,102287
129093,102286
129023,102247
129006,102245
129003,102214
128991,102211
128951,102243
128963,102234
128997,102229
129037,102259
129042,102249
129094,102287
129085,102254
129193,102290
129246,102354
129288,102321
129367,102396
129383,102379
129447,102410
129533,102432
129614,102462
129639,102479
129686,102502
129808,102545
129874,102593
129968,102597
130022,102654
130074,102642
130223,102733
130284,102716
130356,102775
130450,102778
130509,102794
130587,102836
130669,102858
130720,102886
130743,102910
130808,102910
130912,102964
130961,103007
130970,102994
131036,103024
131034,103019
131100,103013
131163,103079
131182,103023
131218,103053
131191,103065
131262,103076
131295,103112
131234,103088
131256,103061
131270,103056
131314,103078
131326,103111
131298,103125
131304,103067
131284,103075
131316,103108
131346,103088
131329,103086
131299,103098
131301,103084
131353,103114
131347,103103
131299,103089
131329,103091
131343,103125
131334,103105
131326,103096
131370,103096
131351,103100
131361,103098
131381,103118
131421,103141
131446,103143
131409,103135
131438,103172
131446,103148
131513,103151
131506,103169
131530,103184
131544,103181
131567,103190
131606,103189
131616,103224
131625,103205
131645,103208
131686,103236
131727,103238
131727,103264
131740,103222
131749,103245
131758,103327
131804,103284
131853,103288
131821,103280
131892,103333
131916,103327
131923,103354
131957,103321
132009,103337
132040,103379
132067,103382
132115,103417
132111,103421
132178,103414
132235,103441
132239,103470
132317,103448
132341,103494
132369,103504
132424,103521
132527,103548
132534,103596
132550,103551
132622,103599
132650,103603
132683,103613
132741,103622
132818,103690
132843,103657
132868,103686
132944,103684
132984,103709
132972,103737
132996,103727
133075,103731
133118,103788
133138,103798
133142,103793
133203,103810
133184,103815
133226,103853
133230,103790
133217,103848
133171,103803
133171,103780
133141,103784
133041,103755
133014,103730
132907,103682
132794,103632
132715,103596
132615,103570
132433,103473
132294,103400
132206,103370
131987,103327
131880,103255
131657,103192
131471,103096
131393,103104
131202,102991
131035,102975
130855,102884
130649,102838
130478,102737
130367,102719
130175,102662
130042,102605
129860,102513
129791,102463
129691,102491
129577,102423
129461,102374
129398,102315
129360,102316
129314,102331
129261,102287
129243,102296
129199,102236
129281,102292
129309,102303
129307,102317
129287,102299
129329,102313
129425,102369
129446,102353
129480,102373
129530,102389
129573,102409
129635,102418
129673,102461
129733,102474
129793,102530
129827,102512
129913,102533
129945,102558
130045,102591
130097,102577
130154,102626
130223,102678
130307,102699
130398,102737
130459,102746
130490,102785
130602,102789
130682,102829
130745,102867
130797,102873
130819,102893
130915,102950
130963,102939
131033,102946
131055,103005
131090,103008
131141,103017
131190,103030
131246,103059
131235,103023
131261,103026
131309,103092
131323,103081
131301,103086
131291,103051
131339,103057
131345,103107
131343,103093
131351,103048
131339,103080
131319,103050
131329,103072
131346,103077
131293,103064
131262,103040
131288,103039
131285,103085
131317,103046
131298,103056
131265,103015
131248,103045
131308,103085
131294,103054
131275,103017
131288,103067
131314,103025
131307,103061
131327,103040
131364,103068
131327,103040
131382,103057
131370,103089
131400,103080
131429,103080
131579,103144
131580,103172
131607,103151
131633,103142
131660,103204
131692,103187
131713,103194
131754,103196
131744,103205
131816,103258
131840,103250
131878,103266
131945,103309
131950,103285
131995,103314
132088,103354
132149,103362
132143,103397
132234,103375
132260,103429
132340,103459
132344,103466
132410,103474
132446,103504
132502,103484
132559,103543
132594,103536
132639,103593
132653,103541
132702,103589
132738,103603
132787,103604
132890,103656
132892,103646
132889,103687
132974,103665
133008,103694
133033,103747
133032,103706
133055,103752
133082,103740
133159,103743
133148,103807
133158,103740
133237,103779
133211,103810
133233,103789
133230,103819
133194,103758
133187,103800
133176,103775
133084,103722
133048,103714
132943,103644
132845,103650
132733,103589
132604,103539
132486,103464
132281,103416
132197,103382
131992,103305
131816,103198
131612,103157
131443,103067
131245,103008
131062,102940
130854,102877
130658,102784
130433,102706
130294,102651
130091,102559
129953,102519
129794,102452
129664,102393
129533,102373
129448,102309
129325,102290
129233,102243
129164,102230
129109,102178
129021,102167
129024,102156
128937,102121
128920,102095
128956,102150
128945,102135
128931,102135
128919,102110
128918,102129
128929,102158
128972,102150
128970,102128
129044,102174
129020,102191
129106,102164
129121,102208
129203,102225
129244,102233
129286,102236
129352,102312
129441,102315
129497,102343
129553,102366
129601,102388
129730,102435
129808,102476
129884,102505
129962,102494
130053,102554
130142,102579
130216,102623
130340,102640
130384,102702
130420,102714
130594,102749
130646,102788
130681,102816
130733,102790
130811,102830
130839,102881
130911,102925
130941,102901
130962,102907
131009,102915
131038,102903
131040,102925
131103,102955
131100,102964
131078,102924
131165,102968
131168,102966
131136,102990
131113,102938
131115,102935
131170,102983
131195,102981
131159,102989
131137,102938
131126,102939
131177,102995
131150,102982
131166,102947
131168,102950
131168,102993
131182,102945
131213,102988
131174,102972
131197,102933
131185,102944
131231,103004
131244,103007
131223,103004
131185,102975
131203,102949
131294,103022
131269,103021
131281,103006
131261,103018
131271,102995
131352,103046
131338,103053
131341,103051
131362,103019
131345,103053
131454,103084
131443,103102
131470,103095
131470,103074
131514,103104
131600,103117
131625,103146
131643,103137
131712,103118
131758,103195
131798,103189
131841,103204
131887,103227
131899,103250
131940,103262
132032,103266
132030,103314
132055,103296
132131,103298
132172,103346
132203,103360
132254,103361
132306,103388
132346,103399
132387,103430
132438,103462
132455,103479
132522,103481
132560,103500
132589,103508
132679,103554
132702,103529
132741,103553
132744,103541
132816,103573
132851,103632
132916,103613
132917,103626
132900,103628
132983,103633
133016,103658
132977,103653
132990,103659
132934,103630
132926,103602
132888,103612
132803,103572
132710,103518
132580,103473
132529,103438
132422,103452
132258,103369
132162,103333
132008,103229
131911,103182
131748,103135
131586,103087
131403,103027
131243,102958
131126,102924
130969,102884
130785,102797
130701,102728
130480,102697
130358,102634
130232,102585
130116,102519
129958,102467
129841,102426
129797,102409
129696,102359
129619,102331
129490,102310
129438,102274
129435,102254
129364,102273
129354,102271
129332,102238
129341,102240
129306,102215
129343,102243
129331,102260
129333,102206
129388,102266
129388,102296
129431,102285
129498,102324
129476,102273
129538,102298
129588,102372
129647,102377
129711,102363
129743,102405
129777,102414
129847,102435
129919,102486
130009,102507
130017,102510
130105,102530
130197,102607
130280,102626
130300,102636
130379,102654
130428,102697
130496,102702
130578,102740
130608,102755
130657,102727
130701,102780
130749,102817
130773,102798
130874,102825
130907,102819
130906,102864
130976,102855
130989,102887
130983,102872
131016,102887
131016,102880
131098,102896
131067,102946
131062,102886
131110,102891
131069,102908
131074,102914
131119,102910
131087,102905
131077,102903
131082,102895
131143,102944
131152,102919
131116,102907
131134,102893
131167,102928
131201,102959
131170,102932
131177,102969
131188,102963
131232,102945
131312,103002
131270,102976
131325,102992
131341,102975
131409,103022
131386,102999
131450,103016
131490,103065
131464,103022
131555,103089
131590,103069
131632,103096
131616,103092
131667,103096
131700,103139
131739,103127
131794,103177
131784,103164
131848,103174
131860,103211
131935,103254
131949,103203
132074,103262
132049,103256
132097,103294
132175,103302
132170,103338
132222,103315
132271,103330
132329,103391
132377,103389
132441,103397
132472,103400
132504,103391
132583,103470
132609,103475
132643,103470
132708,103521
132728,103511
132798,103555
132856,103591
132887,103585
132897,103613
132948,103576
133013,103628
133025,103648
133063,103641
133071,103634
133139,103660
133165,103723
133214,103704
133246,103715
133296,103719
133292,103736
133296,103741
133345,103744
133363,103761
133316,103724
133311,103701
133237,103717
133188,103656
133149,103674
133011,103608
132902,103558
132855,103514
132744,103485
132614,103407
132456,103378
132337,103324
132194,103298
132058,103210
131949,103148
131761,103143
131591,103037
131508,103025
131367,102948
131215,102910
131081,102828
130944,102787
130839,102792
130715,102736
130563,102664
130477,102644
130348,102601
130275,102536
130200,102546
130112,102499
130026,102453
129989,102456
129949,102440
129889,102432
129881,102410
129812,102359
129818,102372
129854,102394
129806,102380
129841,102416
129815,102373
129857,102409
129890,102421
129892,102432
129951,102441
129958,102443
129997,102448
130064,102482
130077,102473
130125,102511
130186,102513
130246,102534
130330,102588
130396,102622
130463,102630
130532,102646
130556,102705
130664,102713
130785,102767
130822,102768
130929,102833
131004,102846
131068,102875
131165,102909
131228,102917
131275,102930
131366,102991
131393,102980
131459,103019
131505,103024
131556,103039
131555,103075
131686,103065
131698,103078
131741,103119
131758,103126
131777,103117
131877,103168
131871,103167
131867,103182
131868,103118
131920,103168
131932,103205
131961,103173
131949,103210
131967,103171
132007,103220
132017,103204
132052,103218
132017,103217
132034,103212
132042,103230
132094,103258
132066,103256
132091,103222
132100,103234
132108,103262
132149,103237
132163,103274
132151,103264
132192,103261
132189,103278
132235,103303
132254,103292
132226,103293
132236,103311
132269,103329
132285,103300
132334,103312
132321,103356
132326,103321
132394,103344
132384,103371
132400,103345
132456,103384
132438,103351
132466,103358
132546,103392
132520,103419
132566,103390
132544,103393
132576,103413
132621,103419
132708,103432
132685,103433
132693,103446
132749,103496
132755,103490
132786,103479
132851,103513
132825,103489
132868,103535
132903,103561
133267,103667
133288,103702
133334,103698
133301,103648
133343,103682
133414,103713
133391,103741
133400,103711
133376,103711
133382,103705
133387,103685
133393,103696
133300,103670
133199,103604
133121,103584
133059,103567
132940,103532
132850,103462
132683,103445
132528,103359
132412,103296
132254,103270
132166,103198
131966,103149
131802,103093
131746,103039
131583,103003
131442,102944
131268,102870
131095,102804
131050,102788
130878,102754
130737,102659
130641,102613
130532,102598
130402,102554
130352,102525
130277,102518
130153,102441
130095,102449
130058,102460
129997,102394
129979,102433
129890,102346
129876,102358
129880,102329
129833,102350
129867,102355
129799,102331
129810,102335
129893,102374
129900,102372
129892,102379
129931,102354
129990,102381
130032,102424
130095,102426
130090,102470
130129,102439
130247,102481
130285,102563
130347,102531
130398,102554
130497,102604
130546,102624
130621,102644
130678,102675
130769,102698
130858,102717
130897,102746
131000,102782
131083,102820
131124,102862
131207,102835
131282,102889
131334,102921
131368,102934
131440,102928
131457,102964
131521,102972
131554,102998
131617,103010
131616,102994
131647,103013
131684,103061
131676,103024
131730,103048
131721,103057
131752,103047
131741,103049
131803,103079
131781,103070
131774,103103
131761,103079
131744,103047
131781,103072
131812,103080
131763,103048
131773,103028
131813,103063
131756,103080
131803,103035
131793,103070
131770,103017
131842,103093
131811,103075
131816,103087
131809,103052
131818,103068
131859,103091
131849,103100
131868,103102
131856,103072
131825,103090
131904,103103
131903,103119
131922,103112
131910,103103
131909,103095
131975,103121
132010,103160
132027,103171
132014,103137
132011,103160
132075,103158
132119,103215
132105,103207
132169,103211
132159,103225
132198,103203
132258,103219
132278,103268
132257,103219
132333,103242
132325,103293
132382,103315
132369,103269
132473,103317
132440,103327
132491,103320
132533,103327
132568,103338
132598,103357
132599,103367
132641,103368
132667,103409
132663,103388
132746,103411
132759,103410
132792,103461
132803,103428
132857,103451
132903,103489
132900,103471
132957,103508
132982,103495
133010,103492
133023,103483
133044,103499
133062,103557
133091,103532
133155,103582
133110,103523
133162,103549
133164,103579
133165,103559
133145,103556
133137,103518
133132,103521
133064,103514
133038,103494
132962,103447
132906,103432
132763,103377
132706,103325
132600,103325
132524,103250
132400,103236
132256,103184
132214,103138
132088,103133
131958,103033
131868,103006
131709,102969
131682,102948
131539,102911
131458,102853
131362,102818
131310,102824
131231,102785
131164,102737
131092,102757
131012,102694
130994,102687
130908,102666
130901,102659
130858,102670
130796,102625
130799,102601
130791,102674
130773,102632
130760,102631
130766,102589
130776,102664
130775,102638
130791,102653
130780,102643
130750,102615
130804,102617
130798,102675
130827,102653
130840,102665
130878,102678
130887,102680
130924,102687
130958,102699
130950,102713
130970,102711
131009,102714
131061,102763
131090,102722
131156,102774
131145,102759
131230,102801
131255,102825
131283,102819
131387,102857
131345,102846
131402,102873
131451,102871
131493,102897
131525,102898
131540,102933
131550,102940
131628,102934
131621,102954
131637,102961
131643,102921
131691,102980
131738,102970
131739,102974
131765,102981
131726,102964
131776,103002
131787,102974
131751,102992
131798,102986
131781,102974
131802,102998
131787,102989
131799,102989
131768,102965
131756,102962
131752,102989
131804,102994
131791,102976
131750,102947
131777,102980
131793,102991
131774,102983
131785,102979
131790,102979
131776,102961
131830,102970
131827,102993
131863,102995
131847,103020
131831,102985
131896,103013
131915,103001
131923,103037
131958,103013
131979,103062
131984,103083
132044,103073
132035,103084
132086,103071
132068,103103
132123,103070
132139,103123
132155,103103
132171,103150
132190,103110
132222,103180
132255,103138
132276,103163
132308,103177
132331,103183
132344,103206
132392,103215
132378,103231
132398,103227
132454,103229
132474,103274
132489,103255
132505,103260
132566,103274
132573,103279
132597,103250
132611,103307
132630,103314
132644,103306
132673,103290
132733,103320
132765,103328
132763,103356
132765,103332
132808,103351
132832,103408
132841,103382
132871,103406
132899,103372
132894,103408
132993,103404
133048,103415
133010,103448
133038,103452
133076,103439
133073,103472
133132,103499
133143,103466
133165,103498
133150,103512
133176,103467
133178,103484
133195,103505
133123,103474
133114,103444
133151,103469
133101,103437
133024,103434
132976,103376
132950,103362
132855,103369
132761,103323
132714,103286
132603,103233
132570,103201
132450,103218
132338,103142
132295,103119
132185,103067
132100,103058
132011,103004
131974,102959
131910,102948
131782,102936
131727,102889
131725,102937
131635,102891
131571,102861
131538,102802
131504,102813
131481,102823
131476,102815
131421,102807
131403,102760
131400,102786
131362,102785
131398,102772
131350,102781
131314,102783
131325,102753
131395,102821
131378,102783
131383,102794
131374,102784
131396,102790
131473,102803
131453,102854
131456,102796
131493,102811
131534,102838
131595,102859
131575,102854
131612,102834
131650,102863
131669,102911
131737,102925
131729,102918
131791,102966
131787,102934
131867,102940
131909,102992
131923,102990
131971,102988
132003,102996
132052,103045
132064,103029
132114,103033
132165,103064
132159,103082
132241,103118
132232,103095
132243,103095
132290,103110
132280,103085
132305,103093
132354,103122
132325,103136
132331,103104
132347,103122
132328,103129
132368,103149
132353,103115
132392,103159
132346,103090
132358,103111
132396,103152
132370,103112
132415,103125
132392,103134
132379,103116
132417,103140
132415,103141
132418,103132
132399,103100
132462,103164
132438,103135
132452,103140
132490,103175
132454,103124
132487,103192
132496,103138
132505,103136
132532,103151
132546,103184
132553,103203
132570,103185
132563,103169
132584,103214
132607,103200
132631,103206
132622,103220
132643,103193
132683,103233
132659,103213
132725,103236
132728,103243
132763,103236
132760,103243
132783,103275
132838,103283
132865,103315
132879,103304
132907,103297
132902,103313
132912,103321
132982,103309
132952,103329
133002,103335
132972,103332
133059,103364
133066,103389
133072,103365
133100,103361
133122,103389
133157,103432
133168,103403
133202,103390
133224,103415
133260,103411
133254,103458
133278,103465
133352,103457
133317,103455
133352,103459
133391,103459
133427,103486
133467,103512
133435,103498
133457,103468
133531,103537
133541,103521
133583,103561
133546,103537
133561,103521
133670,103588
133617,103576
133684,103594
133670,103588
133626,103606
133677,103566
133712,103591
133668,103583
133635,103565
133597,103545
133592,103545
133594,103498
133518,103487
133432,103450
133375,103431
133351,103408
133303,103408
133213,103362
133123,103290
133101,103316
133085,103284
132997,103265
132941,103281
132858,103230
132846,103189
132812,103229
132747,103196
132730,103170
132678,103156
132707,103203
132650,103171
132634,103147
132640,103144
132557,103152
132588,103120
132637,103188
132589,103135
132592,103148
132587,103130
132631,103156
132621,103184
132594,103154
132662,103141
132623,103156
132604,103183
132671,103192
132671,103186
132663,103207
132679,103171
132692,103189
132741,103183
132778,103217
132781,103227
132807,103225
132795,103249
132861,103256
132889,103268
132905,103310
132895,103260
132967,103272
133011,103347
133012,103316
133046,103305
133075,103343
133081,103359
133127,103345
133175,103368
133149,103374
133166,103366
133216,103395
133224,103392
133273,103384
133245,103417
133249,103395
133309,103412
133348,103395
133323,103406
133292,103383
133307,103383
133358,103428
133355,103419
133363,103430
133388,103430
133348,103434
133374,103403
133389,103417
133392,103446
133389,103419
133390,103409
133411,103407
133451,103463
133426,103414
133398,103457
133419,103436
133425,103437
133466,103441
133488,103461
133491,103454
133443,103446
133506,103466
133518,103446
133548,103504
133501,103453
133558,103478
133562,103493
133579,103485
133574,103491
133549,103491
133589,103479
133623,103520
133654,103502
133619,103516
133653,103522
133665,103489
133684,103556
133724,103566
133687,103529
133726,103528
133716,103538
133761,103554
133800,103597
133796,103568
133778,103527
133780,103563
133842,103614
133853,103595
133875,103594
133885,103599
133885,103608
133933,103627
133938,103627
133969,103646
133932,103641
133973,103612
133985,103660
134017,103672
134044,103643
134016,103648
134037,103659
134075,103678
134118,103688
134100,103691
134116,103702
134145,103708
134145,103714
134194,103683
134188,103740
134180,103701
134232,103713
134239,103715
134252,103751
134277,103721
134237,103758
134289,103740
134302,103758
134311,103743
134361,103785
134350,103766
134335,103781
134403,103803
134396,103794
134401,103757
134396,103791
134450,103802
134454,103807
134426,103808
134442,103788
134446,103785
134416,103763
134443,103782
134393,103797
134330,103728
134302,103741
134253,103702
134208,103690
134186,103644
134109,103658
134055,103593
133979,103613
133984,103569
133926,103565
133869,103500
133769,103484
133743,103507
133695,103477
133653,103442
133638,103439
133559,103430
133578,103423
133569,103408
133507,103407
133506,103415
133483,103364
133478,103411
133458,103361
133460,103405
133466,103392
133417,103390
133446,103388
133419,103422
133442,103392
133435,103404
133427,103357
133489,103418
133496,103423
133461,103412
133474,103429
133483,103391
133543,103437
133525,103431
133565,103444
133583,103429
133538,103443
133561,103455
133625,103461
133631,103490
133636,103445
133620,103465
133665,103500
133675,103503
133688,103477
133749,103532
133719,103483
133798,103503
133848,103566
133797,103545
133853,103510
133835,103547
133899,103576
133908,103566
133921,103559
133973,103612
133946,103576
134008,103591
134000,103613
133983,103606
134024,103611
134040,103591
134037,103618
134030,103620
134073,103607
134033,103599
134056,103605
134068,103619
134097,103607
134112,103639
134100,103611
134065,103603
134081,103661
134078,103622
134085,103613
134134,103641
134075,103624
134132,103646
134107,103645
134103,103620
134153,103644
134105,103640
134161,103653
134171,103632
134140,103660
134151,103641
134166,103629
134197,103679
134201,103649
134262,103711
134189,103630
134234,103647
134265,103680
134279,103693
134272,103680
134256,103682
134302,103698
134304,103691
134331,103704
134340,103718
134320,103704
134336,103693
134374,103736
134375,103709
134385,103736
134383,103693
134410,103756
134462,103748
134470,103767
134442,103748
134476,103780
134489,103779
134534,103785
134538,103784
134533,103775
134494,103777
134539,103773
134589,103808
134586,103795
134607,103798
134610,103775
134649,103823
134628,103819
134686,103839
134679,103821
134676,103824
134710,103841
134713,103854
134746,103848
134727,103880
134761,103837
134730,103849
134796,103892
134789,103899
134797,103865
134810,103882
134845,103895
134836,103904
134874,103892
134850,103914
134914,103897
134887,103929
134952,103953
134944,103929
134976,103946
134942,103960
134943,103941
135015,103950
135033,103965
135016,103978
134986,103932
135043,103938
135097,104015
135080,103961
135093,103981
135086,103994
135090,103973
135135,103991
135146,104007
135123,104001
135100,103985
135137,103995
135152,103983
135121,103984
135081,103980
135073,103934
135043,103955
135031,103931
134999,103897
134934,103889
134856,103850
134864,103825
134794,103819
134738,103828
134715,103780
134625,103772
134576,103737
134612,103756
134527,103721
134516,103743
134430,103670
134443,103664
134436,103705
134375,103668
134384,103665
134304,103649
134357,103651
134319,103636
134348,103642
134307,103619
134257,103608
134285,103653
134310,103626
134287,103645
134272,103656
134290,103657
134284,103654
134310,103680
134276,103676
134317,103640
134315,103672
134307,103682
134367,103663
134336,103683
134364,103676
134325,103692
134345,103666
134352,103681
134375,103673
134345,103700
134349,103685
134425,103709
134431,103689
134447,103716
134412,103717
134435,103682
134489,103759
134483,103708
134493,103721
134493,103758
134496,103728
134566,103750
134600,103784
134592,103781
134589,103747
134603,103786
134606,103785
134648,103803
134655,103799
134653,103754
134672,103808
134685,103817
134683,103805
134714,103798
134681,103787
134700,103806
134730,103808
134728,103813
134693,103800
134742,103776
134716,103810
134719,103812
134737,103787
134766,103793
134705,103794
134695,103780
134780,103813
134747,103839
134735,103772
134741,103776
134784,103797
134799,103800
134803,103830
134768,103813
134801,103811
134813,103816
134804,103858
134833,103820
134819,103845
134792,103812
134861,103818
134862,103850
134865,103839
134871,103858
134884,103825
134909,103825
134921,103874
134928,103878
134923,103855
134943,103870
134942,103880
134974,103907
134999,103882
135014,103883
134968,103896
135029,103910
135046,103920
135030,103899
135075,103930
135078,103926
135079,103932
135091,103953
135100,103922
135161,103963
135130,103952
135126,103947
135217,103992
135205,103965
135180,103976
135218,103985
135227,103985
135258,104006
135280,104008
135269,103994
135271,103999
135292,103996
135341,104028
135327,104035
135358,104026
135351,104013
135371,104027
135408,104041
135414,104049
135420,104062
135433,104042
135422,104050
135456,104077
135501,104063
135468,104071
135478,104071
135501,104093
135520,104089
135540,104092
135561,104112
135537,104089
135554,104098
135604,104114
135587,104117
135572,104100
135576,104081
135611,104099
135657,104144
135655,104121
135637,104142
135664,104143
135673,104153
135712,104154
135729,104159
135751,104141
135736,104151
135761,104176
135809,104157
135772,104180
135804,104218
135768,104160
135856,104186
135857,104220
135865,104218
135880,104188
135874,104178
135876,104242
135903,104223
135900,104208
135919,104220
135903,104217
135945,104211
135919,104215
135926,104215
135879,104158
135852,104175
135829,104150
135825,104181
135767,104128
135666,104114
135638,104069
135651,104088
135602,104061
135519,104018
135501,104036
135417,104007
135430,103971
135380,103969
135332,103957
135319,103947
135305,103906
135243,103916
135238,103956
135248,103913
135186,103909
135151,103875
135224,103909
135173,103898
135167,103904
135137,103910
135138,103878
135138,103927
135155,103891
135125,103910
135131,103874
135147,103891
135153,103894
135158,103909
135149,103927
135142,103882
135146,103871
135173,103951
135170,103913
135191,103931
135173,103908
135202,103937
135173,103907
135200,103929
135161,103926
135198,103901
135220,103953
135184,103914
135227,103906
135269,103942
135219,103900
135237,103951
135272,103968
135292,103973
135255,103954
135261,103925
135309,103931
135345,103976
135325,103984
135327,103932
135332,103977
135329,103980
135399,104007
135387,103999
135394,104008
135357,103990
135364,103972
135407,103980
135401,104008
135383,103980
135336,103993
135379,103991
135390,103985
135407,103960
135356,104014
135392,103968
135363,103961
135428,104005
135384,103977
135378,103994
135373,103960
135370,103975
135413,104011
135388,103958
135445,103982
135395,103976
135399,103988
135380,103985
135419,103969
135395,103984
135384,103969
135414,103969
135426,104013
135410,103998
135400,103994
135393,103936
135457,104000
135469,104003
135450,103986
135471,103998
135483,103986
135454,104010
135500,104019
135540,104044
135505,104008
135500,103990
135551,104025
135529,104080
135525,103992
135575,104010
135562,104020
135551,104065
135570,104050
135638,104059
135599,104053
135586,104010
135645,104070
135639,104069
135629,104045
135710,104072
135659,104097
135701,104090
135736,104091
135706,104103
135750,104118
135738,104090
135752,104085
135782,104101
135819,104098
135808,104106
135855,104125
135814,104160
135864,104119
135859,104134
135891,104123
135856,104121
135936,104173
135967,104166
135920,104193
135905,104167
135898,104144
135969,104226
135966,104159
136001,104162
135993,104213
135993,104177
136014,104192
136027,104200
136044,104207
136029,104190
136040,104176
136072,104231
136078,104230
136096,104192
136076,104233
136070,104220
136155,104234
136171,104250
136152,104242
136190,104256
136162,104296
136166,104234
136201,104259
136207,104279
136206,104245
136225,104232
136259,104295
136233,104270
136241,104262
136255,104282
136277,104293
136290,104269
136324,104314
136299,104318
136313,104269
136331,104286
136346,104323
136339,104304
136385,104311
136346,104347
136346,104300
136419,104326
136410,104355
136429,104348
136357,104331
136380,104299
135807,104090
135735,104055
135687,104039
135695,104054
135688,104041
135597,104002
135593,103993
135564,103982
135546,104019
135532,103957
135508,103986
135471,103964
135499,103973
135499,103980
135467,103957
135461,103959
135432,103925
135418,103941
135478,103962
135448,103964
135439,103969
135424,103921
135400,103949
135444,103946
135467,103972
135407,103944
135422,103923
135400,103942
135458,103943
135463,103968
135393,103944
135422,103937
135433,103946
135406,103940
135407,103971
135435,103943
135433,103923
135427,103943
135465,103943
135477,103969
135449,103978
135469,103954
135481,103975
135506,103976
135523,103996
135485,103973
135490,103966
135483,103980
135561,103989
135499,103972
135559,103997
135528,103966
135515,104007
135568,103966
135522,103980
135518,103990
135493,103974
135541,103986
135504,103979
135514,103965
135495,103970
135490,103939
135484,103940
135502,103941
135492,103968
135451,103918
135443,103919
135478,103956
135441,103945
135426,103902
135489,103934
135471,103953
135443,103955
135491,103957
135486,103963
135426,103897
135438,103909
135500,103951
135466,103970
135443,103939
135496,103941
135457,103945
135512,103937
135496,103939
135496,103938
135465,103916
135460,103918
135508,103948
135518,103945
135506,103945
135525,103941
135500,103925
135539,103974
135581,103969
135546,103959
135549,103950
135546,103972
135593,103980
135575,103969
135599,103996
135605,103968
135576,103988
135646,104009
135629,103993
135671,104009
135657,103988
135632,103995
135711,104036
135707,103995
135686,104026
135715,104004
135708,104028
135751,104029
135736,104027
135738,104045
135749,104029
135751,104025
135800,104074
135771,104059
135776,104019
135820,104046
135782,104063
135794,104089
135804,104053
135868,104055
135812,104078
135852,104062
135873,104097
135862,104091
135912,104071
135856,104084
135882,104080
135934,104090
135916,104107
135948,104076
135894,104095
135956,104090
135988,104122
135977,104125
135985,104154
135981,104096
135989,104117
136013,104154
136016,104136
136038,104130
136038,104109
136043,104156
136089,104170
136072,104185
136053,104134
136093,104156
136102,104168
136124,104167
136163,104176
136094,104195
136139,104159
136124,104187
136148,104216
136168,104185
136215,104190
136171,104186
136203,104217
136217,104207
136233,104212
136183,104196
136164,104165
136192,104179
136142,104175
136140,104160
136083,104091
136025,104132
136032,104103
136013,104120
135944,104079
135929,104064
135865,104034
135834,104041
135836,104007
135762,104022
135687,103977
135682,103951
135667,103935
135639,103960
135583,103947
135607,103957
135543,103896
135538,103932
135526,103918
135552,103930
135512,103909
135480,103910
135477,103899
135514,103920
135453,103922
135473,103935
135450,103871
135525,103893
135489,103941
135499,103900
135492,103941
135472,103877
135535,103938
135502,103910
135535,103912
135527,103912
135553,103915
135513,103970
135574,103945
135545,103946
135535,103920
135575,103924
135592,103959
135599,103992
135588,103953
135648,103938
135626,103950
135653,103975
135704,104017
135680,103982
135666,103991
135681,103971
135730,104010
135763,104017
135767,104017
135765,104019
135736,104001
135780,104001
135840,104047
135840,104018
135807,104020
135779,104019
135846,104018
135874,104066
135834,104037
135845,104027
135856,104026
135839,104046
135868,104053
135877,104071
135829,104020
135853,104048
135880,104035
135873,104036
135901,104040
135854,104018
135889,104018
135896,104093
135889,104066
135900,104036
135900,104070
135860,104041
135939,104035
135911,104041
135946,104047
135923,104083
135892,104037
135984,104072
135951,104100
135974,104049
135968,104095
135971,104071
136035,104063
136046,104104
136006,104108
136015,104084
136036,104087
136054,104082
136097,104117
136085,104123
136061,104083
136093,104117
136123,104151
136149,104118
136156,104132
136112,104122
136147,104126
136209,104126
136212,104145
136170,104175
136156,104115
136223,104141
136230,104181
136270,104169
136295,104200
136333,104202
136347,104204
136348,104202
136361,104219
136368,104225
136370,104217
136408,104225
136400,104244
136423,104213
136420,104235
136445,104224
136488,104271
136447,104210
136491,104268
136480,104283
136485,104259
136563,104281
136513,104234
136516,104254
136607,104273
136619,104298
136620,104301
136570,104260
136626,104304
136651,104309
136639,104319
136657,104319
136653,104300
136735,104323
136706,104350
136721,104332
136720,104341
136776,104338
136762,104377
136789,104341
136837,104365
136804,104379
136832,104343
136793,104398
136844,104378
136884,104377
136840,104390
136822,104361
136908,104400
136910,104391
136933,104419
136886,104375
136914,104381
136903,104371
136901,104405
136869,104369
136871,104340
136790,104341
136808,104336
136764,104324
136724,104278
136721,104311
136667,104272
136657,104278
136659,104268
136610,104268
136635,104243
136597,104241
136576,104270
136628,104242
136605,104252
136582,104259
136548,104242
136621,104243
136633,104272
136607,104277
136638,104233
136601,104237
136676,104279
136674,104291
136688,104279
136716,104311
136662,104302
136711,104289
136715,104324
136705,104312
136729,104298
136792,104317
136759,104382
136801,104324
136808,104358
136834,104342
136841,104352
136841,104365
136872,104351
136867,104349
136896,104352
136853,104357
136950,104361
136940,104422
136919,104375
136940,104397
136934,104384
136994,104415
137014,104416
137047,104433
137001,104378
137049,104402
137072,104467
137100,104438
137066,104427
137097,104446
137114,104432
137149,104437
137149,104462
137144,104472
137157,104432
137163,104449
137154,104497
137197,104496
137180,104462
137148,104453
137173,104444
137241,104515
137212,104469
137176,104455
137223,104451
137204,104463
137193,104480
137232,104470
137236,104484
137233,104451
137205,104485
137271,104473
137271,104512
137233,104461
137252,104481
137224,104491
137265,104491
137282,104490
137271,104537
137277,104466
137307,104497
137349,104522
137347,104508
137324,104476
137332,104495
137338,104539
137380,104516
137382,104524
137388,104543
137346,104518
137372,104532
137438,104558
137400,104550
137446,104557
137434,104547
137429,104563
137494,104585
137477,104568
137491,104576
137461,104556
137500,104577
137547,104575
137504,104568
137555,104602
137547,104578
137570,104596
137616,104598
137553,104608
137601,104607
137598,104587
137635,104610
137614,104617
137666,104622
137637,104622
137658,104590
137677,104630
137705,104632
137704,104644
137678,104641
137702,104611
137753,104656
137748,104661
137761,104682
137782,104658
137785,104675
137761,104659
137823,104664
137815,104671
137833,104674
137819,104701
137829,104667
137897,104717
137871,104712
137898,104717
137858,104688
137896,104681
137935,104749
137915,104706
137931,104688
137948,104690
137979,104722
137953,104733
138003,104720
137963,104723
137983,104718
138008,104759
138022,104734
138039,104727
138043,104765
138039,104743
138068,104770
138112,104772
138111,104767
138073,104755
138076,104747
138132,104796
138126,104781
138128,104759
138155,104780
138130,104761
138119,104805
138125,104774
138150,104770
138078,104761
138063,104730
138043,104709
138046,104725
137995,104695
137909,104683
137925,104656
137923,104679
137885,104650
137830,104637
137848,104636
137808,104617
137836,104634
137841,104631
137805,104605
137794,104626
137793,104585
137797,104629
137838,104652
137858,104629
137817,104625
137824,104626
137887,104641
137859,104657
137904,104669
137885,104624
137909,104660
137927,104669
137951,104688
138005,104680
137953,104680
137960,104685
138020,104737
138051,104697
138033,104714
138061,104715
138039,104703
138087,104748
138116,104744
138088,104747
138122,104748
138120,104730
138151,104768
138139,104761
138189,104772
138163,104754
138146,104745
138215,104808
138225,104773
138213,104783
138257,104785
138254,104779
138276,104796
138309,104824
138303,104802
138318,104796
138301,104790
138366,104851
138385,104828
138364,104837
138367,104836
138388,104858
138436,104842
138409,104856
138435,104866
138405,104834
138398,104863
138475,104868
138413,104835
138441,104856
138443,104840
138412,104847
138464,104877
138453,104835
138434,104850
138462,104847
138423,104870
138466,104879
138473,104887
138440,104851
138467,104877
138445,104855
138486,104867
138495,104874
138503,104883
138493,104873
138515,104888
138499,104892
138555,104901
138559,104892
138526,104878
138503,104892
138571,104911
138553,104896
138538,104892
138583,104906
138569,104907
138609,104915
138635,104916
138600,104887
138623,104924
138646,104929
138640,104920
138675,104922
138665,104944
138658,104924
138676,104926
138734,104953
138726,104939
138725,104958
138733,104925
138720,104965
138773,104979
138742,104938
138752,104954
138739,104935
138771,104977
138819,104963
138792,104962
138806,104978
138799,104978
138845,104983
138839,105011
138844,104993
138861,105002
138877,104985
138855,105023
138914,105000
138917,105026
138909,105016
138883,104994
138951,105037
138958,105037
138960,105022
138976,105021
138944,105028
138979,105028
139009,105056
139032,105034
138996,105049
139019,105026
138999,105055
139070,105057
139055,105055
139052,105044
139068,105031
139053,105082
139110,105080
139088,105073
139114,105071
139096,105056
139100,105096
139138,105101
139138,105097
139135,105082
139123,105066
139154,105082
139206,105133
139181,105116
139205,105101
139158,105088
139202,105122
139238,105130
139215,105118
139205,105109
139206,105098
139272,105158
139276,105145
139228,105146
139268,105153
139246,105125
139237,105120
139254,105112
139244,105127
139180,105093
139166,105070
139173,105080
139162,105063
139101,105056
139060,105010
139033,105028
139009,105027
138990,104991
138962,104959
138941,104966
138907,104969
138904,104984
138875,104952
138908,104961
138886,104951
138913,104940
138909,104972
138953,104984
138896,104989
138935,104989
138931,104947
138966,105010
138964,105013
138992,104976
139004,105002
138984,104997
139013,105062
139071,105022
139028,105021
139062,105033
139066,105008
139136,105044
139144,105055
139121,105075
139143,105035
139136,105094
139197,105040
139208,105075
139189,105082
139211,105081
139187,105083
139227,105111
139217,105120
139241,105060
139210,105096
139244,105081
139276,105109
139291,105132
139253,105081
139286,105125
139301,105121
139293,105118
139349,105139
139368,105137
139364,105131
139343,105185
139360,105138
139382,105143
139402,105175
139390,105136
139434,105182
139436,105145
139436,105153
139467,105192
139440,105146
139430,105177
139445,105147
139501,105175
139433,105196
139422,105176
139441,105181
139447,105183
139478,105202
139458,105156
139418,105170
139467,105164
139473,105199
139453,105174
139455,105153
139436,105132
139453,105188
139491,105171
139479,105165
139424,105168
139484,105174
139451,105179
139480,105191
139490,105188
139469,105165
139486,105181
139500,105171
139493,105179
139515,105192
139492,105171
139480,105167
139517,105203
139531,105207
139551,105186
139534,105179
139500,105178
139556,105191
139558,105188
139554,105181
139581,105194
139554,105161
139596,105201
139606,105212
139594,105197
139597,105197
139593,105168
139608,105207
139654,105238
139643,105218
139648,105229
139611,105204
139649,105235
139655,105202
139684,105235
139655,105235
139646,105209
139698,105225
139675,105228
139686,105228
139706,105217
139729,105241
139725,105270
139715,105255
139760,105272
139727,105248
139730,105216
139783,105279
139800,105287
139738,105257
139782,105242
139759,105252
139764,105274
139809,105264
139844,105260
139776,105284
139772,105280
139847,105316
139844,105301
139833,105251
139838,105292
139855,105290
139883,105284
139908,105294
139854,105290
139882,105282
139854,105277
139906,105314
139927,105286
139923,105317
139931,105293
139891,105305
139927,105322
139959,105285
139920,105328
139924,105328
139907,105298
139955,105358
139933,105330
139986,105291
139949,105340
139975,105322
139983,105370
139982,105335
140045,105334
139989,105321
140021,105351
140022,105356
140023,105348
140039,105304
140002,105336
140018,105306
140051,105318
140045,105331
139973,105351
139976,105301
139939,105290
139934,105303
139928,105279
139901,105269
139860,105255
139794,105237
139841,105245
139778,105246
139747,105203
139720,105178
139699,105204
139726,105197
139724,105215
139661,105167
139668,105184
139675,105190
139690,105173
139697,105203
139722,105182
139665,105179
139704,105205
139760,105245
139731,105208
139755,105195
139732,105206
139789,105247
139804,105252
139797,105208
139819,105270
139820,105248
139852,105260
139925,105274
139894,105265
139886,105265
139887,105252
139879,105270
139953,105269
139935,105276
139955,105260
139950,105274
139935,105290
140018,105301
139979,105325
139966,105268
139979,105276
140013,105323
139999,105323
139998,105299
140061,105327
140019,105300
140044,105318
140086,105330
140082,105318
140109,105336
140099,105309
140100,105372
140141,105353
140139,105377
140124,105316
140090,105344
140177,105375
140160,105379
140185,105366
140133,105347
140144,105338
140180,105341
140181,105381
140149,105340
140178,105334
140171,105357
140130,105341
140181,105360
140171,105371
140128,105338
140146,105345
140146,105355
140196,105367
140182,105388
140130,105315
140136,105322
140149,105362
140165,105321
140207,105360
140146,105343
140122,105324
140199,105337
140172,105351
140197,105362
140162,105325
140181,105358
140214,105360
140208,105394
140204,105358
140196,105386
140181,105369
140207,105371
140231,105366
140280,105386
140242,105360
140232,105379
140240,105432
140252,105376
140238,105371
140286,105358
140229,105370
140295,105378
140300,105372
140330,105400
140283,105354
140269,105371
140310,105407
140306,105383
140335,105370
140315,105412
140294,105400
140337,105410
140348,105423
140320,105366
140316,105408
140352,105378
140384,105395
140390,105441
140384,105414
140377,105404
140379,105397
140401,105422
140436,105392
140414,105454
140396,105391
140403,105393
140425,105463
140434,105444
140433,105441
140426,105416
140417,105424
140443,105436
140463,105435
140466,105448
140426,105420
140449,105418
140507,105473
140480,105439
140449,105432
140454,105425
140446,105424
140482,105431
140470,105460
140486,105463
140479,105425
140463,105426
140529,105462
140539,105471
140537,105473
140505,105455
140526,105443
140534,105482
140553,105457
140533,105478
140570,105464
140558,105443
140600,105486
140590,105502
140541,105457
140575,105469
140584,105487
140563,105468
140612,105470
140637,105500
140605,105488
140605,105488
140599,105500
140617,105476
140621,105510
140606,105456
140539,105493
140548,105480
140540,105434
140505,105442
140444,105424
140416,105409
140472,105403
140401,105399
140388,105393
140305,105376
140288,105334
140358,105397
140318,105365
140324,105373
140258,105312
140286,105357
140292,105375
140351,105378
140322,105364
140291,105344
140317,105372
140364,105384
140342,105380
140373,105395
140354,105376
140388,105392
140348,105399
140394,105432
140399,105372
140407,105377
140419,105423
140469,105425
140436,105424
140455,105393
140475,105382
140503,105475
140505,105457
140504,105429
140531,105473
140481,105437
140553,105456
140557,105489
140539,105459
140555,105478
140541,105443
140572,105449
140626,105485
140605,105498
140599,105438
140572,105426
140632,105477
140602,105483
140640,105486
140637,105477
140639,105451
140680,105491
140690,105513
140708,105494
140661,105499
140690,105447
140725,105533
140746,105552
140694,105517
140731,105517
140671,105494
140728,105503
140707,105532
140754,105500
140737,105517
140713,105508
140720,105484
140719,105503
140752,105497
140712,105515
140704,105494
140704,105495
140771,105529
140722,105536
140718,105477
140664,105492
140763,105529
140736,105482
140728,105502
140697,105479
140681,105482
140717,105502
140745,105499
140722,105525
140707,105486
140691,105458
140773,105553
140724,105523
140753,105502
140754,105523
140732,105516
140788,105495
140761,105535
140752,105500
140782,105511
140770,105491
140790,105523
140790,105545
140788,105526
140809,105516
140789,105550
140798,105517
140821,105523
140827,105503
140830,105522
140787,105540
140854,105548
140889,105536
140847,105574
140820,105523
140866,105542
140883,105548
140885,105551
140874,105555
140897,105550
140860,105572
140896,105548
140915,105543
140947,105536
140903,105563
140902,105545
140923,105584
140940,105570
140923,105560
140899,105534
140914,105523
140970,105589
140948,105577
140975,105558
140950,105560
140932,105567
141001,105579
140981,105575
140960,105583
140964,105551
141008,105570
141013,105589
141021,105590
141035,105576
141026,105583
141008,105579
141064,105606
141043,105619
141058,105617
140992,105585
141037,105588
141047,105620
141018,105614
141039,105580
141061,105557
141058,105631
141083,105588
141087,105630
141068,105619
141047,105596
141094,105575
141095,105654
141096,105594
141099,105639
141076,105605
141116,105628
141109,105597
141143,105633
141143,105619
141115,105627
141107,105593
141150,105637
141135,105616
141158,105635
141120,105647
141135,105620
141101,105636
141121,105632
141133,105616
141078,105597
141097,105588
141085,105568
141037,105577
141009,105569
140952,105541
140912,105521
140905,105539
140886,105471
140843,105490
140778,105447
140814,105472
140764,105457
140796,105461
140764,105460
140714,105419
140752,105449
140760,105453
140775,105437
140730,105443
140735,105438
140737,105463
140762,105464
140765,105464
140803,105456
140791,105457
140799,105485
140821,105474
140818,105496
140823,105475
140843,105485
140848,105512
140898,105495
140905,105544
140917,105488
140899,105491
140904,105551
140945,105552
140939,105512
140938,105564
140921,105527
140970,105517
140972,105557
140980,105551
140971,105539
140938,105540
141013,105552
141025,105570
140992,105550
141012,105550
140970,105539
141046,105525
141060,105562
141008,105563
141040,105531
141059,105547
141060,105563
141071,105589
141074,105554
141104,105576
141118,105580
141120,105578
141122,105591
141132,105583
141136,105584
141084,105586
141157,105603
141160,105582
141159,105596
141142,105613
141107,105589
141161,105565
141172,105607
141136,105593
141115,105569
141092,105578
141149,105614
141149,105585
141130,105592
141116,105593
141103,105615
141134,105573
141148,105606
141131,105604
141103,105574
141089,105557
141157,105613
141123,105581
141137,105588
141110,105563
141115,105578
141159,105601
141125,105585
141137,105590
141114,105566
141119,105573
141154,105594
141154,105608
141146,105603
141152,105589
141153,105577
141163,105596
141178,105588
141139,105594
141173,105564
141194,105597
141165,105616
141237,105614
141231,105615
141198,105605
141166,105596
141223,105600
141216,105630
141221,105626
141208,105603
141201,105582
141248,105649
141219,105612
141245,105586
141241,105600
141261,105638
141276,105621
141293,105636
141278,105658
141242,105585
141301,105658
141292,105627
141294,105618
141287,105647
141268,105611
141315,105624
141306,105653
141342,105639
141310,105651
141278,105610
141345,105592
141336,105666
141323,105629
141347,105650
141327,105631
141338,105653
141356,105662
141343,105643
141370,105675
141329,105642
141392,105649
141389,105635
141399,105641
141390,105640
141408,105636
141378,105630
141420,105677
141429,105652
141392,105657
141367,105628
141446,105669
141446,105670
141433,105687
141435,105656
141418,105656
141405,105675
141421,105687
141448,105665
141446,105687
141414,105676
141491,105656
141447,105684
141504,105679
141436,105677
141465,105669
141457,105693
141457,105704
141471,105682
141476,105692
141471,105689
141479,105707
141498,105711
141496,105697
141465,105698
141460,105662
141543,105721
141487,105721
141481,105669
141479,105681
141429,105671
141436,105630
141396,105659
141422,105641
141342,105634
141300,105585
141303,105587
141305,105595
141221,105572
141209,105547
141136,105544
141149,105520
141162,105518
141083,105507
141078,105505
141094,105525
141072,105507
141103,105534
141069,105498
141064,105525
141053,105500
141072,105502
141106,105506
141122,105522
141094,105497
141097,105510
141133,105528
141148,105553
141090,105524
141137,105553
141129,105533
141147,105554
141171,105546
141169,105519
141160,105553
141183,105518
141192,105536
141218,105586
141224,105563
141201,105556
141230,105579
141255,105597
141254,105591
141257,105556
141256,105593
141229,105573
141285,105611
141272,105598
141297,105562
141252,105586
141269,105587
141321,105604
141341,105629
141279,105603
141289,105607
141289,105574
141342,105608
141394,105620
141309,105640
141344,105604
141334,105602
141356,105636
141380,105611
141367,105606
141394,105641
141403,105639
141372,105655
141381,105620
141416,105610
141398,105622
141391,105638
141376,105643
141384,105606
141443,105646
141388,105593
141406,105616
141384,105650
141396,105626
141428,105601
141384,105599
141376,105645
141355,105611
141416,105586
141372,105635
141335,105604
141390,105587
141421,105644
141413,105601
141388,105634
141359,105618
141394,105595
141421,105631
141388,105612
141407,105621
141395,105599
141368,105630
141448,105623
141421,105629
141415,105608
141391,105588
141398,105636
141394,105611
141423,105604
141443,105629
141414,105599
141436,105632
141472,105653
141440,105639
141462,105639
141469,105613
141451,105644
141450,105623
141482,105641
141463,105641
141432,105627
141495,105648
141515,105646
141499,105666
141472,105620
141486,105618
141470,105620
141514,105623
141514,105634
141526,105638
141520,105633
141534,105678
141512,105639
141516,105632
141535,105624
141486,105642
141543,105656
141577,105681
141528,105660
141551,105653
141536,105635
141572,105640
141606,105696
141583,105646
141589,105677
141568,105654
141605,105685
141572,105674
141556,105636
141633,105688
141570,105672
141605,105675
141611,105684
141617,105640
141580,105690
141586,105654
141635,105718
141627,105666
141635,105657
141632,105699
141603,105664
141652,105666
141675,105695
141645,105707
141684,105691
141633,105673
141677,105703
141647,105716
141668,105664
141660,105718
141653,105692
141692,105716
141712,105715
141672,105660
141698,105726
141672,105707
141690,105725
141682,105699
141744,105735
141690,105691
141696,105691
141697,105698
141728,105749
141693,105673
141702,105729
141713,105699
141709,105689
141747,105703
141726,105687
141708,105687
141719,105686
141728,105692
141740,105707
141689,105696
141694,105682
141623,105654
141663,105662
141587,105659
141571,105605
141533,105607
141497,105599
141471,105591
141437,105559
141431,105591
141371,105529
141375,105562
141341,105569
141302,105529
141344,105529
141307,105536
141278,105553
141319,105537
141320,105529
141283,105557
141264,105544
141260,105508
141335,105565
141316,105567
141345,105535
141303,105536
141336,105561
141333,105574
141361,105566
141357,105531
141337,105531
141348,105551
141370,105578
141369,105576
141386,105567
141361,105547
141358,105587
141402,105579
141411,105600
141420,105600
141394,105576
141411,105576
141423,105613
141446,105575
141405,105581
141429,105582
141456,105575
141457,105591
141439,105597
141464,105596
141438,105571
141465,105591
141521,105613
141458,105589
141483,105598
141489,105610
141506,105606
141549,105627
141534,105640
141485,105603
141519,105589
141538,105633
141536,105634
141538,105591
141546,105637
141508,105568
141547,105599
141566,105641
141503,105617
141537,105582
141501,105587
141510,105613
141520,105592
141529,105585
141505,105624
141498,105591
141531,105594
141524,105596
141487,105581
141487,105612
141460,105525
141527,105606
141499,105582
141498,105579
141485,105558
141488,105585
141463,105595
141465,105617
141463,105582
141487,105547
141472,105540
141447,105571
141480,105584
141480,105545
141431,105563
141413,105542
141469,105545
141496,105548
141483,105562
141462,105545
141432,105543
141463,105536
141490,105554
141452,105568
141486,105545
141475,105540
141503,105563
141494,105566
141515,105539
141484,105571
141465,105534
141491,105578
141512,105548
141520,105567
141499,105540
141515,105537
141534,105542
141544,105580
141527,105585
141479,105580
141468,105546
141525,105590
141498,105563
141554,105554
141509,105557
141490,105551
141523,105567
141592,105562
141528,105600
141557,105539
141531,105559
141541,105569
141559,105564
141579,105573
141555,105531
141569,105556
141581,105587
141593,105592
141580,105555
141554,105588
141554,105565
141586,105592
141599,105578
141606,105559
141569,105564
141604,105560
141608,105598
141646,105619
141613,105569
141612,105556
141579,105564
141628,105620
141646,105581
141609,105587
141611,105560
141614,105586
141634,105562
141640,105562
141670,105598
141653,105572
141628,105589
141696,105597
141673,105586
141660,105604
141636,105589
141675,105576
141681,105599
141655,105578
141686,105619
141661,105575
141607,105571
141677,105570
141602,105565
141580,105574
141541,105529
141511,105505
141509,105502
141428,105488
141431,105474
141363,105456
141309,105428
141352,105469
141288,105433
141270,105436
141225,105386
141226,105431
141229,105370
141236,105395
141231,105388
141184,105378
141157,105390
141220,105382
141168,105396
141196,105393
141135,105374
141149,105350
141218,105382
141219,105389
141185,105376
141148,105369
141222,105388
141229,105413
141202,105389
141243,105406
141236,105369
141236,105413
141213,105399
141208,105391
141234,105401
141211,105402
141224,105413
141264,105390
141302,105433
141255,105429
141244,105378
141276,105402
141297,105423
141292,105442
141284,105390
141283,105417
141295,105430
141311,105417
141342,105435
141312,105430
141311,105406
141361,105446
141343,105455
141361,105432
141374,105426
141320,105424
141369,105423
141421,105467
141388,105436
141380,105419
141340,105430
141363,105424
141354,105428
141402,105421
141360,105414
141360,105409
141346,105398
141401,105422
141367,105461
141337,105396
141329,105357
141371,105386
141371,105393
141354,105432
141344,105371
141325,105379
141348,105414
141339,105422
141302,105392
141341,105378
141299,105383
141304,105367
141301,105360
141354,105395
141294,105391
141241,105341
141344,105389
141310,105398
141339,105374
141283,105383
141236,105328
141321,105421
141278,105373
141297,105360
141311,105400
141291,105348
141295,105380
141316,105360
141344,105370
141361,105374
141308,105347
141320,105392
141323,105390
141301,105383
141291,105325
141332,105328
141340,105389
141332,105379
141319,105369
141334,105357
141372,105376
141333,105388
141357,105358
141350,105358
141359,105377
141331,105331
141402,105397
141359,105374
141380,105364
141371,105359
141344,105350
141407,105404
141386,105409
141408,105358
141390,105376
141389,105334
141392,105402
141413,105372
141402,105367
141392,105349
141369,105359
141462,105394
141419,105381
141419,105403
141390,105369
141388,105331
141437,105387
141436,105400
141435,105359
141417,105357
141427,105392
141459,105364
141434,105381
141456,105376
141408,105346
141441,105351
141478,105416
141449,105391
141458,105372
141459,105344
141436,105346
141517,105384
141504,105414
141464,105400
141497,105372
141458,105379
141513,105391
141488,105404
141475,105340
141468,105364
141428,105339
141436,105381
141373,105353
141330,105314
141300,105282
141276,105273
141267,105276
141219,105249
141145,105244
141100,105194
141115,105216
141089,105204
141045,105159
141023,105192
140988,105171
140952,105180
141010,105196
140965,105148
140964,105159
140900,105127
140917,105154
140951,105169
140884,105150
140906,105162
140906,105122
140915,105159
140935,105164
140891,105139
140914,105147
140927,105131
140921,105145
140969,105143
140921,105132
140891,105146
140915,105112
140924,105166
140959,105141
140976,105156
140962,105172
140936,105125
140974,105191
140996,105178
140980,105183
140932,105138
140949,105101
140985,105179
140982,105164
140979,105156
141009,105152
140974,105159
140970,105142
141012,105167
140998,105130
141022,105161
140982,105132
141026,105192
141028,105185
141037,105150
141035,105159
141023,105147
141055,105185
141088,105185
141036,105143
141047,105151
141048,105117
141078,105167
141053,105161
141083,105168
141047,105175
140985,105156
141073,105157
141035,105165
141038,105175
141013,105118
141038,105122
141034,105177
141012,105147
141035,105142
140995,105135
140980,105089
141032,105169
141005,105152
141006,105125
141006,105098
140997,105122
140969,105083
140989,105121
140973,105125
140970,105086
140956,105093
140990,105120
140958,105099
140987,105105
140963,105084
140917,105112
140951,105076
140960,105080
140950,105066
140972,105069
140936,105081
140944,105061
140952,105089
140978,105109
140926,105071
140947,105039
140984,105107
140967,105084
140974,105067
140950,105060
140977,105085
140979,105052
141012,105076
140967,105090
140994,105063
140964,105051
140992,105107
140988,105095
140990,105087
140987,105041
141027,105096
141020,105085
141055,105127
141055,105101
141018,105085
141001,105057
141055,105119
141017,105097
141055,105107
140997,105067
141059,105053
141071,105117
141090,105094
141066,105103
141068,105103
141034,105057
141096,105129
141061,105115
141074,105111
141051,105098
141067,105117
141092,105107
141134,105080
141134,105140
141109,105108
141102,105096
141162,105150
141107,105126
141151,105095
141122,105115
141127,105098
141151,105143
141165,105115
141116,105092
141144,105073
141128,105121
141166,105138
141149,105102
141146,105109
141131,105077
141183,105130
141190,105113
141144,105100
141180,105102
141167,105086
141198,105149
141184,105106
141188,105110
141181,105093
141160,105096
141154,105112
141109,105103
141079,105055
141087,105072
140999,105009
140970,104996
140975,105025
140901,105024
140869,104952
140794,104940
140767,104906
140755,104945
140734,104907
140650,104887
140626,104855
140618,104914
140631,104859
140564,104874
140538,104838
140548,104817
140489,104877
140527,104846
140527,104827
140478,104835
140506,104819
140471,104838
140499,104860
140475,104824
140480,104850
140442,104829
140471,104827
140492,104824
140528,104839
140478,104820
140470,104813
140509,104824
140531,104863
140497,104851
140501,104806
140491,104819
140535,104862
140565,104839
140520,104851
140532,104836
140512,104803
140536,104839
140530,104842
140537,104799
140527,104849
140518,104810
140586,104868
140555,104856
140560,104828
140538,104794
140537,104814
140552,104833
140619,104859
140582,104858
140585,104815
140568,104831
140604,104859
140621,104874
140584,104834
140594,104845
140596,104821
140618,104863
140636,104852
140592,104882
140580,104816
140599,104819
140606,104805
140623,104844
140589,104808
140620,104830
140585,104820
140579,104826
140599,104823
140588,104833
140585,104825
140521,104797
140606,104809
140575,104817
140549,104798
140523,104795
140485,104803
140559,104789
140549,104794
140549,104805
140533,104776
140476,104770
140540,104815
140494,104743
140485,104741
140515,104771
140548,104772
140473,104781
140478,104738
140486,104781
140516,104786
140491,104760
140508,104767
140475,104724
140519,104764
140495,104779
140506,104775
140514,104737
140502,104750
140493,104796
140528,104758
140543,104780
140505,104769
140530,104780
140497,104776
140553,104754
140562,104809
140530,104773
140506,104759
140521,104747
140572,104773
140586,104782
140534,104760
140534,104756
140565,104790
140572,104763
140597,104784
140565,104749
140570,104755
140566,104776
140584,104772
140582,104779
140586,104773
140563,104796
140556,104756
140624,104795
140584,104782
140599,104797
140565,104780
140584,104763
140631,104808
140637,104773
140609,104791
140635,104743
140620,104779
140633,104823
140598,104766
140626,104765
140613,104763
140633,104806
140634,104791
140635,104759
140643,104801
140643,104767
140667,104777
140682,104817
140655,104782
140679,104786
140641,104802
140666,104765
140680,104777
140726,104833
140665,104788
140616,104747
140703,104821
140667,104789
140723,104813
140696,104792
140691,104786
140704,104795
140731,104835
140710,104831
140656,104818
140638,104731
140632,104779
140598,104750
140571,104735
140512,104731
140485,104687
140429,104674
140412,104643
140367,104650
140283,104605
140255,104609
140181,104586
140188,104571
140103,104583
140072,104518
140045,104515
140005,104566
139963,104526
139972,104496
139910,104501
139841,104449
139863,104472
139837,104465
139857,104472
139839,104435
139784,104433
139817,104460
139807,104460
139803,104439
139774,104416
139779,104405
139776,104415
139797,104434
139796,104394
139786,104432
139733,104400
139795,104438
139791,104404
139749,104404
139766,104416
139746,104413
139745,104425
139784,104411
139750,104431
139754,104382
139753,104411
139767,104407
139778,104386
139796,104406
139779,104367
139754,104400
139782,104412
139780,104443
139759,104381
139769,104398
139778,104408
139796,104404
139802,104396
139790,104438
139767,104385
139814,104387
139813,104434
139809,104413
139817,104409
139823,104415
139810,104428
139847,104394
139858,104417
139809,104412
139819,104405
139822,104384
139817,104412
139841,104436
139809,104382
139800,104373
139815,104403
139800,104434
139796,104400
139840,104369
139840,104405
139771,104386
139809,104384
139823,104411
139737,104353
139719,104344
139752,104352
139774,104420
139750,104358
139782,104382
139764,104340
139707,104366
139735,104339
