11111,11111
0,0
79371,79150
95152,94326
95217,94347
95221,94346
95209,94373
95173,94314
95198,94293
95266,94391
95253,94372
95261,94384
95231,94311
95291,94361
95321,94404
95345,94382
95296,94378
95294,94325
95300,94353
95330,94389
95379,94388
95378,94405
95314,94347
95344,94347
95366,94432
95408,94415
95421,94392
95375,94358
95385,94394
95454,94415
95483,94442
95440,94432
95447,94431
95501,94435
95517,94471
95533,94472
95511,94463
95543,94440
95566,94455
95573,94476
95626,94485
95574,94481
95610,94491
95585,94516
95663,94496
95703,94556
95708,94507
95697,94516
95662,94531
95767,94548
95748,94563
95644,94518
95553,94423
95471,94365
95281,94343
95017,94227
94733,94054
94434,93883
94226,93769
94013,93742
93805,93629
93641,93552
93436,93415
93249,93397
93169,93332
93053,93298
92935,93212
92821,93147
92754,93150
92670,93107
92627,93109
92494,93022
92373,93001
92331,92951
92357,93009
92254,92964
92224,92933
92121,92887
92109,92886
92121,92933
92039,92850
92044,92845
91969,92844
91954,92818
92018,92892
91989,92870
91975,92847
91918,92826
91954,92828
92070,92886
92024,92897
92042,92852
92027,92868
92028,92884
92116,92950
92117,92929
92160,92936
92102,92915
92124,92941
92212,92975
92143,92970
92219,92972
92146,92911
92240,92965
92246,93011
92264,93010
92240,92988
92230,92968
92270,92957
92340,93038
92309,93056
92308,92978
92334,92963
92336,93050
92417,93081
92428,93028
92420,93083
92403,93043
92486,93084
92567,93145
92569,93152
92590,93102
92571,93120
92616,93153
92712,93195
92673,93178
92646,93149
93102,93380
93107,93364
93775,93623
93824,93662
93842,93685
94207,93825
94278,93841
94298,93882
94298,93833
94588,93997
94523,93911
94580,93953
94617,93987
94658,94055
94614,93984
94640,94017
94623,94003
94726,94034
94742,94078
94722,94034
94755,94042
94749,94047
94847,94086
94834,94126
94820,94076
94813,94084
94854,94070
94953,94155
94942,94156
94916,94155
94923,94096
94980,94120
94985,94155
95035,94167
95022,94166
95004,94159
95019,94147
95135,94239
95151,94237
95121,94214
95133,94169
95131,94246
95235,94272
95256,94281
95241,94251
95265,94253
95295,94271
95384,94316
95352,94311
95374,94334
95361,94289
95407,94321
95481,94375
95504,94391
95520,94346
95458,94356
95534,94409
95600,94412
95594,94432
95619,94441
95537,94356
95513,94364
95496,94376
95300,94269
95085,94147
94818,94007
94564,93908
94308,93752
94062,93653
93751,93549
93522,93395
93394,93362
93228,93292
93100,93240
92948,93151
92802,93080
92715,93057
92639,93056
92570,92982
92495,92947
92407,92915
92337,92913
92279,92878
92249,92860
92185,92832
92072,92768
92069,92764
92066,92833
92029,92794
91984,92777
91926,92706
91999,92706
91947,92795
91996,92769
91974,92750
91924,92748
91990,92770
92005,92784
92037,92805
92008,92777
92018,92768
92068,92781
92139,92890
92150,92864
92125,92832
92154,92798
92195,92874
92223,92933
92282,92909
92276,92926
92222,92896
92319,92901
92353,92964
92364,92946
92319,92967
92313,92900
92403,92982
92393,92967
92406,92975
92422,92978
92338,92942
92423,92986
92448,92986
92469,92993
92458,92979
92436,92962
92476,93045
92525,93045
92558,93016
92556,93080
92548,93032
92640,93081
92660,93137
92641,93084
92677,93099
92611,93076
92703,93088
92690,93098
92700,93098
92652,93116
92607,93022
92702,93115
92683,93110
92657,93061
92670,93053
92620,93047
92660,93073
92623,93110
92616,93037
92620,93041
92539,93008
92567,93076
92637,93053
92576,93051
92539,93040
92492,92999
92561,93016
92524,93042
92531,92986
92515,93019
92441,92959
92534,93002
92538,93054
92517,93017
92529,92975
92487,93003
92557,93024
92553,93023
92566,93052
92549,93055
92527,92973
92630,93058
92644,93072
92646,93056
92628,93068
92622,93079
92692,93063
92774,93163
92751,93143
92770,93106
92765,93102
92844,93182
92861,93179
92901,93197
92896,93196
92872,93168
92962,93211
93011,93254
92987,93244
93053,93212
93000,93224
93110,93280
93147,93298
93177,93330
93118,93265
93174,93283
93258,93358
93280,93363
93276,93380
93321,93346
93316,93350
93422,93456
93427,93441
93448,93439
93438,93387
93467,93413
93520,93488
93607,93502
93600,93496
93549,93483
93578,93464
93668,93554
93690,93539
93724,93561
93710,93530
93731,93559
93769,93581
93866,93613
93832,93622
93814,93541
93821,93600
93942,93662
93936,93685
93923,93623
93942,93679
93931,93653
94045,93681
94046,93720
94078,93716
94010,93674
94086,93692
94082,93753
94129,93744
94149,93728
94112,93734
94151,93716
94273,93806
94246,93806
94264,93795
94244,93764
94295,93795
94326,93828
94384,93847
94360,93849
94384,93840
94389,93824
94464,93839
94474,93887
94459,93848
94490,93868
94503,93881
94582,93916
94611,93909
94579,93924
94601,93870
94629,93941
94654,93976
94710,93982
94701,93962
94703,93970
94735,93973
94858,94019
94831,94036
94877,94037
94847,93986
94907,94026
94962,94126
94982,94074
94969,94100
94997,94050
94997,94078
95122,94158
95117,94148
95121,94171
95140,94131
95163,94182
95231,94163
95252,94240
95245,94191
95240,94204
95307,94215
95413,94245
95430,94287
95435,94267
95467,94292
95487,94317
95554,94368
95615,94359
95653,94370
95612,94325
95693,94380
95710,94420
95736,94409
95595,94367
95445,94220
95361,94167
95126,94133
94840,93966
94555,93837
94210,93648
94012,93579
93769,93466
93580,93377
93352,93301
93162,93198
93090,93136
92947,93090
92890,93050
92753,93023
92632,92893
92625,92928
92558,92959
92484,92913
92432,92837
92320,92791
92313,92789
92335,92863
92266,92815
92235,92783
92189,92776
92159,92787
92235,92794
92190,92772
92168,92771
92158,92764
92228,92768
92226,92845
92246,92804
92256,92831
92256,92783
92333,92871
92370,92844
92441,92892
92419,92904
92426,92895
92502,92953
92568,92968
92635,92954
92611,93021
92614,92964
92664,93008
92756,93093
92765,93046
92805,93080
92732,93052
92861,93081
92887,93144
92903,93143
92960,93120
92872,93097
92997,93172
93025,93185
93023,93176
93051,93178
93052,93132
93153,93249
93202,93243
93222,93280
93226,93267
93285,93258
93359,93365
93425,93350
93460,93376
93452,93345
93461,93330
93515,93390
93568,93416
93520,93384
93552,93395
93477,93352
93538,93411
93593,93418
93542,93404
93467,93382
93499,93342
93517,93380
93525,93417
93493,93369
93487,93355
93447,93335
93501,93389
93508,93378
93490,93370
93440,93321
93406,93309
93457,93331
93502,93353
93448,93331
93414,93335
93406,93268
93452,93362
93479,93360
93433,93328
93430,93344
93396,93299
93495,93340
93502,93368
93514,93384
93514,93365
93480,93357
93559,93396
93599,93422
93615,93427
93592,93383
93631,93398
93694,93443
93736,93475
93771,93475
93759,93482
93756,93501
93800,93494
93873,93550
93879,93512
93877,93528
93880,93552
93947,93561
94026,93652
94018,93603
94020,93635
94047,93582
94149,93664
94161,93651
94207,93669
94192,93676
94266,93674
94304,93751
94378,93763
94355,93747
94394,93778
94399,93775
94499,93803
94499,93835
94548,93830
94529,93804
94570,93822
94656,93883
94656,93905
94676,93885
94636,93840
94690,93875
94747,93965
94776,93927
94793,93928
94766,93948
94767,93910
94854,93956
94828,93958
94848,93970
94832,93941
94863,93970
94902,93979
94923,94027
94907,93978
94901,93996
94885,93975
94990,94015
94974,94030
94994,94010
94917,93973
94990,94014
95006,94058
95006,94074
95002,94020
94987,93985
95007,94019
95065,94076
95071,94033
95046,94047
95023,94026
95056,94038
95081,94089
95106,94059
95079,94070
95052,94025
95080,94069
95148,94087
95124,94088
95095,94057
95066,94031
95107,94071
95157,94099
95167,94117
95114,94088
95092,94050
95123,94078
95178,94091
95200,94138
95192,94127
95173,94083
95186,94094
95227,94112
95291,94147
95222,94103
95235,94121
95246,94151
95300,94197
95313,94181
95332,94155
95262,94145
95336,94197
95353,94174
95392,94194
95362,94184
95363,94202
95385,94211
95452,94221
95440,94221
95438,94235
95355,94151
95354,94199
95269,94121
95113,94060
94959,93996
94667,93802
94480,93746
94233,93632
93984,93560
93756,93417
93489,93283
93401,93254
93247,93211
93093,93117
92998,93068
92830,92977
92797,92949
92747,92978
92631,92911
92498,92851
92415,92839
92385,92790
92393,92822
92266,92764
92224,92722
92087,92635
92124,92692
92086,92714
92020,92682
92005,92631
91905,92580
91972,92642
91948,92620
91913,92637
91928,92612
91838,92555
91901,92616
91877,92617
91896,92622
91911,92632
91825,92606
91914,92612
91927,92679
91955,92653
91973,92645
91912,92625
91987,92671
92039,92706
92057,92701
91992,92718
91975,92634
92091,92721
92088,92742
92105,92697
92102,92722
92097,92711
92134,92763
92163,92753
92151,92746
92136,92739
92136,92705
92163,92789
92217,92750
92209,92755
92174,92756
92154,92739
92272,92811
92293,92820
92334,92823
92337,92843
92278,92779
92367,92845
92406,92856
92422,92859
92390,92870
92379,92813
92438,92869
92487,92872
92435,92869
92388,92819
92381,92855
92412,92869
92458,92869
92438,92871
92366,92839
92372,92842
92425,92884
92413,92867
92405,92831
92406,92829
92305,92813
92391,92862
92415,92803
92397,92834
92342,92813
92290,92764
92351,92828
92378,92883
92329,92809
92347,92802
92272,92762
92369,92827
92406,92848
92369,92855
92345,92756
92367,92829
92371,92825
92416,92897
92399,92859
92411,92813
92403,92824
92485,92907
92511,92897
92508,92913
92533,92860
92509,92884
92546,92958
92619,92941
92629,92953
92636,92926
92613,92925
92719,93007
92740,92985
92756,92990
92744,92975
92776,92987
92830,93051
92891,93058
92844,93034
92886,93041
92881,93031
92963,93129
92994,93123
93037,93129
92962,93128
93016,93092
93105,93158
93111,93207
93120,93171
93130,93153
93103,93155
93174,93199
93255,93252
93221,93227
93217,93240
93225,93199
93352,93240
93324,93302
93342,93254
93324,93255
93368,93247
93409,93326
93430,93309
93437,93309
93407,93280
93426,93304
93472,93336
93532,93352
93494,93371
93463,93274
93464,93354
93543,93360
93546,93371
93562,93374
93558,93315
93606,93375
93606,93380
93654,93441
93605,93406
93637,93346
93655,93408
93653,93414
93723,93424
93691,93420
93646,93398
93639,93400
93750,93429
93712,93448
93708,93412
93648,93394
93707,93447
93726,93420
93782,93463
93728,93448
93707,93380
93752,93434
93768,93480
93821,93461
93807,93449
93711,93420
93781,93458
93849,93462
93858,93493
93807,93490
93807,93414
93842,93489
93883,93513
93871,93478
93861,93482
93818,93436
93886,93495
93880,93533
93881,93515
93898,93499
93869,93443
93912,93515
93905,93524
93972,93548
93924,93520
93893,93492
93960,93519
93984,93569
94012,93542
93998,93572
93941,93504
94004,93545
94064,93618
94070,93594
94051,93580
94064,93536
94072,93589
94161,93608
94133,93610
94167,93604
94145,93576
94191,93651
94228,93640
94178,93659
94216,93629
94139,93596
94182,93595
94180,93646
94003,93528
93894,93457
93652,93313
93506,93319
93325,93167
93125,93094
92921,92996
92684,92896
92632,92840
92477,92798
92358,92759
92217,92682
92062,92601
91980,92583
91904,92542
91813,92467
91697,92477
91532,92351
91520,92348
91471,92347
91369,92275
91289,92265
91127,92195
91179,92217
91094,92219
91027,92169
90934,92123
90876,92096
90892,92144
90888,92080
90850,92104
90811,92067
90761,92050
90773,92053
90784,92135
90778,92062
90784,92089
90731,92008
90806,92086
90790,92140
90814,92078
90825,92062
90771,92030
90848,92116
90842,92150
90846,92080
90885,92122
90816,92097
90916,92139
90936,92156
90921,92133
90952,92104
90885,92139
90931,92131
91011,92199
90976,92156
90937,92133
90952,92136
91025,92162
91047,92232
91006,92209
91030,92175
90987,92138
91102,92189
91109,92257
91144,92226
91140,92221
91144,92219
91253,92262
91225,92312
91239,92263
91272,92304
91245,92268
91295,92301
91301,92305
91341,92292
91281,92307
91266,92255
91341,92281
91335,92350
91328,92297
91328,92294
91267,92291
91366,92321
91384,92346
91365,92317
91317,92296
91295,92317
91311,92303
91372,92316
91351,92307
91292,92285
91331,92249
91403,92328
91327,92318
91370,92309
91307,92287
91313,92259
91355,92353
91390,92301
91378,92328
91318,92283
91336,92298
91390,92319
91419,92345
91426,92324
91415,92289
91410,92306
91472,92365
91508,92376
91462,92369
91461,92346
91488,92359
91570,92402
91606,92415
91595,92408
91572,92397
91586,92407
91676,92456
91736,92464
91718,92436
91669,92438
91701,92458
91795,92499
91805,92537
91806,92516
91804,92509
91837,92502
91892,92571
91930,92569
91957,92594
91940,92574
91982,92576
92004,92611
92084,92637
92080,92649
92015,92571
92111,92652
92152,92674
92189,92725
92166,92691
92186,92640
92179,92684
92280,92723
92320,92742
92306,92756
92284,92688
92353,92762
92400,92774
92444,92794
92412,92785
92456,92765
92423,92760
92522,92835
92520,92838
92516,92810
92545,92831
92537,92803
92573,92860
92610,92894
92597,92888
92552,92819
92599,92835
92652,92895
92694,92915
92658,92891
92643,92834
92670,92893
92755,92928
92772,92923
92760,92926
92696,92912
92783,92940
92815,92962
92847,92979
92842,92944
92781,92962
92829,92965
92893,92988
92903,93008
92881,92999
92880,92972
92904,92974
92947,93022
92982,93049
92950,93025
92921,92950
92978,93029
93026,93066
92995,93025
93063,93046
92997,93039
93053,93004
93084,93088
93065,93085
93108,93053
93079,93086
93138,93061
93184,93120
93198,93152
93156,93094
93185,93057
93204,93116
93270,93166
93277,93126
93275,93168
93230,93092
93309,93155
93375,93206
93355,93182
93388,93192
93339,93118
93387,93210
93467,93228
93404,93217
93462,93215
93393,93163
93442,93217
93527,93304
93532,93246
93533,93256
93488,93213
93582,93273
93603,93298
93634,93301
93635,93323
93587,93234
93670,93349
93719,93341
93737,93351
93741,93377
93742,93298
93814,93402
93853,93398
93848,93404
93822,93414
93790,93340
93847,93427
93810,93380
93716,93329
93605,93266
93431,93137
93250,93117
93048,92986
92863,92913
92651,92819
92438,92691
92322,92650
92193,92616
92079,92527
91916,92493
91764,92342
91682,92364
91645,92356
91510,92263
91422,92223
91258,92150
91260,92164
91181,92147
91089,92092
90996,92070
90890,91951
90909,92016
90867,92043
90803,91962
90707,91940
90634,91862
90701,91935
90653,91959
90609,91889
90600,91912
90596,91865
90618,91940
90616,91910
90666,91933
90614,91943
90591,91899
90695,91939
90690,92003
90701,91953
90725,91982
90714,91935
90811,92006
90802,92031
90870,92030
90854,92019
90790,92013
90912,92075
90978,92108
90948,92062
90957,92066
90975,92084
91037,92104
91083,92131
91046,92115
91053,92109
91030,92086
91139,92150
91128,92195
91118,92150
91136,92155
91152,92141
91234,92189
91246,92248
91274,92199
91273,92198
91284,92226
91384,92251
91406,92297
91416,92274
91436,92278
91443,92280
91465,92330
91487,92316
91501,92314
91481,92305
91471,92264
91541,92338
91534,92341
91486,92320
91493,92272
91471,92333
91525,92306
91591,92364
91574,92331
91507,92321
91530,92323
91522,92350
91582,92332
91574,92360
91517,92310
91531,92287
91573,92355
91586,92385
91573,92336
91564,92347
91541,92292
91641,92371
91620,92398
91628,92347
91641,92350
91635,92355
91712,92426
91712,92414
91723,92393
91702,92435
91706,92374
91815,92471
91799,92465
91845,92468
91857,92485
91872,92425
91949,92548
91954,92544
91965,92545
91966,92510
92009,92543
92075,92595
92149,92603
92098,92613
92120,92549
92169,92628
92205,92652
92280,92690
92297,92663
92300,92658
92356,92681
92416,92735
92472,92742
92449,92775
92429,92709
92508,92780
92579,92803
92624,92833
92605,92853
92625,92767
92662,92868
92787,92893
92789,92905
92803,92937
92766,92867
92844,92950
92913,92962
92964,93019
92955,92985
92967,92992
93022,92973
93124,93057
93117,93053
93152,93051
93108,93038
93200,93062
93253,93152
93274,93091
93283,93157
93288,93105
93292,93122
93400,93184
93375,93150
93409,93171
93378,93163
93452,93215
93467,93221
93515,93243
93509,93229
93540,93187
93563,93257
93625,93295
93629,93270
93679,93294
93645,93218
93712,93335
93750,93328
93802,93351
93816,93344
93778,93293
93842,93388
93862,93378
93920,93392
93897,93417
93861,93350
93939,93392
94008,93452
93983,93412
94010,93440
93993,93404
94029,93438
94115,93491
94050,93443
94125,93472
94053,93465
94169,93470
94187,93532
94193,93506
94233,93520
94199,93513
94246,93516
94335,93590
94319,93539
94361,93563
94293,93545
94410,93586
94461,93665
94471,93634
94453,93614
94424,93573
94493,93615
94583,93678
94547,93641
94570,93668
94488,93623
94619,93686
94624,93745
94650,93667
94621,93705
94609,93667
94673,93687
94743,93740
94753,93776
94723,93729
94722,93707
94816,93771
94844,93819
94864,93808
94849,93801
94883,93748
94934,93819
95033,93865
94965,93855
95015,93855
95046,93872
95094,93870
95150,93924
95140,93936
95139,93923
95143,93891
95202,93924
95220,93978
95142,93895
95015,93835
94854,93725
94665,93654
94481,93584
94185,93442
93870,93304
93591,93141
93427,93101
93175,92991
93019,92889
92807,92827
92625,92708
92581,92702
92496,92657
92393,92615
92250,92570
92150,92459
92138,92506
92098,92469
91976,92466
91901,92368
91860,92397
91840,92362
91837,92375
91758,92309
91732,92361
91658,92300
91708,92331
91740,92346
91703,92312
91668,92324
91656,92287
91735,92366
91728,92395
91748,92351
91724,92373
91739,92317
91784,92369
91879,92442
91832,92408
91850,92426
91835,92426
91917,92488
92000,92522
91985,92459
91999,92461
91982,92499
92093,92512
92120,92581
92104,92576
92085,92527
92143,92577
92188,92602
92239,92630
92244,92600
92239,92592
92228,92590
92295,92647
92358,92657
92321,92642
92316,92635
92340,92648
92408,92713
92475,92728
92489,92713
92457,92713
92502,92769
92604,92808
92629,92795
92613,92802
92613,92774
92638,92797
92730,92848
92722,92851
92670,92811
92694,92818
92628,92812
92727,92818
92712,92839
92690,92811
92677,92761
92617,92817
92681,92822
92717,92847
92640,92808
92609,92745
92630,92794
92663,92826
92639,92818
92618,92813
92551,92714
92605,92770
92600,92813
92637,92797
92567,92754
92559,92732
92552,92779
92601,92794
92607,92740
92634,92778
92553,92771
92576,92752
92670,92797
92629,92807
92641,92795
92643,92776
92675,92803
92735,92861
92756,92843
92737,92879
92734,92806
92755,92839
92834,92884
92907,92938
92881,92891
92880,92882
92947,92946
92984,92991
93018,92952
93002,92993
93042,92982
93098,92984
93159,93050
93153,93054
93203,93083
93192,93050
93220,93076
93306,93137
93364,93127
93337,93128
93394,93128
93463,93144
93505,93220
93509,93198
93564,93252
93535,93213
93579,93237
93679,93266
93683,93320
93727,93297
93672,93278
93758,93354
93794,93330
93854,93314
93830,93328
93834,93321
93866,93366
93954,93385
93968,93446
93954,93401
93964,93372
94018,93405
94032,93455
94103,93488
94081,93427
94062,93426
94160,93484
94181,93498
94208,93509
94202,93515
94197,93446
94255,93517
94328,93568
94297,93547
94282,93565
94215,93477
94331,93577
94389,93580
94324,93577
94325,93595
94256,93504
94357,93598
94361,93588
94391,93575
94375,93565
94331,93544
94379,93588
94428,93609
94443,93573
94426,93587
94396,93598
94438,93606
94526,93628
94468,93646
94464,93604
94465,93609
94511,93643
94568,93639
94505,93676
94508,93631
94510,93639
94550,93676
94609,93687
94600,93695
94565,93675
94566,93603
94607,93701
94659,93731
94645,93696
94653,93647
94665,93713
94682,93693
94742,93765
94755,93730
94756,93716
94696,93710
94783,93752
94840,93801
94810,93764
94845,93789
94815,93788
94898,93788
94950,93853
94930,93814
94949,93808
94910,93787
95001,93823
95090,93881
95038,93897
95075,93851
95043,93871
95150,93914
95180,93941
95141,93924
95121,93885
95100,93883
95089,93875
95060,93842
94864,93752
94648,93657
94401,93545
94187,93429
93996,93340
93720,93207
93484,93088
93252,93014
93075,92933
92940,92840
92822,92818
92651,92699
92494,92634
92488,92643
92369,92611
92305,92548
92181,92520
92093,92461
92083,92498
92011,92436
91925,92442
91842,92354
91818,92380
91827,92354
91795,92381
91731,92322
91704,92276
91650,92323
91686,92311
91672,92302
91655,92340
91613,92310
91614,92259
91688,92362
91679,92343
91654,92317
91654,92296
91684,92314
91716,92373
91779,92375
91763,92390
91795,92395
91762,92363
91875,92450
91862,92471
91897,92414
91870,92424
91890,92459
91946,92514
92008,92508
91954,92496
91928,92441
91978,92490
92054,92523
92056,92520
92041,92544
92006,92469
92072,92522
92100,92547
92148,92577
92144,92560
92091,92536
92159,92543
92212,92622
92286,92615
92263,92618
92301,92609
92315,92670
92376,92664
92447,92700
92416,92695
92400,92696
92400,92704
92465,92686
92461,92721
92475,92693
92414,92686
92411,92685
92476,92727
92482,92735
92429,92655
92449,92660
92396,92692
92418,92714
92460,92708
92452,92660
92408,92669
92356,92641
92417,92699
92432,92672
92376,92654
92375,92612
92326,92662
92406,92659
92399,92688
92390,92649
92320,92625
92345,92617
92388,92696
92399,92670
92379,92673
92303,92634
92390,92640
92400,92698
92404,92666
92445,92702
92348,92677
92424,92677
92463,92702
92521,92735
92497,92734
92504,92678
92534,92748
92583,92770
92632,92802
92644,92772
92599,92797
92660,92774
92728,92837
92711,92829
92754,92807
92720,92848
92754,92803
92838,92918
92848,92871
92822,92874
92830,92860
92849,92891
92942,92940
92950,92965
92963,92936
92926,92900
92973,92956
93045,92972
93093,93016
93073,92960
93051,92957
93130,93028
93176,93084
93198,93039
93190,93068
93166,92984
93234,93073
93276,93109
93274,93112
93289,93085
93277,93078
93300,93106
93362,93143
93383,93144
93361,93114
93379,93110
93402,93157
93480,93170
93474,93176
93457,93154
93405,93133
93468,93216
93524,93203
93565,93211
93571,93215
93502,93184
93577,93221
93590,93223
93614,93224
93587,93239
93556,93206
93637,93232
93638,93286
93677,93224
93649,93277
93617,93201
93719,93256
93775,93297
93726,93285
93761,93308
93713,93247
93749,93310
93781,93358
93823,93290
93798,93309
93801,93315
93867,93329
93907,93376
93890,93356
93874,93323
93840,93339
93942,93343
93990,93443
93948,93368
93955,93357
93947,93364
94034,93416
94042,93459
94019,93379
94052,93412
93996,93372
94083,93468
94119,93477
94070,93432
94048,93423
94079,93431
94155,93452
94140,93481
94142,93490
94151,93443
94161,93433
94186,93509
94235,93520
94241,93473
94230,93508
94167,93466
94296,93561
94293,93549
94312,93517
94301,93535
94269,93527
94398,93568
94431,93611
94424,93558
94446,93571
94406,93581
94473,93632
94509,93632
94562,93654
94559,93617
94542,93643
94601,93686
94721,93729
94681,93664
94708,93709
94661,93685
94758,93763
94761,93751
94694,93693
94608,93608
94536,93600
94374,93524
94218,93463
93935,93317
93635,93170
93402,93000
93236,93013
93025,92883
92844,92811
92647,92704
92477,92630
92423,92607
92317,92585
92196,92485
92055,92459
91944,92381
91906,92383
91832,92338
91741,92335
91608,92222
91557,92191
91555,92250
91482,92179
91430,92201
91300,92112
91299,92102
91314,92124
91267,92127
91228,92111
91176,92052
91160,92069
91211,92109
91213,92118
91162,92089
91112,92066
91147,92061
91181,92109
91231,92147
91222,92113
91200,92095
91227,92102
91280,92144
91304,92169
91293,92172
91309,92130
91314,92171
91361,92213
91413,92236
91401,92219
91423,92206
91429,92213
91492,92281
91490,92260
91503,92234
91475,92216
91489,92229
91562,92287
91546,92297
91567,92296
91531,92241
91565,92288
91614,92298
91667,92322
91647,92325
91647,92301
91696,92353
91785,92384
91805,92412
91807,92370
91800,92374
91838,92426
91900,92427
91953,92465
91915,92450
91896,92394
91943,92423
91984,92509
91954,92479
91973,92450
91906,92435
91935,92413
91997,92477
91935,92507
91954,92448
91910,92399
91929,92461
91987,92499
91954,92423
91928,92463
91881,92418
91926,92432
91945,92465
91940,92499
91973,92440
91919,92415
91944,92453
91940,92444
91952,92436
91925,92452
91865,92423
91953,92429
91973,92497
91971,92450
92007,92470
91937,92433
92016,92432
92058,92542
92018,92474
92056,92497
92005,92463
92118,92498
92132,92579
92114,92508
92161,92582
92125,92502
92178,92541
92245,92606
92266,92556
92255,92621
92237,92573
92344,92620
92370,92667
92386,92624
92394,92688
92367,92621
92470,92713
92499,92704
92524,92717
92536,92704
92527,92689
92591,92743
92693,92801
92638,92807
92688,92798
92649,92759
92739,92814
92802,92884
92777,92865
92861,92868
92792,92815
92865,92872
92950,92901
92918,92883
92969,92937
92896,92894
93010,92943
93067,92998
93054,92962
93077,92993
93016,92922
93141,92991
93185,93006
93190,93035
93174,93029
93164,92974
93264,93077
93253,93050
93285,93093
93282,93021
93254,93047
93306,93105
93340,93094
93384,93093
93359,93089
93351,93076
93397,93120
93453,93155
93431,93105
93474,93166
93400,93101
93475,93158
93524,93167
93541,93172
93500,93155
93491,93107
93596,93205
93630,93207
93553,93184
93604,93213
93544,93146
93668,93214
93680,93266
93714,93237
93676,93217
93611,93221
93753,93245
93760,93298
93760,93244
93729,93244
93741,93249
93803,93275
93877,93304
93830,93324
93832,93286
93787,93277
93914,93342
93943,93349
93909,93311
93934,93343
93900,93298
93989,93406
94019,93397
94060,93392
94014,93380
93984,93329
94133,93389
94129,93440
94122,93424
94129,93425
94092,93412
94218,93451
94257,93522
94206,93459
94217,93454
94183,93430
94286,93519
94303,93526
94319,93508
94293,93464
94290,93485
94370,93549
94362,93556
94402,93514
94345,93501
94388,93517
94448,93568
94482,93600
94443,93550
94486,93561
94477,93584
94523,93604
94593,93643
94589,93589
94552,93612
94570,93587
94662,93671
94691,93667
94721,93660
94642,93636
94738,93677
94760,93729
94841,93732
94819,93713
94735,93688
94778,93664
94750,93728
94710,93643
94539,93599
94346,93491
94120,93343
93912,93264
93689,93153
93386,93058
93157,92900
92925,92789
92789,92737
92647,92669
92459,92634
92304,92485
92234,92474
92160,92474
92065,92422
91983,92383
91830,92294
91791,92265
91741,92267
91650,92246
91591,92205
91471,92198
91414,92120
91479,92179
91392,92139
91309,92095
91269,92081
91255,92031
91242,92125
91226,92058
91223,92067
91171,92016
91185,92038
91223,92119
91232,92045
91245,92119
91216,92037
91249,92072
91322,92119
91332,92136
91320,92117
91275,92128
91361,92155
91411,92179
91455,92177
91424,92209
91381,92175
91493,92204
91558,92270
91560,92242
91553,92215
91552,92216
91569,92290
91666,92293
91648,92275
91656,92291
91639,92272
91640,92339
91730,92302
91731,92354
91708,92324
91715,92298
91797,92332
91802,92377
91841,92356
91829,92403
91816,92347
91929,92439
91970,92459
92029,92477
91983,92461
91995,92402
92035,92480
92108,92508
92065,92508
92026,92475
92031,92429
92070,92491
92113,92473
92088,92482
92075,92486
92008,92406
92071,92478
92068,92474
92063,92483
92033,92433
92008,92407
92018,92476
92065,92468
92051,92491
92041,92425
91979,92423
92019,92454
92064,92460
91979,92464
92006,92404
91968,92399
91976,92445
92053,92481
92024,92452
91990,92425
91965,92386
92002,92470
92072,92487
92016,92461
92064,92463
92030,92435
92073,92468
92146,92514
92115,92472
92078,92477
92086,92440
92156,92540
92197,92542
92178,92522
92229,92547
92188,92508
92260,92580
92346,92590
92322,92610
92356,92571
92347,92581
92383,92631
92493,92659
92465,92680
92459,92638
92498,92635
92576,92699
92627,92777
92610,92699
92652,92736
92623,92688
92726,92778
92771,92841
92745,92782
92807,92823
92776,92802
92871,92850
92937,92871
92910,92862
92961,92895
92939,92844
93010,92911
93050,92942
93042,92935
93069,92913
93075,92899
93148,92993
93226,92996
93201,92996
93228,92986
93181,92963
93317,93042
93341,93076
93308,93052
93335,93028
93323,93038
93379,93118
93415,93099
93479,93088
93419,93108
93452,93078
93519,93138
93567,93152
93574,93169
93528,93111
93551,93146
93594,93181
93633,93215
93621,93156
93615,93141
93620,93146
93656,93187
93695,93234
93704,93196
93643,93179
93681,93171
93739,93229
93756,93276
93722,93214
93744,93226
93706,93213
93827,93244
93829,93308
93815,93231
93823,93245
93804,93253
93893,93257
93925,93314
93875,93313
93900,93249
93892,93292
93956,93307
94005,93343
93998,93310
93997,93341
93983,93363
94042,93349
94095,93334
94082,93381
94032,93352
94053,93337
94152,93418
94149,93409
94136,93401
94127,93371
94154,93380
94220,93468
94226,93437
94246,93438
94228,93464
94246,93450
94324,93461
94366,93512
94367,93488
94314,93471
94375,93475
94445,93527
94455,93548
94417,93524
94435,93539
94478,93533
94499,93575
94545,93576
94544,93576
94489,93528
94524,93580
94577,93609
94606,93604
94617,93600
94595,93562
94591,93591
94697,93643
94708,93628
94712,93643
94690,93628
94717,93655
94785,93662
94858,93685
94838,93709
94817,93649
94873,93703
94908,93729
94970,93789
94925,93739
94948,93706
94967,93788
95049,93785
95015,93798
94924,93722
94854,93657
94745,93637
94567,93557
94367,93426
94092,93286
93799,93184
93506,93061
93298,92955
93130,92834
92877,92791
92684,92643
92596,92638
92452,92557
92360,92522
92214,92433
92076,92396
92031,92352
91948,92348
91902,92319
91798,92247
91687,92222
91599,92207
91607,92184
91575,92177
91437,92142
91367,92045
91384,92097
91347,92079
91344,92093
91265,92063
91183,92002
91249,92075
91240,92045
91242,92060
91215,92039
91220,92010
91217,92079
91249,92088
91263,92064
91265,92049
91252,92063
91302,92087
91331,92109
91366,92155
91365,92133
91307,92106
91360,92120
91443,92204
91458,92186
91439,92158
91431,92114
91533,92211
91545,92251
91570,92212
91568,92245
91523,92180
91643,92245
91616,92250
91652,92268
91653,92286
91602,92219
91687,92305
91752,92281
91766,92323
91750,92334
91696,92294
91793,92338
91896,92397
91900,92381
91910,92360
91894,92365
91939,92412
92022,92441
91990,92436
92014,92432
91931,92380
92037,92434
92045,92485
92041,92419
92059,92409
91986,92391
92020,92440
92034,92455
92071,92420
91999,92427
91965,92386
92042,92448
92055,92435
92040,92442
91984,92407
91987,92383
92008,92401
91984,92444
92013,92382
91969,92402
91893,92333
92004,92390
91958,92404
91964,92398
91971,92389
91907,92383
91928,92375
92015,92435
91992,92415
91966,92366
91950,92402
91962,92404
92032,92460
91998,92416
92030,92401
92011,92393
92044,92473
92085,92457
92113,92449
92083,92444
92075,92463
92173,92509
92213,92524
92207,92496
92198,92511
92218,92468
92329,92585
92354,92575
92372,92591
92361,92588
92358,92587
92449,92609
92442,92649
92489,92646
92486,92615
92508,92648
92577,92697
92652,92716
92614,92697
92637,92685
92622,92695
92752,92750
92756,92799
92759,92780
92748,92739
92792,92769
92854,92835
92907,92828
92936,92854
92907,92838
92933,92828
93039,92861
93081,92918
93020,92900
93049,92900
93049,92905
93128,92946
93207,92966
93168,92986
93169,92918
93189,92968
93244,92983
93275,93023
93288,92995
93243,92952
93292,93002
93315,93056
93376,93065
93351,93034
93359,93023
93356,93071
93417,93034
93425,93086
93434,93039
93394,93046
93406,93043
93480,93122
93489,93103
93511,93101
93453,93079
93493,93082
93532,93130
93583,93122
93541,93143
93493,93072
93549,93117
93594,93155
93613,93162
93598,93177
93565,93081
93604,93156
93653,93190
93682,93214
93673,93177
93637,93140
93683,93139
93734,93245
93773,93232
93708,93193
93725,93171
93732,93215
93811,93226
93786,93262
93778,93223
93807,93223
93800,93224
93870,93241
93911,93274
93853,93288
93845,93232
93844,93265
93901,93280
93952,93275
93945,93294
93885,93226
93954,93300
93971,93321
93991,93327
94025,93305
93944,93261
94050,93337
94073,93376
94082,93369
94108,93351
94061,93344
94087,93352
94158,93410
94180,93394
94199,93423
94140,93331
94198,93391
94229,93447
94246,93409
94270,93416
94278,93439
94324,93459
94382,93489
94341,93500
94372,93431
94373,93466
94403,93487
94442,93522
94492,93534
94467,93550
94449,93449
94520,93535
94569,93577
94588,93590
94594,93596
94613,93534
94656,93609
94703,93630
94736,93648
94685,93591
94644,93598
94641,93598
94662,93584
94532,93514
94345,93437
94107,93279
93904,93221
93668,93088
93464,93010
93186,92864
92895,92764
92779,92705
92689,92653
92479,92572
92332,92441
92168,92382
92122,92396
92055,92372
91921,92299
91848,92273
91710,92186
91672,92214
91675,92178
91588,92133
91514,92118
91376,92080
91377,92052
91362,92102
91284,92053
91276,92032
91172,92005
91195,91962
91242,92071
91191,92014
91155,91980
91089,91939
91207,91988
91183,92043
91180,91986
91201,92011
91156,91957
91248,92038
91268,92066
91210,92085
91280,92047
91262,92047
91309,92076
91417,92146
91390,92135
91394,92102
91411,92119
91456,92162
91530,92180
91534,92194
91529,92189
91525,92146
91613,92249
91641,92266
91621,92227
91680,92240
91628,92252
91693,92249
91770,92330
91761,92290
91727,92300
91781,92295
91831,92366
91918,92313
91909,92338
91931,92363
91927,92360
92011,92429
92080,92464
92048,92428
92124,92433
92065,92424
92160,92487
92210,92511
92136,92468
92175,92445
92132,92483
92191,92504
92214,92501
92173,92479
92168,92444
92120,92470
92181,92448
92204,92499
92179,92482
92160,92471
92104,92453
92170,92460
92174,92491
92146,92460
92089,92415
92158,92444
92183,92481
92139,92467
92167,92444
92105,92418
92103,92418
92197,92463
92151,92458
92160,92426
92128,92471
92166,92440
92186,92467
92240,92528
92170,92466
92189,92460
92193,92466
92270,92530
92276,92548
92298,92563
92256,92488
92334,92539
92337,92564
92398,92581
92433,92595
92394,92565
92454,92570
92517,92650
92601,92655
92579,92647
92545,92658
92573,92656
92717,92717
92721,92766
92709,92714
92714,92744
92749,92748
92820,92774
92893,92833
92859,92810
92924,92807
92948,92794
93035,92875
93074,92888
93076,92909
93045,92864
93095,92912
93163,92936
93198,92958
93226,92950
93204,92942
93245,92955
93277,92995
93341,93032
93357,93008
93346,92994
93367,93033
93466,93071
93462,93064
93477,93054
93463,93057
93507,93051
93548,93113
93604,93110
93552,93105
93557,93083
93601,93118
93681,93166
93672,93144
93676,93137
93659,93108
93709,93150
93734,93197
93787,93215
93768,93202
93695,93167
93796,93183
93818,93218
93881,93253
93826,93207
93776,93171
93849,93204
93890,93292
93897,93280
93882,93228
93842,93188
93899,93235
93914,93294
93970,93292
93920,93248
93878,93264
93927,93245
94020,93305
93993,93278
93994,93294
93950,93270
93977,93271
94076,93335
94052,93286
94027,93319
94041,93267
94086,93316
94080,93362
94105,93326
94106,93363
94062,93234
94130,93356
94184,93340
94168,93386
94120,93352
94130,93314
94158,93373
94197,93399
94225,93379
94172,93403
94179,93324
94229,93384
94248,93403
94266,93418
94275,93371
94216,93413
94298,93419
94378,93483
94359,93460
94369,93456
94316,93418
94424,93476
94460,93474
94415,93489
94470,93516
94454,93460
94524,93518
94570,93515
94600,93560
94586,93538
94525,93497
94654,93554
94690,93575
94633,93572
94635,93571
94507,93478
94464,93469
94395,93454
94171,93295
93928,93217
93674,93079
93497,93025
93300,92874
93051,92799
92846,92700
92666,92591
92548,92569
92469,92536
92284,92451
92192,92402
92048,92293
92039,92334
91921,92339
91832,92238
91761,92198
91614,92147
91631,92143
91608,92141
91544,92119
91443,92113
91365,92028
91372,92064
91342,92081
91274,92018
91274,91986
91185,91971
91273,92004
91254,92025
91224,91997
91199,92003
91187,91987
91233,92016
91301,92072
91271,92062
91247,92006
91222,92033
91294,92060
91373,92065
91371,92087
91373,92100
91329,92059
91408,92116
91468,92155
91453,92152
91430,92108
91430,92143
91497,92142
91555,92181
91558,92193
91487,92170
91526,92148
91557,92203
91572,92219
91620,92242
91593,92156
91615,92195
91642,92262
91683,92269
91675,92261
91704,92258
91692,92219
91783,92284
91810,92330
91803,92291
91818,92302
91829,92267
91914,92336
91887,92371
91931,92335
91878,92295
91874,92327
91938,92355
91969,92356
91920,92348
91853,92308
91870,92324
91918,92345
91932,92342
91877,92316
91822,92299
91868,92286
91874,92322
91896,92347
91864,92293
91826,92321
91790,92261
91829,92327
91842,92327
91797,92311
91807,92277
91747,92281
91769,92261
91872,92353
91805,92306
91758,92264
91769,92268
91848,92294
91810,92317
91830,92269
91798,92249
91778,92272
91871,92357
91919,92355
91900,92323
91850,92321
91867,92337
91954,92356
91977,92386
91954,92351
91976,92357
91978,92369
92022,92424
92113,92424
92068,92388
92104,92428
92078,92402
92171,92456
92202,92486
92163,92479
92216,92438
92259,92514
92270,92522
92371,92553
92365,92559
92333,92506
92363,92563
92398,92583
92476,92635
92452,92601
92447,92543
92476,92589
92590,92661
92591,92662
92633,92697
92609,92635
92646,92687
92731,92715
92720,92701
92770,92700
92715,92741
92767,92715
92855,92774
92895,92781
92879,92738
92857,92809
92892,92764
92993,92840
92974,92828
93017,92838
92963,92843
93010,92844
93087,92845
93068,92892
93102,92890
93022,92853
93125,92896
93170,92898
93168,92934
93158,92915
93108,92888
93172,92942
93239,92954
93275,92961
93251,92971
93230,92881
93273,92974
93309,92975
93310,92984
93288,92954
93308,92980
93339,92976
93401,93041
93385,93001
93404,93028
93364,92944
93432,93062
93469,93035
93451,93025
93459,93052
93403,93011
93477,93034
93497,93098
93545,93068
93530,93070
93488,92988
93582,93072
93618,93120
93597,93110
93607,93072
93593,93047
93655,93118
93662,93130
93689,93137
93671,93163
93659,93085
93719,93147
93783,93190
93780,93186
93785,93192
93708,93107
93832,93207
93848,93222
93860,93223
93849,93216
93821,93174
93902,93241
93920,93226
93931,93254
93929,93231
93844,93175
93965,93225
94009,93319
93978,93251
93973,93267
93979,93273
94003,93279
94098,93296
94059,93320
94076,93283
94049,93273
94151,93298
94144,93357
94182,93355
94162,93361
94167,93319
94226,93369
94272,93404
94270,93383
94270,93377
94297,93388
94345,93431
94349,93451
94331,93438
94294,93392
94185,93306
94152,93307
94024,93255
93813,93123
93553,93039
93308,92882
93091,92795
92945,92731
92709,92590
92515,92531
92343,92439
92249,92416
92178,92382
91985,92296
91901,92251
91723,92168
91708,92176
91643,92159
91509,92098
91435,92043
91344,91993
91304,92005
91265,91978
91182,91985
91071,91891
91066,91899
91052,91872
91050,91902
90947,91878
90876,91792
90895,91826
90879,91843
90898,91845
90837,91810
90872,91813
90789,91762
90896,91852
90891,91909
90875,91832
90895,91799
90833,91853
90938,91875
91000,91922
90936,91903
90973,91854
90945,91883
91043,91903
91073,91914
91074,91973
91022,91914
91059,91909
91129,91981
91134,91988
91165,91969
91144,91993
91129,91921
91224,92003
91254,92037
91186,91986
91174,91959
91183,92001
91262,92026
91284,92063
91289,92018
91260,92041
91288,92019
91355,92064
91394,92104
91388,92098
91371,92067
91411,92102
91472,92118
91540,92149
91478,92173
91458,92122
91469,92132
91531,92154
91551,92149
91570,92162
91476,92142
91492,92130
91568,92160
91537,92131
91559,92143
91492,92157
91545,92136
91541,92163
91555,92178
91561,92133
91522,92172
91516,92107
91566,92195
91546,92145
91532,92162
91515,92103
91482,92117
91569,92182
91551,92178
91549,92136
91518,92113
91521,92130
91573,92184
91593,92153
91589,92161
91564,92120
91586,92157
91655,92222
91653,92190
91685,92199
91640,92172
91670,92227
91763,92243
91754,92234
91751,92259
91734,92222
91787,92271
91870,92298
91878,92293
91868,92292
91848,92271
91925,92329
91970,92349
91956,92352
91978,92324
91977,92324
92008,92347
92064,92419
92100,92439
92080,92397
92119,92378
92149,92445
92204,92484
92256,92454
92239,92445
92205,92438
92268,92499
92328,92529
92373,92496
92370,92529
92332,92506
92411,92539
92458,92562
92498,92578
92491,92557
92433,92559
92520,92589
92563,92627
92542,92613
92617,92644
92515,92577
92618,92663
92659,92671
92653,92653
92680,92643
92655,92645
92699,92667
92710,92697
92751,92722
92753,92674
92717,92676
92795,92701
92814,92738
92832,92722
92811,92743
92745,92688
92810,92734
92911,92782
92872,92729
92879,92769
92810,92696
92901,92780
92981,92815
92910,92819
92962,92828
92909,92723
92975,92777
93038,92855
93013,92789
93043,92816
92944,92779
93025,92827
93088,92885
93057,92857
93077,92812
93052,92848
93137,92851
93119,92895
93176,92879
93105,92905
93093,92836
93162,92867
93185,92925
93193,92928
93164,92901
93195,92880
93251,92902
93286,92923
93244,92926
93271,92897
93200,92918
93279,92955
93332,92956
93336,92960
93297,92974
93287,92889
93338,92958
93392,93001
93390,92985
93391,92986
93363,92905
93438,92982
93445,93036
93460,93003
93399,92999
93439,92997
93507,93031
93521,93076
93504,93017
93502,93051
93478,92971
93529,93060
93603,93080
93555,93057
93591,93076
93552,93024
93643,93088
93649,93106
93658,93081
93667,93132
93636,93047
93734,93129
93770,93138
93750,93154
93703,93127
93729,93115
93793,93148
93815,93190
93836,93169
93791,93169
93837,93166
93872,93218
93941,93219
93893,93232
93934,93212
93923,93226
93987,93235
94066,93299
94017,93271
94003,93274
94017,93242
94084,93294
94043,93304
94054,93288
93955,93197
93868,93186
93778,93138
93604,93050
93437,92933
93162,92820
92898,92671
92745,92633
92542,92524
92383,92474
92193,92366
92031,92248
91941,92301
91882,92266
91696,92159
91578,92083
91452,91998
91444,92030
91312,92001
91230,91953
91133,91920
91017,91816
91018,91863
90924,91832
90885,91796
90738,91742
90731,91739
90704,91760
90710,91729
90653,91738
90549,91670
90582,91672
90587,91708
90577,91686
90577,91685
90503,91689
90517,91650
90559,91680
90603,91718
90567,91721
90505,91620
90566,91721
90620,91749
90617,91737
90653,91711
90615,91717
90638,91694
90726,91791
90725,91815
90730,91774
90688,91749
90682,91762
90800,91793
90772,91836
90760,91797
90737,91783
90788,91845
90807,91830
90843,91856
90791,91824
90824,91788
90817,91835
90864,91850
90900,91843
90898,91850
90869,91864
90909,91873
91002,91892
90997,91915
91000,91900
90959,91883
91054,91916
91064,91962
91116,91962
91072,91940
91090,91914
91064,91970
91124,91959
91159,91987
91144,91973
91053,91914
91128,91974
91138,91974
91162,92002
91154,91966
91109,91967
91142,91980
91165,91984
91220,92010
91145,91967
91114,91960
91169,91987
91183,92003
91212,92006
91165,91978
91100,91936
91207,91970
91217,92015
91200,91989
91216,91993
91143,91976
91210,91965
91225,92031
91221,92003
91229,91981
91219,91992
91218,91990
91305,92043
91282,92023
91293,92004
91285,91986
91337,92063
91373,92115
91395,92042
91389,92080
91380,92052
91416,92098
91474,92135
91513,92122
91483,92146
91482,92078
91533,92117
91618,92180
91617,92168
91635,92198
91549,92196
91629,92178
91730,92228
91751,92284
91687,92239
91705,92192
91770,92294
91854,92302
91861,92281
91864,92280
91827,92304
91930,92297
91973,92364
91979,92346
91980,92376
91920,92359
92046,92416
92077,92422
92094,92416
92139,92439
92104,92403
92197,92429
92259,92501
92232,92480
92270,92461
92257,92475
92315,92486
92354,92538
92364,92526
92357,92481
92344,92526
92406,92543
92463,92597
92465,92601
92433,92571
92455,92539
92483,92622
92532,92603
92572,92602
92561,92612
92503,92601
92607,92645
92624,92658
92636,92671
92589,92637
92602,92657
92683,92648
92761,92732
92705,92730
92724,92657
92716,92700
92783,92696
92855,92771
92818,92735
92806,92730
92800,92739
92871,92749
92877,92796
92910,92797
92856,92745
92893,92755
92926,92781
93001,92828
92986,92814
92950,92804
92953,92746
93022,92812
93054,92879
93045,92837
93047,92854
93011,92805
93130,92878
93123,92922
93132,92882
93121,92870
93138,92820
93214,92913
93196,92966
93230,92891
93201,92917
93212,92898
93270,92924
93357,92963
93301,92972
93292,92903
93324,92934
93373,92987
93417,93009
93396,92984
93420,92986
93393,93000
93486,93062
93501,93046
93490,93058
93438,93027
93495,92973
93546,93085
93591,93107
93576,93055
93585,93077
93570,93055
93615,93124
93636,93096
93657,93101
93619,93074
93611,93062
93706,93129
93679,93167
93698,93118
93649,93104
93695,93123
93771,93146
93793,93197
93771,93136
93778,93142
93795,93160
93852,93225
93852,93204
93887,93201
93840,93182
93893,93227
93922,93226
94007,93280
93938,93221
93985,93226
94014,93234
94056,93319
94053,93301
94082,93319
94034,93244
94078,93326
94108,93306
94155,93331
94054,93270
93979,93222
93875,93204
93745,93108
93615,93066
93360,92935
93106,92776
92826,92699
92673,92628
92500,92550
92307,92411
92094,92335
91993,92308
91906,92252
91747,92173
91667,92151
91483,92072
91425,92004
91353,91996
91283,91964
91185,91947
91016,91887
90996,91834
90951,91863
90914,91817
90774,91777
90704,91735
90703,91697
90675,91750
90614,91697
90567,91698
90505,91626
90490,91649
90542,91688
90531,91685
90488,91664
90449,91631
90480,91640
90532,91690
90526,91703
90520,91669
90503,91666
90553,91683
90559,91730
90579,91724
90590,91738
90559,91660
90618,91735
90660,91762
90668,91766
90673,91765
90657,91735
90704,91774
90742,91825
90723,91818
90766,91781
90682,91738
90753,91836
90810,91836
90773,91821
90787,91796
90726,91774
90821,91841
90852,91855
90852,91847
90871,91862
90794,91804
90884,91886
90959,91924
90965,91924
90985,91901
90896,91874
91003,91926
91068,91963
91007,91956
91036,91938
90982,91893
91057,91951
91092,91970
91052,91955
91078,91946
91041,91894
91128,91990
91124,91971
91134,91956
91094,91949
91062,91932
91128,91986
91135,91987
91104,91959
91105,91971
91074,91934
91098,91973
91108,91979
91083,91946
91099,91960
91054,91917
91096,91966
91118,91992
91115,91964
91083,91953
91061,91938
91091,91955
91131,91986
91109,91976
91143,91973
91125,91936
91159,91973
91197,92012
91177,91991
91155,91991
91147,91945
91244,92034
91269,92061
91254,92018
91234,92038
91211,91986
91312,92070
91334,92067
91348,92062
91327,92102
91303,92023
91411,92120
91440,92140
91455,92131
91413,92112
91410,92082
91455,92135
91554,92171
91539,92192
91510,92160
91543,92155
91620,92166
91647,92226
91665,92208
91619,92207
91636,92188
91713,92240
91788,92313
91745,92237
91741,92271
91788,92267
91840,92281
91895,92312
91862,92320
91861,92302
91909,92318
91942,92344
92016,92388
91995,92378
92004,92363
91971,92362
92110,92425
92082,92462
92096,92392
92091,92422
92084,92430
92199,92444
92174,92506
92217,92462
92231,92476
92202,92466
92298,92525
92334,92570
92303,92500
92288,92491
92287,92526
92370,92563
92422,92569
92396,92606
92372,92559
92421,92499
92510,92601
92496,92664
92539,92605
92520,92592
92513,92605
92615,92650
92602,92702
92626,92657
92617,92645
92584,92631
92713,92697
92708,92693
92702,92697
92696,92702
92676,92705
92729,92705
92789,92718
92761,92762
92718,92731
92761,92728
92812,92746
92841,92757
92796,92729
92810,92720
92824,92741
92905,92789
92922,92802
92908,92778
92846,92736
92897,92776
92959,92814
93013,92818
92982,92815
92956,92783
92985,92812
93062,92848
93102,92885
93110,92845
93053,92829
93108,92894
93211,92925
93208,92936
93217,92902
93213,92905
93245,92926
93306,92958
93329,92968
93309,92957
93297,92937
93321,92956
93386,93011
93397,92998
93408,93001
93362,92965
93402,92990
93474,93055
93495,93037
93483,93032
93418,93018
93535,93030
93557,93055
93587,93052
93568,93070
93564,93067
93625,93090
93698,93144
93708,93124
93674,93094
93697,93109
93734,93163
93811,93195
93802,93181
93831,93198
93846,93183
93893,93215
93918,93266
93963,93236
93971,93251
93962,93245
93999,93281
94074,93310
94096,93303
94039,93268
93960,93211
93910,93216
93829,93154
93652,93075
93413,92947
93146,92813
92949,92762
92754,92646
92553,92541
92314,92431
92123,92324
92029,92292
91960,92288
91789,92199
91676,92136
91546,92065
91474,92037
91436,92043
91310,91995
91244,91956
91115,91874
91116,91909
91065,91886
90971,91856
90914,91816
90814,91764
90809,91798
90852,91790
90754,91762
90717,91734
90666,91716
90729,91729
90708,91765
90711,91720
90701,91752
90633,91714
90705,91743
90730,91765
90773,91787
90746,91767
90725,91757
90765,91791
90835,91830
90844,91829
90852,91797
90832,91803
90939,91877
90992,91901
90994,91890
91010,91896
90986,91881
91056,91955
91073,91938
91101,91946
91089,91924
91078,91925
91130,91968
91200,91998
91138,91975
91138,91961
91144,91955
91204,91979
91239,92025
91253,91994
91242,92008
91243,91981
91348,92035
91364,92117
91369,92056
91354,92085
91355,92079
91433,92131
91464,92097
91466,92148
91471,92108
91417,92086
91455,92137
91494,92138
91466,92141
91465,92083
91430,92094
91450,92129
91472,92119
91452,92140
91436,92077
91390,92076
91450,92130
91417,92140
91474,92089
91397,92077
91378,92086
91439,92091
91388,92101
91432,92100
91363,92025
91380,92085
91428,92101
91390,92116
91402,92073
91352,92045
91358,92054
91416,92121
91420,92126
91405,92097
91429,92081
91394,92082
91450,92128
91499,92129
91433,92153
91436,92101
91437,92090
91484,92128
91539,92162
91534,92179
91533,92152
91544,92159
91580,92189
91644,92194
91618,92240
91615,92204
91615,92181
91691,92252
91726,92242
91737,92265
91741,92235
91739,92231
91813,92304
91855,92286
91824,92306
91790,92279
91869,92315
91927,92333
91955,92354
91945,92336
91957,92339
91930,92378
91990,92369
92090,92408
92038,92434
92040,92365
92091,92438
92181,92414
92187,92465
92166,92417
92157,92423
92204,92438
92292,92511
92303,92512
92304,92515
92288,92485
92312,92517
92382,92560
92418,92539
92400,92576
92412,92527
92403,92556
92470,92598
92513,92611
92480,92596
92481,92557
92498,92590
92566,92650
92608,92652
92589,92644
92552,92632
92600,92638
92663,92690
92674,92669
92674,92694
92632,92643
92654,92695
92743,92717
92767,92716
92731,92711
92697,92684
92743,92716
92782,92726
92821,92737
92787,92724
92754,92694
92817,92723
92854,92769
92873,92768
92843,92738
92830,92750
92875,92786
92913,92794
92954,92806
92933,92799
92917,92774
92949,92804
93024,92844
93013,92842
93013,92829
92984,92810
92994,92843
93050,92869
93058,92857
93056,92852
93034,92818
93062,92868
93128,92898
93099,92875
93098,92873
93052,92838
93117,92884
93139,92893
93175,92896
93124,92866
93112,92860
93152,92912
93237,92939
93218,92932
93206,92926
93150,92888
93209,92902
93271,92946
93264,92931
93255,92949
93224,92917
93258,92939
93331,92973
93302,92962
93327,92951
93263,92938
93356,92992
93392,92996
93403,93003
93376,93001
93332,92969
93430,93007
93469,93047
93511,93022
93503,93044
93465,93015
93555,93069
93595,93105
93547,93074
93591,93095
93572,93063
93604,93098
93684,93145
93646,93105
93593,93094
93503,93016
93469,93008
93336,92976
93168,92847
92921,92739
92689,92615
92514,92554
92359,92513
92152,92367
91986,92303
91811,92205
91708,92172
91633,92125
91460,92054
91342,92020
91232,91913
91139,91912
91096,91888
90994,91791
90855,91774
90733,91723
90739,91717
90633,91733
90559,91683
90467,91618
90387,91586
90422,91576
90350,91569
90297,91550
90227,91525
90188,91477
90228,91511
90248,91539
90178,91519
90132,91458
90136,91475
90138,91535
90218,91539
90180,91488
90157,91478
90151,91514
90200,91547
90248,91546
90259,91549
90233,91538
90205,91508
90301,91562
90341,91607
90317,91598
90341,91592
90308,91582
90361,91639
90380,91618
90412,91608
90363,91592
90375,91605
90435,91660
90440,91669
90452,91645
90418,91584
90404,91635
90470,91658
90472,91687
90495,91681
90469,91672
90478,91655
90534,91715
90621,91740
90605,91727
90565,91714
90582,91707
90624,91759
90672,91782
90665,91768
90647,91729
90670,91745
90700,91783
90722,91801
90694,91762
90656,91747
90655,91748
90721,91783
90739,91783
90688,91770
90668,91725
90647,91751
90726,91787
90743,91789
90679,91757
90642,91740
90646,91755
90717,91786
90724,91774
90683,91768
90640,91747
90616,91736
90689,91767
90694,91765
90655,91737
90642,91721
90609,91727
90688,91783
90717,91761
90686,91766
90667,91717
90661,91741
90721,91783
90704,91772
90725,91768
90711,91737
90726,91776
90793,91807
90756,91808
90791,91812
90766,91787
90796,91831
90875,91862
90845,91861
90848,91869
90812,91812
90884,91866
90947,91894
90978,91902
90962,91895
90912,91868
90989,91884
91048,91929
91070,91957
91091,91944
91032,91912
91092,91944
91149,91994
91154,91982
91189,91988
91143,91990
91187,91987
91266,92047
91278,92057
91303,92041
91273,92028
91332,92062
91345,92099
91405,92114
91392,92094
91399,92076
91454,92118
91469,92147
91495,92149
91533,92161
91472,92109
91557,92157
91564,92194
91581,92180
91593,92180
91591,92157
91640,92219
91666,92238
91693,92224
91692,92222
91643,92174
91711,92269
91755,92264
91760,92247
91761,92259
91735,92206
91761,92279
91816,92274
91812,92273
91806,92276
91773,92243
91818,92289
91854,92296
91860,92298
91887,92344
91843,92270
91879,92316
91963,92374
91903,92335
91959,92330
91917,92293
91977,92341
92030,92387
91962,92361
92017,92354
91973,92326
92014,92387
92074,92398
92055,92369
92028,92374
92043,92360
92081,92404
92101,92419
92119,92393
92113,92398
92055,92398
92161,92466
92210,92443
92179,92466
92165,92441
92126,92435
92199,92445
92248,92514
92205,92465
92269,92475
92207,92454
92279,92494
92295,92489
92325,92508
92282,92485
92260,92463
92346,92525
92368,92547
92364,92538
92326,92512
92329,92512
92389,92507
92470,92603
92400,92545
92417,92540
92387,92514
92475,92618
92504,92567
92452,92579
92474,92584
92420,92548
92512,92572
92524,92620
92541,92622
92480,92588
92524,92570
92559,92648
92629,92646
92553,92637
92565,92650
92571,92611
92635,92658
92711,92676
92636,92684
92674,92677
92662,92671
92716,92723
92768,92739
92783,92717
92732,92726
92759,92679
92852,92763
92842,92748
92858,92746
92849,92725
92857,92748
92886,92773
92910,92804
92815,92727
92709,92668
92600,92582
92484,92599
92342,92484
92112,92390
91905,92294
91755,92176
91594,92106
91478,92085
91310,92008
91172,91862
91025,91843
90943,91834
90849,91768
90736,91695
90548,91644
90453,91580
90397,91561
90331,91540
90190,91500
90090,91400
90009,91379
89958,91417
89889,91363
89836,91303
89707,91286
89678,91248
89682,91250
89695,91269
89599,91244
89556,91172
89539,91190
89572,91203
89557,91220
89535,91202
89522,91168
89520,91225
89567,91211
89562,91244
89609,91256
89528,91222
89581,91244
89609,91238
89653,91317
89669,91277
89619,91272
89671,91272
89735,91353
89766,91345
89723,91311
89710,91276
89771,91328
89793,91367
89837,91357
89797,91359
89802,91314
89796,91313
89866,91400
89846,91376
89881,91398
89830,91304
89858,91373
89904,91409
89932,91392
89908,91420
89884,91334
89945,91397
89956,91449
90002,91419
90046,91455
89981,91410
90045,91444
90111,91474
90133,91506
90072,91482
90087,91495
90072,91494
90143,91510
90168,91516
90136,91521
90133,91481
90131,91519
90207,91515
90149,91530
90158,91523
90089,91469
90157,91522
90154,91512
90153,91519
90193,91522
90103,91447
90186,91507
90158,91556
90139,91510
90194,91503
90104,91517
90136,91460
90209,91584
90176,91532
90147,91473
90142,91482
90163,91506
90188,91567
90165,91532
90173,91524
90104,91466
90193,91542
90237,91560
90206,91537
90219,91526
90209,91511
90216,91585
90283,91565
90231,91566
90259,91578
90264,91513
90330,91606
90340,91605
90343,91606
90312,91603
90326,91572
90410,91660
90434,91620
90443,91675
90431,91678
90402,91639
90475,91651
90507,91733
90503,91671
90551,91736
90502,91668
90608,91712
90602,91766
90626,91734
90679,91738
90615,91739
90677,91759
90726,91768
90739,91804
90728,91791
90707,91742
90821,91840
90821,91860
90815,91850
90844,91816
90838,91818
90882,91895
90925,91885
90937,91881
90941,91899
90944,91888
90961,91932
91052,91978
91000,91953
91049,91931
91008,91888
91093,91974
91116,91996
91137,91988
91153,91999
91094,91954
91198,92040
91187,92007
91218,92026
91238,92008
91201,92028
91284,92028
91299,92096
91290,92066
91311,92042
91301,92075
91356,92103
91432,92126
91396,92130
91407,92127
91340,92085
91471,92109
91479,92168
91476,92145
91458,92160
91462,92103
91523,92173
91577,92204
91562,92192
91545,92143
91568,92188
91586,92200
91663,92234
91623,92214
91620,92210
91631,92210
91681,92227
91748,92288
91716,92253
91699,92231
91733,92228
91772,92298
91816,92327
91793,92308
91788,92253
91832,92308
91828,92317
91884,92329
91897,92326
91906,92323
91900,92322
91973,92385
91968,92388
92006,92373
91986,92353
91996,92356
92055,92413
92104,92461
92100,92450
92110,92421
92108,92416
92152,92475
92203,92478
92212,92469
92186,92483
92211,92466
92279,92521
92270,92523
92294,92533
92262,92508
92279,92545
92358,92553
92386,92563
92357,92534
92380,92532
92355,92531
92434,92611
92468,92607
92480,92592
92457,92581
92480,92612
92508,92638
92604,92664
92603,92663
92578,92644
92579,92664
92642,92676
92713,92749
92702,92698
92676,92708
92687,92714
92813,92761
92797,92756
92821,92791
92812,92716
92797,92771
92883,92794
92834,92772
92813,92765
92713,92661
92593,92661
92489,92584
92331,92493
92078,92386
91895,92248
91681,92216
91531,92121
91410,92052
91249,91965
91082,91901
90934,91854
90914,91816
90760,91767
90634,91703
90497,91629
90417,91613
90387,91558
90241,91548
90169,91489
90013,91447
89976,91399
89981,91427
89912,91350
89785,91336
89727,91290
89702,91296
89735,91286
89666,91302
89643,91299
89588,91225
89604,91257
89633,91308
89635,91262
89631,91284
89600,91276
89609,91293
89717,91315
89694,91294
89691,91319
89697,91316
89729,91333
89822,91367
89802,91385
89840,91371
89817,91347
89913,91383
89923,91498
89923,91453
89932,91442
89937,91417
90022,91459
90021,91489
90066,91509
90077,91475
90057,91444
90093,91514
90165,91527
90143,91528
90127,91525
90142,91520
90155,91570
90244,91586
90227,91548
90220,91585
90197,91575
90264,91587
90373,91643
90350,91623
90400,91649
90352,91602
90430,91679
90473,91655
90472,91706
90495,91694
90406,91678
90520,91697
90526,91759
90509,91723
90525,91703
90471,91686
90575,91735
90572,91714
90523,91726
90561,91751
90533,91687
90564,91702
90594,91771
90574,91737
90570,91713
90548,91722
90552,91727
90613,91785
90606,91775
90576,91713
90513,91709
90611,91706
90607,91787
90604,91747
90573,91727
90525,91724
90598,91737
90651,91797
90624,91763
90619,91755
90597,91714
90655,91803
90643,91772
90660,91785
90692,91752
90635,91748
90753,91793
90757,91849
90724,91821
90762,91831
90743,91769
90825,91861
90899,91896
90876,91869
90847,91853
90896,91882
90932,91906
91006,91899
90996,91920
91019,91924
90979,91965
91058,91965
91161,92034
91138,92022
91144,91986
91112,91990
91190,92065
91263,92087
91282,92040
91279,92077
91291,92052
91350,92139
91400,92097
91384,92136
91396,92137
91405,92156
91458,92173
91524,92189
91547,92167
91488,92170
91527,92185
91557,92195
91660,92290
91615,92257
91608,92242
91667,92233
91716,92315
91748,92293
91723,92284
91722,92289
91747,92280
91820,92338
91842,92337
91831,92333
91833,92334
91812,92298
91956,92383
91929,92415
91915,92390
91924,92388
91944,92333
92010,92425
91977,92403
92037,92411
92001,92416
91976,92383
92092,92475
92067,92459
92063,92470
92084,92444
92073,92444
92114,92441
92156,92520
92120,92480
92137,92469
92130,92470
92180,92526
92220,92549
92199,92525
92197,92488
92230,92522
92247,92548
92288,92561
92291,92528
92262,92505
92272,92544
92312,92564
92360,92599
92333,92570
92311,92551
92318,92552
92426,92598
92379,92594
92392,92591
92347,92561
92357,92539
92447,92645
92433,92606
92419,92642
92389,92590
92433,92634
92451,92621
92479,92679
92448,92610
92440,92611
92474,92642
92521,92672
92506,92635
92517,92628
92453,92653
92488,92630
92599,92684
92578,92692
92561,92696
92526,92667
92537,92663
92657,92712
92586,92702
92604,92710
92585,92657
92682,92720
92672,92793
92721,92749
92681,92762
92687,92708
92729,92744
92767,92752
92779,92816
92742,92759
92674,92681
92645,92723
92579,92649
92427,92641
92257,92526
92036,92404
91902,92319
91775,92261
91555,92165
91398,92084
91202,91976
91128,91992
91010,91918
90884,91869
90743,91777
90613,91696
90503,91682
90453,91640
90302,91608
90201,91553
90101,91474
90044,91467
89958,91454
89854,91399
89777,91337
89694,91289
89682,91302
89666,91334
89584,91259
89573,91256
89442,91222
89498,91256
89473,91279
89465,91192
89501,91236
89390,91200
89447,91228
89515,91263
89516,91278
89479,91282
89481,91225
89546,91279
89538,91312
89570,91308
89594,91317
89560,91287
89616,91350
89684,91333
89674,91353
89718,91354
89696,91318
89776,91401
89758,91433
89812,91410
89798,91400
89770,91371
89836,91448
89833,91419
89853,91441
89845,91421
89778,91377
89889,91461
89881,91458
89909,91499
89932,91441
89885,91409
89994,91487
89993,91524
89980,91519
90023,91522
90009,91486
90074,91548
90150,91580
90114,91578
90111,91556
90060,91522
90150,91574
90176,91619
90145,91589
90119,91557
90103,91548
90126,91592
90178,91566
90122,91568
90138,91579
90121,91516
90137,91603
90147,91543
90124,91575
90120,91554
90061,91508
90161,91572
