11111,11111
0,0
82482,81999
131906,105223
134602,105194
134628,105197
134626,105195
134638,105200
134631,105200
134649,105213
134642,105223
134722,105244
134687,105224
134673,105186
134684,105195
134755,105224
134779,105212
134774,105238
134740,105245
134759,105195
134800,105250
134805,105254
134821,105211
134824,105238
134787,105205
134842,105227
134853,105283
134871,105249
134831,105197
134869,105224
134909,105253
134877,105255
134893,105266
134893,105217
134853,105252
134912,105244
134918,105291
134851,105212
134769,105201
134762,105161
134727,105188
134639,105111
134620,105131
134486,105103
134386,105036
134382,105019
134265,104993
134179,104962
134116,104916
134001,104911
133972,104897
133893,104869
133825,104830
133702,104788
133622,104735
133582,104727
133579,104716
133491,104686
133393,104635
133393,104658
133359,104681
133306,104625
133302,104649
133231,104581
133240,104606
133219,104615
133280,104640
133257,104638
133217,104566
133175,104614
133278,104611
133256,104657
133232,104607
133285,104593
133253,104616
133322,104640
133318,104653
133349,104642
133307,104653
133326,104635
133376,104657
133410,104670
133391,104687
133375,104669
133407,104631
133473,104707
133482,104720
133465,104709
133514,104726
133503,104706
133596,104707
133633,104774
133611,104773
133604,104696
133654,104746
133744,104752
133753,104812
133709,104789
133711,104791
133704,104777
133743,104822
133805,104778
133785,104805
133764,104756
133781,104787
133790,104798
133790,104793
133788,104763
133778,104771
133764,104766
133776,104774
133834,104802
133776,104790
133757,104733
133774,104763
133767,104807
133760,104749
133802,104755
133714,104752
133768,104731
133771,104788
133769,104752
133763,104787
133736,104723
133801,104736
133802,104757
134276,104923
134566,105017
134612,105060
134813,105097
134788,105068
134789,105095
134862,105117
134822,105081
134769,105016
134695,105015
134633,104986
134562,104977
133703,104638
133728,104662
133677,104612
133602,104655
133569,104619
133586,104602
133628,104627
133599,104653
133603,104580
133583,104590
133562,104606
133652,104631
133625,104647
133630,104616
133642,104646
133678,104647
133734,104677
133711,104671
133764,104668
133747,104660
133806,104663
133855,104730
133836,104731
133840,104679
133806,104685
133900,104734
133912,104743
133900,104753
133903,104681
133902,104704
133961,104742
133974,104763
133964,104771
134029,104742
134023,104780
134059,104780
134118,104808
134107,104788
134156,104792
134156,104802
134178,104840
134220,104860
134175,104833
134188,104796
134197,104810
134197,104841
134204,104821
134212,104810
134184,104834
134170,104795
134208,104793
134253,104827
134177,104847
134146,104767
134161,104775
134183,104808
134187,104817
134140,104819
134145,104769
134128,104772
134143,104817
134150,104793
134125,104794
134154,104780
134120,104752
134140,104778
134161,104789
134156,104796
134117,104774
134140,104770
134188,104805
134209,104841
134144,104805
134179,104800
134189,104780
134245,104817
134294,104837
134254,104843
134230,104791
134275,104796
134299,104837
134335,104845
134341,104846
134320,104798
134384,104830
134379,104872
134421,104865
134445,104887
134397,104844
134456,104881
134499,104915
134520,104903
134486,104913
134513,104911
134521,104908
134557,104936
134589,104944
134579,104927
134608,104956
134600,104932
134658,104972
134674,104945
134688,104959
134690,104963
134691,104976
134724,104986
134721,104996
134742,104971
134709,104951
134784,104985
134827,104970
134820,105002
134821,105045
134837,105008
134832,105025
134911,105011
134893,105040
134927,105072
134904,105000
134902,105040
134962,105038
134976,105037
134987,105091
134973,105032
134968,105037
134993,105080
134997,105094
135003,105054
134956,105031
134992,105062
135031,105051
135096,105113
135030,105080
135014,105047
135094,105094
135099,105082
135133,105125
135097,105114
135101,105107
135124,105070
135161,105125
135173,105127
135133,105106
135152,105110
135186,105106
135253,105139
135245,105177
135207,105103
135211,105135
135268,105101
135326,105149
135321,105150
135319,105187
135318,105167
135326,105205
135361,105165
135415,105172
135402,105182
135386,105167
135358,105194
135377,105165
135377,105163
135283,105163
135261,105085
135182,105117
135171,105071
135147,105111
135031,105023
134995,104988
134942,104991
134877,104960
134834,104946
134755,104896
134695,104882
134622,104886
134612,104883
134567,104850
134464,104806
134424,104769
134369,104809
134358,104759
134333,104776
134304,104780
134223,104730
134276,104750
134262,104753
134273,104727
134291,104750
134268,104733
134254,104761
134284,104736
134332,104743
134305,104774
134291,104737
134379,104781
134393,104772
134397,104810
134435,104791
134456,104806
134464,104797
134555,104866
134542,104853
134608,104856
134574,104874
134616,104854
134639,104881
134687,104925
134699,104882
134687,104855
134730,104923
134774,104918
134798,104919
134830,104924
134824,104895
134934,104979
134917,105002
134985,104972
134962,104978
135011,104972
135023,105011
135100,105009
135142,105053
135109,105010
135115,105023
135154,105065
135168,105069
135142,105023
135179,105039
135128,105014
135148,105043
135180,105051
135125,105051
135143,105017
135136,105028
135126,105004
135134,105038
135136,105052
135084,105009
135102,105003
135088,105033
135114,104995
135113,105015
135127,105012
135091,105012
135100,104994
135177,105005
135132,105034
135160,105016
135153,105001
135175,105015
135243,105038
135188,105075
135197,105026
135211,105021
135271,105036
135306,105051
135313,105091
135306,105063
135329,105073
135404,105076
135387,105110
135461,105104
135431,105142
135437,105076
135527,105137
135572,105144
135551,105186
135544,105156
135597,105156
135633,105228
135681,105218
135748,105208
135738,105202
135750,105222
135826,105245
135866,105288
135873,105258
135853,105270
135932,105273
135951,105294
135995,105294
136052,105347
136051,105307
136040,105333
136065,105337
136142,105344
136123,105365
136127,105341
136151,105354
136219,105389
136242,105412
136300,105429
136277,105434
136284,105401
136363,105410
136420,105454
136409,105462
136425,105481
136411,105456
136491,105476
136550,105512
136508,105523
136516,105469
136506,105495
136520,105491
136567,105486
136564,105486
136539,105521
136515,105488
136546,105483
136590,105499
136581,105512
136574,105511
136535,105492
136620,105548
136655,105553
136622,105526
136681,105542
136636,105527
136689,105578
136723,105552
136691,105563
136695,105549
136699,105522
136752,105578
136786,105596
136739,105555
136728,105557
136756,105562
136783,105583
136861,105601
136852,105591
136847,105593
136897,105605
136943,105619
136987,105649
137014,105660
137002,105644
137046,105671
137055,105711
137051,105670
137010,105665
136940,105595
136869,105598
136826,105544
136681,105511
136563,105448
136426,105400
136283,105379
136210,105317
136081,105280
136018,105267
135866,105223
135823,105163
135796,105180
135726,105166
135712,105158
135609,105099
135627,105080
135631,105105
135610,105101
135570,105121
135539,105099
135585,105065
135616,105103
135602,105092
135613,105105
135593,105085
135607,105076
135648,105109
135698,105145
135725,105145
135665,105117
135734,105152
135829,105172
135806,105160
135824,105182
135840,105160
135871,105191
135951,105228
135982,105220
135988,105232
136033,105249
136051,105275
136098,105290
136128,105286
136185,105305
136141,105285
136200,105298
136265,105337
136305,105369
136354,105359
136333,105373
136393,105416
136476,105418
136543,105429
136587,105432
136613,105468
136628,105460
136710,105479
136739,105490
136765,105510
136726,105529
136759,105482
136838,105524
136791,105552
136774,105521
136731,105476
136791,105524
136778,105512
136729,105476
136747,105488
136682,105482
136661,105460
136656,105465
136627,105439
136605,105435
136538,105426
136520,105394
136518,105430
136501,105423
136456,105357
136472,105335
136444,105412
136465,105397
136490,105388
136468,105400
136382,105375
136451,105368
136467,105386
136498,105417
136492,105397
136502,105372
136512,105371
136572,105416
136570,105393
136610,105433
136596,105400
136632,105433
136716,105466
136706,105484
136705,105464
136730,105436
136787,105470
136838,105526
136889,105526
136873,105549
136827,105494
136940,105574
136974,105571
137014,105576
137045,105600
136982,105564
137096,105613
137092,105622
137159,105655
137151,105626
137214,105642
137232,105654
137317,105693
137331,105700
137336,105688
137324,105693
137358,105698
137417,105740
137410,105729
137436,105732
137395,105701
137499,105769
137494,105791
137557,105753
137558,105772
137528,105779
137575,105771
137637,105804
137620,105812
137643,105814
137623,105755
137693,105824
137708,105814
137682,105872
137697,105809
137688,105781
137745,105822
137710,105857
137702,105792
137713,105833
137670,105781
137693,105829
137752,105827
137757,105844
137701,105835
137758,105797
137788,105844
137791,105882
137804,105858
137807,105848
137753,105845
137800,105832
137851,105851
137796,105870
137778,105843
137786,105837
137853,105872
137873,105902
137849,105851
137857,105873
137803,105884
137855,105883
137905,105869
137889,105898
137899,105874
137862,105895
137950,105921
137993,105918
137998,105915
137968,105904
137915,105880
137970,105885
137959,105887
137882,105853
137780,105821
137617,105722
137526,105682
137401,105655
137221,105622
137054,105519
136851,105457
136774,105439
136699,105371
136586,105371
136443,105314
136395,105251
136394,105292
136327,105275
136278,105232
136251,105211
136180,105219
136216,105213
136231,105206
136168,105212
136149,105185
136137,105196
136150,105218
136158,105210
136141,105225
136144,105200
136160,105212
136184,105247
136226,105195
136209,105212
136242,105228
136212,105206
136322,105246
136344,105286
136318,105265
136340,105263
136391,105283
136425,105301
136475,105313
136482,105330
136471,105285
136475,105291
136557,105363
136598,105371
136627,105348
136607,105346
136688,105380
136725,105399
136745,105464
136781,105423
136780,105451
136800,105445
136896,105449
136967,105517
137003,105513
136997,105495
137055,105523
137109,105567
137112,105528
137141,105554
137142,105537
137143,105558
137176,105560
137195,105547
137175,105576
137155,105547
137110,105533
137130,105546
137139,105530
137128,105551
137030,105509
137016,105493
137055,105520
137006,105521
136960,105433
136969,105461
136882,105421
136877,105437
136893,105418
136852,105448
136779,105365
136811,105416
136816,105403
136798,105424
136806,105393
136783,105389
136758,105404
136815,105381
136873,105432
136857,105416
136803,105420
136850,105400
136893,105446
136934,105475
136917,105430
136917,105420
136942,105421
137027,105496
137001,105482
137006,105456
137036,105495
137053,105488
137103,105511
137114,105527
137127,105514
137160,105501
137202,105535
137259,105563
137252,105578
137285,105573
137342,105553
137351,105616
137395,105586
137481,105660
137475,105641
137437,105614
137517,105622
137521,105672
137588,105701
137602,105699
137606,105654
137658,105676
137684,105748
137713,105704
137749,105755
137702,105720
137776,105730
137825,105775
137826,105761
137862,105736
137836,105760
137905,105779
137970,105801
137991,105816
137937,105824
137950,105781
137980,105836
138048,105851
138064,105870
138048,105881
138043,105809
138069,105841
138071,105889
138116,105834
138085,105856
138053,105847
138056,105815
138142,105858
138136,105875
138062,105868
138073,105819
138112,105837
138110,105883
138096,105849
138100,105832
138105,105863
138119,105877
138124,105888
138178,105878
138149,105882
138091,105860
138164,105873
138197,105885
138186,105896
138155,105876
138173,105841
138191,105887
138217,105871
138212,105876
138137,105863
138115,105838
138103,105862
138035,105786
137909,105756
137783,105708
137626,105607
137491,105566
137345,105562
137195,105512
137055,105424
136894,105382
136812,105318
136804,105322
136695,105320
136593,105272
136521,105194
136527,105229
136461,105236
136456,105190
136397,105195
136365,105133
136370,105169
136313,105175
136346,105180
136313,105121
136255,105138
136282,105168
136352,105130
136321,105157
136304,105160
136302,105113
136326,105161
136353,105206
136361,105169
136313,105176
136326,105141
136426,105195
136411,105214
136451,105215
136492,105195
136460,105226
136495,105232
136575,105227
136594,105286
136561,105269
136594,105243
136609,105301
136703,105304
136728,105288
136715,105319
136712,105291
136812,105299
136862,105371
136852,105378
136839,105334
136866,105342
136932,105372
136932,105398
136969,105406
136994,105364
136973,105409
137042,105418
137047,105417
137096,105420
137100,105426
137035,105419
137077,105413
137077,105445
137079,105435
137061,105383
137064,105393
137060,105438
137041,105381
137046,105401
136999,105378
136935,105368
136996,105367
136935,105379
136906,105336
136892,105325
136811,105320
136865,105352
136843,105329
136834,105292
136822,105330
136770,105262
136823,105299
136819,105306
136818,105301
136764,105331
136742,105272
136816,105315
136809,105310
136798,105302
136787,105274
136835,105319
136823,105339
136856,105334
136822,105323
136846,105344
136827,105289
136856,105314
136901,105344
136921,105340
136876,105334
136893,105318
136950,105362
136999,105385
137023,105373
136992,105365
137049,105365
137100,105433
137172,105420
137167,105420
137185,105417
137219,105428
137275,105477
137316,105488
137354,105492
137368,105540
137390,105502
137419,105537
137487,105536
137494,105560
137518,105541
137523,105538
137625,105617
137636,105583
137681,105625
137646,105580
137716,105624
137731,105679
137779,105659
137819,105667
137779,105639
137783,105632
137879,105723
137903,105686
137895,105698
137890,105674
137924,105702
137957,105701
137979,105752
137982,105722
137984,105764
137993,105752
138048,105748
138070,105747
138049,105759
137990,105749
138061,105735
138083,105750
138100,105773
138085,105783
138065,105755
138094,105777
138092,105807
138130,105784
138122,105774
138099,105750
138117,105776
138116,105811
138173,105817
138142,105766
138138,105772
138114,105786
138211,105778
138217,105812
138221,105814
138177,105810
138164,105781
138257,105809
138237,105834
138149,105798
138095,105751
138003,105688
137969,105696
137845,105651
137661,105615
137518,105490
137379,105444
137241,105436
137098,105395
136977,105307
136835,105276
136792,105229
136730,105206
136669,105204
136634,105161
136522,105175
136497,105132
136501,105143
136476,105128
136423,105118
136406,105117
136383,105094
136413,105145
136447,105103
136403,105113
136362,105121
136375,105123
136440,105091
136474,105148
136419,105135
136444,105121
136489,105157
136496,105121
136519,105167
136572,105159
136540,105178
136569,105150
136608,105217
136650,105230
136660,105205
136677,105190
136773,105233
136781,105241
136830,105259
136801,105293
136816,105262
136908,105274
136918,105333
136972,105315
136990,105328
136981,105339
137025,105348
137121,105350
137148,105386
137137,105368
137158,105383
137236,105393
137287,105437
137291,105457
137338,105433
137320,105474
137355,105468
137423,105493
137416,105524
137384,105452
137434,105449
137426,105474
137423,105502
137463,105484
137417,105452
137375,105471
137347,105453
137404,105475
137343,105458
137328,105424
137252,105411
137215,105370
137262,105401
137220,105370
137145,105375
137091,105341
137058,105355
137089,105322
137103,105342
137062,105328
137015,105275
137001,105324
137030,105304
137025,105306
137034,105360
136983,105288
137071,105296
137070,105310
137126,105352
137056,105349
137050,105288
137133,105331
137123,105364
137139,105366
137153,105352
137133,105316
137137,105392
137222,105368
137236,105407
137208,105373
137197,105371
137281,105367
137323,105411
137357,105417
137366,105454
137329,105413
137397,105418
137483,105473
137460,105509
137494,105462
137504,105473
137512,105499
137544,105488
137602,105527
137566,105503
137597,105508
137617,105541
137681,105547
137715,105554
137724,105531
137735,105587
137779,105571
137820,105612
137831,105628
137853,105593
137828,105630
137875,105589
137939,105631
137923,105653
137915,105637
137925,105596
138034,105692
138037,105691
138086,105673
138074,105693
138058,105645
138173,105729
138132,105701
138172,105700
138182,105704
138149,105712
138169,105765
138181,105726
138214,105770
138187,105732
138200,105718
138243,105720
138269,105762
138242,105744
138278,105747
138251,105762
138303,105757
138300,105759
138338,105766
138363,105769
138331,105764
138403,105772
138444,105821
138418,105803
138443,105791
138407,105807
138401,105775
138453,105807
138413,105773
138338,105759
138226,105713
138235,105683
138122,105687
137985,105597
137795,105557
137631,105455
137543,105436
137372,105378
137235,105302
137102,105249
136983,105239
136913,105215
136875,105153
136798,105185
136705,105102
136670,105084
136648,105137
136604,105102
136612,105097
136565,105078
136555,105091
136573,105070
136582,105064
136560,105053
136554,105081
136510,105089
136580,105073
136614,105109
136585,105073
136529,105090
136583,105070
136650,105128
136659,105138
136679,105096
136675,105119
136708,105114
136728,105134
136816,105152
136839,105185
136829,105189
136854,105199
136953,105198
137026,105234
137004,105267
137029,105221
137079,105275
137159,105263
137240,105317
137248,105324
137279,105343
137275,105324
137357,105368
137445,105418
137469,105449
137484,105382
137512,105426
137609,105451
137644,105486
137659,105516
137685,105493
137734,105492
137767,105554
137771,105553
137823,105544
137813,105552
137802,105515
137857,105559
137883,105590
137827,105543
137774,105519
137824,105525
137805,105531
137799,105557
137733,105461
137668,105457
137633,105461
137625,105439
137535,105422
137469,105392
137444,105378
137381,105342
137422,105362
137405,105367
137319,105327
137302,105330
137273,105299
137306,105349
137334,105321
137264,105349
137230,105313
137263,105303
137345,105345
137367,105375
137350,105335
137286,105326
137309,105333
137370,105341
137444,105391
137377,105336
137426,105370
137407,105383
137508,105413
137494,105431
137513,105406
137499,105410
137548,105379
137625,105430
137654,105481
137651,105421
137675,105428
137684,105497
137716,105473
137792,105484
137795,105533
137755,105501
137840,105495
137891,105558
137926,105600
137932,105563
137959,105592
137996,105538
138094,105614
138110,105650
138126,105632
138113,105645
138201,105670
138202,105672
138262,105656
138273,105714
138272,105702
138368,105714
138435,105770
138482,105724
138496,105792
138488,105760
138539,105812
138576,105808
138620,105802
138669,105829
138660,105844
138697,105816
138742,105848
138782,105868
138783,105876
138714,105846
138814,105878
138806,105880
138859,105895
138873,105898
138798,105882
138868,105862
138905,105924
138907,105878
138903,105925
138894,105885
138869,105893
138904,105922
138872,105868
138797,105865
138647,105771
138629,105756
138452,105705
138284,105634
138033,105551
137868,105481
137695,105398
137553,105355
137409,105309
137259,105262
137083,105208
137058,105179
136991,105158
136917,105139
136904,105130
136820,105088
136779,105077
136800,105085
136805,105103
136771,105082
136694,105035
136745,105081
136779,105087
136760,105082
136735,105085
136735,105071
136764,105073
136816,105103
136815,105090
136804,105110
136825,105072
136833,105126
136918,105151
136918,105128
136966,105136
136941,105137
137007,105150
137074,105202
137126,105219
137118,105244
137080,105181
137188,105251
137225,105261
137274,105280
137303,105293
137277,105255
137367,105298
137412,105334
137479,105327
137492,105328
137515,105340
137562,105398
137615,105397
137696,105435
137738,105447
137741,105438
137824,105458
137857,105525
137897,105469
137910,105477
137904,105500
137960,105515
138043,105521
138016,105571
138009,105537
137965,105535
137996,105552
138023,105519
138017,105549
137937,105503
137913,105471
137878,105477
137883,105467
137869,105448
137799,105458
137695,105377
137717,105425
137728,105387
137652,105417
137597,105360
137567,105322
137569,105358
137579,105357
137589,105344
137523,105367
137475,105273
137518,105349
137558,105350
137536,105357
137539,105349
137502,105293
137580,105345
137593,105362
137568,105333
137580,105365
137535,105301
137635,105370
137635,105346
137656,105398
137653,105403
137621,105337
137710,105398
137695,105412
137779,105410
137756,105425
137732,105365
137860,105455
137891,105432
137868,105477
137886,105426
137941,105506
137948,105495
137994,105495
138017,105511
137992,105481
138011,105530
138054,105545
138120,105521
138109,105561
138106,105550
138088,105542
138179,105556
138199,105602
138199,105609
138202,105567
138209,105612
138292,105623
138320,105619
138372,105625
138368,105667
138377,105637
138434,105680
138455,105667
138512,105689
138537,105700
138486,105669
138584,105709
138646,105751
138642,105734
138595,105761
138637,105694
138721,105776
138711,105772
138684,105761
138731,105754
138725,105767
138761,105778
138829,105815
138817,105772
138774,105812
138795,105761
138848,105822
138866,105823
138854,105808
138867,105805
138812,105742
138805,105784
138684,105716
138559,105668
138368,105616
138172,105477
138025,105453
137828,105386
137627,105316
137431,105197
137301,105216
137232,105160
137080,105126
137025,105099
136911,105041
136891,105033
136831,105030
136843,105017
136773,104996
136693,104973
136720,104957
136714,104990
136678,104978
136685,104960
136650,104953
136619,104929
136682,104964
136671,104990
136671,104965
136656,104948
136676,104978
136729,104979
136749,104987
136775,104983
136778,105009
136786,105028
136859,105049
136879,105043
136914,105052
136893,105062
136956,105050
137021,105084
137037,105097
137028,105097
137036,105132
137062,105117
137221,105153
137199,105148
137217,105196
137221,105151
137300,105166
137353,105238
137360,105226
137369,105252
137408,105227
137471,105270
137543,105310
137596,105284
137621,105308
137635,105307
137657,105315
137762,105352
137749,105360
137761,105347
137783,105376
137792,105369
137809,105379
137852,105397
137827,105403
137818,105349
137824,105395
137848,105345
137837,105396
137788,105344
137741,105330
137718,105336
137734,105332
137695,105326
137661,105272
137596,105245
137597,105299
137525,105278
137532,105238
137510,105212
137442,105225
137446,105262
137434,105182
137461,105239
137397,105222
137365,105180
137379,105186
137433,105207
137447,105221
137420,105214
137381,105169
137409,105224
137474,105206
137486,105265
137453,105227
137444,105204
137481,105208
137532,105252
137552,105246
137537,105255
137492,105219
137588,105249
137619,105326
137667,105353
137664,105295
137661,105295
137753,105305
137823,105379
137847,105365
137838,105375
137887,105387
137921,105432
137983,105457
138006,105452
138031,105430
138052,105418
138097,105467
138113,105515
138151,105499
138189,105496
138149,105513
138206,105518
138291,105528
138311,105562
138247,105549
138297,105518
138360,105570
138366,105595
138443,105609
138474,105597
138395,105603
138471,105595
138536,105653
138544,105637
138547,105633
138542,105606
138598,105677
138629,105651
138620,105670
138660,105687
138624,105651
138667,105705
138695,105657
138758,105707
138701,105704
138705,105691
138708,105689
138768,105751
138785,105703
138817,105705
138785,105715
138809,105736
138873,105751
138822,105752
138750,105665
138700,105676
138645,105658
138521,105630
138385,105557
138170,105439
137986,105375
137831,105313
137706,105256
137517,105198
137353,105139
137201,105084
137066,105059
137062,105000
136999,104990
136864,104971
136809,104933
136776,104966
136749,104906
136738,104919
136706,104889
136614,104882
136668,104897
136638,104878
136640,104873
136632,104871
136584,104857
136645,104907
136673,104895
136668,104936
136646,104873
136662,104916
136684,104933
136717,104926
136776,104937
136778,104944
136745,104909
136850,104942
136862,104981
136900,105013
136896,105011
136880,104980
136970,105002
137014,105054
137031,105018
137035,105026
137005,105024
137114,105052
137138,105121
137131,105052
137171,105100
137205,105060
137291,105122
137276,105120
137324,105117
137372,105169
137392,105141
137443,105205
137485,105200
137550,105203
137553,105251
137537,105217
137639,105259
137651,105279
137645,105252
137628,105274
137602,105231
137686,105267
137709,105262
137675,105283
137660,105244
137605,105253
137603,105204
137621,105260
137574,105177
137536,105190
137461,105163
137503,105172
137458,105187
137382,105135
137353,105157
137298,105124
137324,105116
137341,105140
137329,105096
137248,105106
137250,105075
137272,105092
137320,105101
137269,105104
137258,105096
137246,105105
137327,105104
137333,105121
137350,105145
137328,105112
137291,105118
137392,105151
137392,105161
137397,105165
137416,105139
137400,105158
137475,105189
137515,105177
137529,105219
137491,105180
137543,105178
137582,105226
137591,105241
137628,105239
137616,105245
137629,105227
137733,105258
137740,105263
137738,105295
137749,105269
137742,105293
137839,105307
137861,105309
137881,105337
137844,105328
137926,105314
137975,105414
138026,105389
138017,105384
138045,105406
138052,105393
138152,105407
138185,105429
138173,105448
138144,105411
138180,105465
138266,105471
138260,105485
138274,105494
138292,105455
138300,105500
138362,105468
138394,105520
138364,105506
138358,105483
138427,105520
138416,105526
138437,105549
138507,105570
138482,105527
138448,105544
138545,105545
138591,105549
138578,105579
138545,105573
138547,105558
138620,105604
138651,105628
138614,105583
138615,105574
138649,105596
138685,105602
138704,105608
138657,105626
138623,105541
138636,105548
138583,105592
138505,105525
138320,105493
138200,105380
138074,105328
137886,105309
137706,105223
137529,105147
137339,105039
137239,105017
137124,105017
137032,104944
136929,104892
136798,104866
136773,104835
136706,104891
136643,104825
136589,104803
136540,104755
136546,104820
136530,104780
136546,104768
136527,104740
136488,104760
136446,104774
136506,104742
136536,104799
136528,104801
136456,104774
136499,104762
136604,104809
136599,104796
136617,104796
136574,104805
136584,104814
136689,104822
136709,104864
136677,104876
136715,104841
136735,104864
136824,104878
136828,104927
136826,104879
136835,104906
136892,104919
136939,104936
136963,104927
137031,104977
136965,104941
137019,104977
137117,104981
137162,105018
137195,105055
137165,105033
137232,105030
137326,105071
137373,105085
137391,105113
137388,105132
137429,105100
137506,105143
137487,105150
137524,105127
137511,105125
137508,105171
137589,105153
137566,105167
137525,105169
137462,105124
137514,105129
137511,105142
137482,105160
137449,105094
137383,105077
137386,105073
137365,105067
137364,105057
137295,105076
137218,104992
137282,105010
137260,105018
137253,105053
137193,104944
137157,104984
137178,104993
137171,104967
137171,104989
137149,105001
137102,104982
137111,104961
137139,104983
137172,105008
137153,104994
137076,104968
137152,104977
137176,104969
137217,104984
137209,105037
137210,104986
137248,105052
137294,105024
137323,105035
137314,105081
137270,105022
137390,105069
137425,105098
137433,105113
137455,105067
137417,105108
137497,105117
137532,105181
137535,105111
137574,105152
137526,105158
137617,105172
137660,105174
137661,105160
137711,105181
137665,105205
137745,105175
137797,105239
137803,105229
137836,105253
137840,105247
137851,105241
137912,105260
137952,105267
137889,105280
137928,105261
137993,105308
138000,105330
138006,105292
138011,105322
138009,105305
138094,105363
138069,105360
138132,105317
138127,105364
138124,105353
138175,105360
138229,105402
138207,105396
138245,105386
138246,105405
138287,105407
138298,105431
138323,105409
138342,105446
138329,105443
138357,105398
138393,105457
138383,105431
138385,105446
138412,105423
138415,105469
138481,105472
138480,105471
138482,105495
138455,105450
138504,105485
138472,105470
138425,105424
138369,105437
138229,105356
138198,105302
138064,105283
137855,105187
137692,105130
137511,105027
137388,105065
137232,104988
137084,104945
136966,104863
136895,104827
136802,104818
136764,104806
136696,104815
136587,104738
136590,104710
136551,104745
136576,104711
136504,104704
136501,104675
136432,104714
136492,104662
136527,104702
136512,104694
136500,104691
136471,104723
136531,104698
136568,104699
136545,104743
136514,104729
136564,104714
136607,104717
136669,104791
136647,104758
136646,104746
136707,104781
136745,104829
136810,104802
136795,104853
136790,104803
136862,104826
136938,104843
136952,104883
137015,104884
137035,104908
137031,104930
137108,104924
137156,104947
137197,104946
137233,104942
137286,105019
137327,105013
137395,105023
137436,105080
137426,105069
137529,105073
137583,105107
137632,105126
137665,105172
137638,105118
137645,105144
137654,105144
137690,105130
137693,105151
137646,105138
137626,105112
137635,105140
137627,105088
137627,105134
137524,105082
137510,105031
137511,105058
137506,105055
137447,105047
137372,105006
137382,104986
137387,105013
137362,105015
137319,105008
137214,104961
137229,104937
137249,104968
137242,104925
137186,104939
137163,104905
137145,104939
137178,104936
137184,104931
137183,104928
137169,104956
137167,104907
137228,104928
137246,104987
137190,104929
137231,104953
137238,104930
137275,104970
137324,104967
137294,104995
137256,104965
137315,104984
137350,104997
137380,105017
137363,104988
137404,104998
137380,105032
137449,105045
137501,105041
137482,105081
137490,105013
137535,105095
137544,105066
137575,105089
137637,105083
137581,105077
137647,105103
137706,105150
137707,105121
137728,105145
137695,105129
137764,105163
137806,105164
137857,105181
137851,105194
137851,105139
137899,105208
137977,105250
137964,105230
138026,105239
138001,105251
138048,105258
138088,105268
138140,105272
138121,105275
138120,105296
138129,105271
138197,105288
138228,105343
138224,105316
138152,105286
138237,105293
138294,105347
138262,105307
138266,105320
138261,105328
138316,105316
138341,105363
138355,105361
138376,105365
138308,105333
138373,105370
138371,105397
138409,105348
138353,105373
138280,105314
138249,105289
138192,105239
138019,105224
137887,105149
137655,105068
137544,105019
137385,104974
137251,104915
137054,104867
136883,104771
136898,104766
136811,104738
136691,104741
136622,104666
136589,104640
136543,104670
136519,104644
136544,104650
136479,104644
136412,104590
136400,104611
136433,104620
136422,104604
136401,104615
136350,104577
136363,104601
136438,104626
136430,104614
136364,104606
136395,104614
136442,104625
136491,104652
136502,104647
136519,104647
136491,104641
136587,104660
136642,104712
136661,104696
136653,104696
136669,104719
136741,104740
136802,104774
136792,104772
136820,104760
136813,104739
136874,104760
136969,104817
136931,104827
136981,104819
136939,104841
137025,104847
137138,104905
137162,104899
137175,104868
137182,104889
137272,104935
137330,104969
137368,104934
137364,104976
137344,104951
137413,104954
137487,105009
137446,104989
137456,104989
137397,104965
137443,104986
137497,105025
137422,104994
137381,104944
137340,104921
137365,104945
137369,104942
137294,104923
137258,104898
137237,104922
137200,104895
137181,104880
137181,104880
137125,104861
137081,104828
137124,104820
137101,104849
137063,104840
137031,104827
136986,104765
137069,104808
137036,104848
137038,104796
136971,104791
136987,104821
136985,104821
137072,104817
137019,104834
137037,104817
137059,104834
137075,104856
137147,104836
137109,104865
137152,104835
137118,104843
137183,104907
137228,104860
137236,104899
137228,104872
137277,104905
137324,104956
137375,104924
137384,104948
137384,104948
137419,104959
137469,104994
137476,104987
137504,104971
137513,104992
137501,104957
137627,105017
137632,105061
137653,105029
137644,105040
137647,105036
137738,105081
137746,105099
137774,105104
137727,105071
137776,105081
137830,105096
137834,105132
137851,105119
137863,105096
137899,105108
137939,105141
138034,105181
138004,105157
137980,105179
138009,105140
138104,105193
138090,105202
138111,105229
138131,105204
138181,105246
138195,105245
138251,105250
138232,105241
138233,105256
138237,105243
138351,105293
138309,105322
138323,105268
138325,105303
138280,105279
138368,105341
138415,105306
138392,105302
138380,105307
138416,105317
138445,105356
138487,105316
138442,105322
138363,105316
138356,105246
138312,105276
138192,105195
138061,105142
137829,105100
137641,104976
137556,104951
137347,104866
137163,104810
136962,104765
136839,104690
136782,104658
136694,104650
136593,104589
136509,104572
136457,104544
136442,104538
136393,104537
136353,104538
136246,104471
136288,104465
136284,104521
136257,104460
136278,104480
136194,104482
136193,104478
136258,104497
136261,104461
136251,104462
136230,104505
136266,104463
136309,104516
136330,104504
136353,104505
136287,104527
136337,104492
136409,104555
136454,104585
136433,104565
136443,104540
136467,104591
136483,104588
136554,104613
136504,104587
136551,104567
136597,104618
136624,104598
136668,104662
136675,104624
136644,104641
136723,104693
136768,104652
136862,104724
136839,104743
136846,104667
136913,104733
136976,104767
137074,104755
137049,104782
137018,104737
137104,104795
137093,104795
137143,104831
137092,104817
137112,104755
137139,104809
137157,104792
137133,104804
137117,104775
137078,104782
137077,104758
137111,104771
137092,104779
136995,104758
136959,104728
136948,104705
136996,104730
136938,104737
136883,104687
136835,104663
136850,104669
136831,104715
136819,104650
136828,104672
136760,104654
136758,104642
136763,104654
136775,104636
136778,104638
136728,104656
136786,104660
136779,104687
136836,104649
136833,104687
136773,104674
136811,104668
136872,104725
136914,104692
136897,104691
136882,104686
136949,104720
136908,104711
136985,104725
136910,104715
136959,104699
137004,104774
137012,104742
137056,104771
137051,104769
136994,104723
137070,104750
137148,104803
137147,104777
137180,104807
137176,104816
137191,104806
137298,104838
137272,104835
137315,104855
137288,104808
137379,104868
137402,104898
137474,104907
137433,104916
137449,104875
137560,104964
137575,104959
137598,104980
137623,104958
137599,104957
137645,104992
137719,104992
137739,105014
137729,105029
137713,104969
137784,104994
137812,105056
137804,105008
137816,105014
137748,105006
137819,105019
137864,105073
137849,105043
137864,105037
137813,105001
137915,105067
137892,105066
137945,105060
137909,105027
137925,105076
138010,105112
137989,105078
138013,105107
138042,105116
137983,105089
138048,105116
138093,105106
138095,105120
138009,105111
138020,105060
138078,105091
137980,105096
137900,105027
137729,104976
137583,104906
137428,104858
137320,104803
137127,104726
136925,104677
136767,104605
136731,104589
136620,104561
136502,104498
136468,104482
136373,104429
136369,104473
136336,104415
136289,104405
136188,104416
136148,104368
136204,104379
136134,104346
136131,104344
136072,104360
136034,104309
136113,104338
136056,104346
136099,104359
136055,104349
136038,104362
136069,104343
136117,104366
136113,104382
136086,104336
136136,104387
136198,104404
136176,104404
136181,104353
136194,104391
136202,104398
136262,104410
136294,104432
136289,104434
136273,104412
136272,104411
136372,104454
136350,104460
136351,104430
136372,104447
136356,104430
136439,104483
136467,104487
136464,104470
136478,104512
136467,104500
136536,104540
136624,104533
136615,104556
136653,104546
136691,104560
136740,104566
136791,104616
136782,104629
136763,104556
136774,104594
136843,104612
136836,104651
136815,104615
136793,104597
136774,104595
136793,104626
136770,104589
136767,104550
136686,104533
136694,104538
136719,104566
136689,104548
136639,104527
136601,104507
136607,104528
136628,104527
136609,104519
136543,104515
136542,104517
136502,104465
136575,104496
136544,104509
136549,104502
136509,104500
136532,104457
136565,104525
136561,104515
136521,104484
136562,104485
136564,104518
136568,104505
136616,104531
136596,104497
136597,104510
136591,104476
136655,104545
136640,104548
136684,104518
136647,104548
136673,104534
136713,104549
136737,104541
136729,104557
136723,104563
136753,104587
136814,104601
136816,104591
136841,104611
136835,104572
136818,104590
136909,104606
136884,104637
136945,104654
136930,104613
136927,104643
137030,104674
137041,104694
137014,104660
136997,104645
137051,104688
137094,104682
137087,104697
137116,104690
137084,104676
137155,104736
137195,104752
137205,104721
137221,104740
137207,104707
137211,104762
137252,104744
137321,104783
137302,104737
137251,104767
137347,104770
137343,104794
137370,104773
137393,104797
137333,104754
137357,104773
137436,104810
137432,104833
137378,104768
137382,104817
137429,104792
137453,104820
137468,104835
137472,104791
137428,104802
137530,104812
137549,104856
137576,104854
137563,104822
137546,104841
137620,104863
137598,104882
137639,104863
137617,104860
137596,104819
137587,104865
137632,104851
137550,104854
137418,104749
137274,104719
137150,104656
137062,104652
136914,104584
136796,104510
136637,104462
136551,104426
136529,104429
136420,104396
136323,104321
136240,104296
136230,104317
136206,104298
136127,104301
136123,104260
136052,104245
136046,104259
136029,104240
136034,104234
135955,104259
135910,104213
135974,104222
136006,104260
135989,104259
135986,104252
135948,104253
136004,104265
136029,104242
136037,104219
136079,104302
136039,104262
136052,104282
136101,104264
136165,104313
136124,104298
136073,104277
136186,104301
136259,104327
136238,104368
136254,104300
136253,104328
136294,104332
136363,104386
136410,104357
136375,104391
136368,104375
136470,104404
136543,104435
136523,104448
136545,104444
136551,104454
136565,104447
136670,104474
136698,104508
136655,104463
136685,104462
136699,104499
136776,104523
136799,104568
136767,104477
136759,104520
136796,104561
136828,104525
136835,104545
136769,104505
136769,104516
136818,104537
136816,104530
136787,104531
136735,104474
136683,104450
136738,104496
136722,104481
136658,104493
136615,104461
136549,104448
136571,104473
136587,104431
136562,104405
136546,104433
136501,104398
136533,104411
136539,104432
136535,104411
136516,104394
136474,104405
136544,104406
136566,104458
136520,104409
136526,104422
136512,104397
136572,104440
136534,104432
136574,104424
136545,104435
136559,104413
136631,104434
136645,104433
136652,104474
136605,104426
136628,104408
136724,104495
136754,104474
136705,104503
136707,104466
136761,104475
136785,104535
136823,104524
136810,104532
136829,104530
136876,104490
136902,104590
136930,104557
136964,104593
136966,104547
136946,104554
137046,104612
137039,104626
137105,104597
137061,104606
137049,104642
137131,104602
137192,104651
137160,104675
137135,104636
137181,104611
137194,104693
137227,104689
137270,104643
137285,104662
137236,104697
137297,104686
137345,104721
137360,104692
137332,104690
137340,104712
137412,104706
137445,104740
137445,104754
137389,104722
137454,104716
137472,104725
137512,104765
137477,104749
137448,104730
137458,104742
137477,104758
137536,104773
137533,104807
137535,104737
137525,104779
137576,104813
137572,104791
137594,104797
137557,104809
137577,104762
137619,104831
137664,104793
137610,104801
137574,104782
137601,104758
137619,104794
137543,104769
137410,104706
137300,104677
137149,104579
137100,104546
136944,104538
136769,104440
136611,104402
136498,104302
136477,104359
136366,104317
136294,104273
136215,104237
136165,104241
136190,104215
136172,104229
136064,104194
136034,104163
136030,104167
136009,104177
136062,104174
135977,104181
135944,104128
135973,104144
135999,104170
136042,104185
135985,104150
135967,104177
136042,104153
136054,104181
136104,104207
136062,104184
136060,104174
136147,104230
136173,104279
136169,104234
136199,104245
136180,104230
136242,104234
136287,104305
136282,104279
136293,104266
136315,104255
136327,104265
136434,104323
136426,104365
136427,104306
136433,104337
136502,104317
136547,104394
136556,104373
136604,104406
136578,104391
136625,104404
136734,104455
136782,104449
136759,104450
136769,104438
136851,104487
136886,104501
136920,104497
136938,104502
136872,104493
136883,104470
136942,104498
136911,104522
136875,104461
136852,104469
136842,104449
136878,104462
136839,104480
136805,104470
136700,104438
136733,104448
136713,104407
136747,104430
136643,104381
136584,104382
136634,104359
136606,104393
136602,104339
136580,104389
136493,104318
136526,104386
136536,104362
136567,104361
136530,104372
136505,104328
136559,104362
136584,104367
136570,104352
136560,104361
136551,104342
136595,104350
136616,104380
136623,104380
136641,104411
136620,104362
136644,104382
136704,104418
136750,104426
136682,104409
136698,104409
136767,104433
136812,104462
136803,104464
136797,104438
136794,104431
136863,104461
136870,104476
136904,104470
136909,104482
136891,104513
136985,104489
136986,104535
137011,104544
136971,104524
136957,104486
137065,104534
137041,104544
137103,104556
137072,104549
137068,104574
137142,104540
137141,104590
137163,104610
137155,104559
137162,104575
137248,104596
137281,104616
137281,104619
137262,104653
137234,104573
137346,104653
137349,104650
137373,104674
137364,104646
137293,104623
137420,104687
137420,104661
137441,104670
137442,104663
137455,104687
137500,104674
137530,104710
137550,104712
137521,104707
137454,104667
137552,104719
137569,104730
137574,104696
137566,104728
137471,104681
137539,104709
137478,104701
137390,104650
137245,104586
137127,104503
137025,104493
136942,104478
136814,104410
136634,104351
136544,104289
136483,104280
136425,104274
136333,104254
136262,104178
136164,104145
136168,104208
136114,104170
136104,104134
136095,104129
136025,104108
136001,104129
136043,104116
136010,104138
135968,104090
135990,104064
136009,104108
136040,104124
136040,104113
136011,104132
135990,104108
136075,104149
136086,104159
136112,104152
136060,104151
136068,104167
136127,104159
136205,104172
136151,104178
136150,104200
136185,104170
136261,104181
136334,104236
136283,104220
136298,104219
136289,104208
136388,104246
136431,104287
136420,104253
136437,104263
136459,104284
136544,104314
136569,104334
136619,104357
136638,104332
136630,104350
136713,104374
136738,104389
136764,104377
136756,104373
136778,104393
136850,104412
136873,104457
136866,104440
136794,104385
136847,104406
136887,104442
136832,104444
136849,104411
136791,104371
136760,104375
136812,104363
136749,104408
136711,104352
136696,104364
136607,104333
136677,104331
136630,104338
136549,104316
136550,104282
136507,104292
136558,104291
136573,104277
136558,104311
136488,104301
136500,104265
136573,104309
136585,104344
136516,104284
136509,104244
136573,104331
136594,104309
136616,104292
136618,104326
136550,104337
136580,104294
136616,104330
136652,104359
136609,104333
136588,104293
136650,104365
136694,104353
136735,104358
136730,104349
136737,104363
136750,104344
136835,104412
136862,104399
136846,104404
136844,104382
136869,104430
136933,104416
136979,104427
136968,104445
136919,104455
136934,104426
136992,104466
137064,104470
137051,104511
136995,104441
137100,104491
137137,104491
137144,104490
137164,104535
137099,104494
137166,104544
137183,104555
137264,104581
137233,104549
137243,104568
137302,104538
137338,104597
137388,104610
137400,104586
137351,104601
137440,104604
137425,104632
137470,104609
137447,104591
137463,104599
137474,104609
137522,104641
137527,104649
137582,104656
137480,104664
137547,104634
137624,104680
137626,104679
137610,104664
137583,104704
137637,104682
137691,104698
137676,104727
137711,104675
137619,104688
137712,104731
137697,104715
137701,104698
137703,104677
137601,104686
137622,104668
137521,104632
137367,104562
137228,104499
137082,104449
136952,104401
136788,104344
136693,104274
136539,104268
136389,104187
136329,104182
136276,104137
136243,104134
136138,104100
136057,104056
136038,104095
136003,104034
136004,104058
135937,103999
135905,104004
135873,104004
135913,103989
135875,104028
135865,103980
135823,103959
135907,104002
135865,104033
135862,103999
135889,103994
135850,103982
135923,104037
135870,104034
135950,104029
135911,104012
135920,103993
135994,104051
136006,104077
136057,104067
136064,104090
136056,104065
136132,104106
136153,104097
136165,104116
136182,104121
136157,104087
136254,104125
136253,104155
136269,104128
136314,104146
136238,104169
136309,104166
136393,104215
136395,104210
136412,104223
136439,104163
136483,104272
136505,104219
136568,104294
136552,104257
136505,104239
136580,104278
136646,104294
136632,104279
136599,104266
136646,104247
136650,104272
136686,104320
136671,104266
136637,104272
136587,104265
136610,104268
136608,104261
136599,104234
136584,104254
136501,104213
136525,104236
136512,104235
136478,104208
136418,104171
136404,104207
136423,104182
136435,104197
136406,104156
136411,104155
136300,104166
136361,104148
136396,104179
136400,104140
136315,104149
136337,104140
136360,104147
136421,104169
136413,104195
136358,104168
136340,104165
136410,104194
136455,104191
136467,104210
136415,104187
136452,104201
136487,104225
136515,104234
136514,104207
136562,104221
136513,104208
136616,104263
136628,104261
136600,104269
136640,104239
136608,104285
136696,104279
136761,104319
136770,104332
136709,104326
136767,104284
136864,104362
136863,104328
136863,104334
136903,104344
136900,104363
136971,104431
137025,104369
137005,104386
137008,104416
137021,104370
137054,104420
137118,104454
137101,104454
137120,104417
137124,104458
137214,104458
137185,104454
137236,104453
137227,104502
137249,104486
137289,104502
137340,104530
137326,104542
137303,104488
137370,104507
137395,104528
137408,104576
137422,104548
137387,104549
137394,104528
137438,104543
137511,104574
137492,104555
137463,104572
137477,104572
137527,104568
137574,104610
137554,104618
137539,104570
137563,104617
137573,104589
137660,104620
137589,104624
137529,104588
137532,104598
137555,104542
137529,104555
137354,104526
137188,104418
137071,104356
136926,104336
136798,104267
136595,104169
136438,104135
136299,104091
136256,104062
136206,104029
136083,104016
135987,103994
135917,103964
135899,103945
135840,103930
135807,103903
135729,103855
135735,103851
135748,103910
135718,103854
135724,103864
135640,103846
135674,103841
135731,103904
135727,103861
135727,103888
135677,103845
135739,103900
135789,103919
135767,103918
135786,103936
135784,103889
135795,103925
135882,103925
135914,103983
135881,103980
135900,103934
135905,103974
135964,103990
136027,104015
135998,104039
136004,103962
136069,104008
136093,104049
136142,104032
136115,104056
136144,104051
136149,104089
136186,104044
136240,104092
136257,104081
136212,104065
136301,104124
136302,104116
136341,104137
136353,104142
136376,104116
136366,104142
136446,104127
136476,104186
136431,104182
136422,104130
136484,104191
136483,104216
136486,104170
136461,104138
136468,104158
136441,104144
136462,104158
136462,104148
136430,104137
136370,104140
136365,104102
136357,104137
136339,104114
136332,104119
136240,104065
136293,104076
136273,104121
136288,104088
136225,104047
136231,104075
136234,104061
136220,104059
136239,104049
136222,104058
136139,104029
136207,104046
136206,104047
136282,104061
136274,104072
136237,104058
136225,104064
136285,104109
136284,104074
136312,104088
136253,104087
136316,104119
136319,104117
136366,104137
136334,104068
136366,104115
136385,104153
136413,104145
136433,104136
136477,104154
136438,104130
136536,104174
136539,104168
136582,104220
136570,104146
136554,104192
136640,104193
136664,104201
136744,104241
136675,104232
136647,104223
136749,104258
136752,104260
136774,104239
136797,104302
136781,104238
136792,104284
136873,104299
136872,104294
136848,104259
136831,104289
136864,104308
136945,104314
136935,104333
136911,104312
136883,104273
136937,104317
136999,104359
136980,104321
136944,104333
136925,104312
137002,104346
137018,104363
137020,104308
137033,104341
136992,104320
137078,104338
137090,104389
137115,104362
137096,104353
137076,104359
137180,104417
137209,104414
137169,104393
137207,104412
137176,104384
137272,104425
137280,104433
137274,104427
137264,104449
137282,104422
137312,104446
137364,104484
137352,104455
137307,104440
137330,104451
137330,104450
137267,104436
137239,104421
137117,104343
136931,104311
136887,104270
136752,104185
136595,104156
136449,104069
136281,104045
136210,104028
136134,103952
136086,103940
135934,103863
135861,103853
135867,103873
135859,103836
135733,103852
135702,103820
135637,103799
135691,103808
135654,103795
135616,103776
135627,103779
135567,103761
135593,103787
135611,103795
135589,103771
135613,103770
135592,103818
135636,103791
135666,103853
135641,103798
135648,103805
135609,103795
135711,103807
135779,103856
135751,103850
135749,103855
135741,103828
135839,103871
135879,103868
135877,103877
135870,103849
135870,103902
135931,103884
136000,103921
136026,103926
136007,103921
136071,103958
136070,103944
136109,104011
136134,103985
136132,104009
136147,103989
136251,104013
136283,104027
136296,104034
136255,104040
136324,104025
136368,104066
136389,104079
136428,104075
136354,104063
136421,104069
136447,104123
136469,104091
136474,104078
136362,104075
136393,104077
136444,104085
136470,104107
136397,104077
136333,104040
136351,104046
136340,104062
136332,104046
136311,104025
136202,103987
136218,103996
136226,104020
136227,104011
136187,103987
136157,103958
136171,103995
136175,103990
136165,103988
136172,103997
136136,103964
136109,103959
136184,103960
136186,104007
136156,103977
136154,103980
136164,103982
136263,103989
136263,104006
136240,104018
136238,103996
136213,104007
136316,104048
136346,104029
136325,104033
136295,104016
136350,104021
136355,104060
136425,104097
136406,104065
136353,104062
136439,104074
136477,104097
136477,104107
136532,104104
136470,104082
136522,104102
136602,104154
136591,104127
136628,104135
136557,104134
136672,104150
136684,104161
136727,104169
136716,104173
136695,104183
136755,104194
136768,104217
136831,104234
136808,104204
136769,104211
136859,104233
136846,104238
136892,104246
136902,104251
136864,104230
136909,104263
136957,104278
136985,104276
136976,104264
136952,104259
136961,104284
137045,104314
137085,104302
137010,104291
137035,104289
137051,104292
137107,104346
137117,104307
137107,104316
137091,104302
137113,104327
137170,104345
137164,104336
137159,104338
137115,104306
137155,104356
137197,104345
137222,104362
137196,104351
137113,104305
137200,104338
137222,104355
137197,104356
137256,104370
137151,104313
137273,104380
137292,104375
137264,104383
137287,104370
137254,104350
137275,104361
137329,104419
137317,104399
137205,104355
137145,104306
137086,104289
137014,104267
136882,104178
136718,104128
136550,104075
136461,104026
136327,103999
136270,103952
136086,103908
135990,103873
135978,103842
135906,103818
135874,103827
135783,103770
135681,103748
135713,103784
135705,103762
135645,103726
135612,103711
135539,103707
135616,103708
135570,103720
135603,103729
135579,103711
135529,103707
135568,103694
135594,103715
135632,103715
135572,103712
135571,103705
135636,103723
135642,103734
135701,103769
135667,103760
135644,103757
135720,103780
135776,103781
135800,103824
135762,103797
135815,103807
135839,103844
135919,103845
135884,103856
135929,103842
135895,103828
135957,103850
136010,103877
135984,103866
135997,103899
135999,103866
136055,103900
136122,103910
136156,103937
136145,103920
136196,103945
136291,103973
136323,104005
136326,104007
136344,104023
136322,104002
136407,104021
136436,104062
136407,104034
136399,104059
136400,104002
136434,104014
136464,104045
136390,103985
136390,104036
136331,103977
136397,104023
136373,104014
136357,103957
136271,103987
136275,103968
136282,103937
136264,103957
136245,103974
136222,103944
136155,103935
136210,103912
136220,103936
136149,103922
136148,103898
136084,103904
136160,103904
136190,103935
136124,103888
136103,103913
136075,103921
136156,103898
136185,103921
136146,103915
136152,103927
136156,103897
136208,103944
136218,103932
136249,103957
136234,103938
136224,103940
136294,103971
136306,103983
136376,103972
136323,103994
136332,103964
136401,103984
136433,104024
136439,104022
136436,103987
136425,104026
136519,104057
136526,104062
136534,104075
136539,104070
136600,104058
136652,104090
136688,104111
136682,104102
136712,104113
136755,104136
136830,104154
136859,104205
136823,104146
136843,104159
136844,104185
136924,104173
136985,104248
136914,104167
136898,104189
136954,104228
137019,104230
137013,104238
137070,104258
137030,104246
137053,104215
137139,104263
137153,104288
137111,104310
137104,104271
137158,104280
137189,104294
137181,104318
137205,104326
137137,104295
137199,104292
137268,104341
137260,104300
137266,104361
137228,104317
137265,104318
137296,104374
137301,104331
137321,104350
137286,104341
137310,104332
137383,104364
137371,104389
137391,104338
137331,104339
137376,104365
137425,104358
137460,104399
137416,104335
137412,104382
137426,104371
137479,104404
137497,104404
137448,104396
137462,104370
137457,104411
137492,104403
137450,104400
137426,104363
137334,104333
137295,104340
137185,104282
137067,104183
136917,104173
136713,104069
136593,104001
136534,103986
136333,103976
136230,103894
136055,103844
136060,103803
136012,103828
135887,103765
135887,103782
135778,103716
135743,103697
135800,103710
135717,103726
135725,103721
135650,103699
135669,103676
135667,103682
135687,103712
135633,103658
135623,103653
135666,103682
135702,103709
135685,103719
135686,103693
135673,103696
135735,103711
135771,103738
135762,103714
135781,103755
135779,103731
135834,103775
135839,103776
135903,103769
135882,103791
135900,103799
135955,103806
135993,103814
136035,103836
136041,103854
135995,103809
136111,103876
136109,103919
136170,103869
136175,103875
136153,103871
136261,103937
136282,103935
136338,103927
136294,103925
136362,103958
136401,103957
136458,103989
136474,104034
136502,104007
136471,104008
136478,104020
136524,104008
136553,104044
136518,104010
136506,104017
136500,104050
136515,104009
136560,104025
136478,103996
136421,103948
136433,103990
136406,103974
136435,103969
136349,103921
136324,103917
136323,103955
136298,103918
136288,103939
136255,103916
136199,103849
136211,103928
136219,103906
136193,103919
136148,103883
136151,103836
136189,103908
136221,103874
136192,103882
136167,103883
136211,103859
136223,103891
136258,103921
136269,103901
136246,103888
136259,103896
136293,103940
136323,103986
136315,103932
136360,103927
136302,103938
136397,103951
136431,103981
136425,103951
136419,103968
136419,103946
136504,103991
136503,104034
136571,104004
136511,104016
136538,104036
136590,104042
136661,104052
136612,104034
136664,104033
136668,104067
136715,104100
136759,104084
136784,104113
136810,104128
136814,104106
136876,104151
136879,104136
136903,104170
136904,104173
136909,104121
136980,104174
136986,104212
136997,104171
137050,104184
136996,104219
137080,104229
137119,104221
137142,104245
137124,104248
137103,104203
137211,104270
137226,104290
137260,104293
137219,104291
137239,104242
137291,104287
137311,104315
137288,104286
137264,104283
137289,104304
137334,104326
137356,104345
137346,104321
137351,104330
137323,104286
137340,104342
137410,104344
137399,104357
137364,104351
137387,104322
137410,104345
137457,104379
137453,104336
137432,104327
137442,104342
137520,104386
137478,104392
137473,104348
137518,104369
137482,104402
137580,104399
137558,104399
137575,104436
137538,104384
137545,104380
137607,104413
137588,104400
137556,104362
137494,104352
137387,104360
137324,104318
137259,104271
137117,104207
136951,104159
136809,104063
136699,104039
136564,103963
136405,103918
136249,103860
136201,103873
136136,103859
136066,103838
135983,103772
135944,103753
135904,103755
135881,103748
135860,103724
135814,103740
135759,103693
135740,103706
135801,103714
135800,103708
135736,103699
135734,103710
135767,103702
135768,103721
135797,103708
135795,103707
135802,103719
135865,103743
135868,103755
135925,103772
135939,103776
135919,103773
135962,103768
135992,103793
136058,103852
136042,103817
136049,103842
136101,103830
136194,103846
136206,103863
136251,103912
136192,103870
136276,103890
136348,103961
136376,103959
136401,103932
136369,103951
136495,103986
136536,104012
136609,104041
136597,104054
136588,104004
136678,104094
136749,104102
136760,104102
136788,104087
136807,104107
136845,104096
136902,104157
136913,104155
136897,104130
136885,104144
136912,104118
136913,104155
136932,104140
136853,104135
136788,104118
136820,104136
136788,104117
136818,104097
136752,104092
136679,104059
136709,104067
136690,104033
136690,104061
136620,104072
136539,103976
136566,104008
136576,104015
136534,103988
136524,103952
136435,103976
136498,103993
136487,104000
136484,103948
136510,103969
136418,103974
136451,104001
136474,103989
136489,103996
136477,103952
136497,103988
136505,104007
136547,104020
136604,104007
136593,104003
136520,103978
136569,104020
136670,104061
136655,104083
136640,104022
136609,104039
136675,104058
136750,104100
136771,104065
136794,104079
136754,104113
136833,104109
136858,104114
136933,104139
136922,104165
136901,104113
136981,104161
137042,104199
137081,104210
137074,104228
137081,104190
137151,104236
137193,104271
137244,104239
137215,104230
137196,104281
137268,104275
137359,104283
137376,104316
137358,104300
137308,104339
137370,104325
137434,104364
137426,104348
137501,104332
137441,104340
137524,104368
137569,104377
137608,104433
137533,104383
137567,104389
137636,104417
137626,104438
137640,104423
137643,104398
137634,104416
137701,104436
137730,104446
137683,104453
137672,104472
137680,104401
137738,104448
137773,104476
137793,104462
137711,104472
137741,104433
137795,104471
137824,104522
137812,104475
137839,104492
137816,104475
137923,104534
137958,104579
137943,104540
137939,104510
137976,104573
138022,104567
138048,104584
138074,104557
138080,104613
138063,104571
138133,104616
138101,104603
138075,104592
138005,104551
137953,104512
137863,104509
137759,104442
137566,104385
137326,104271
137154,104179
137094,104158
136901,104096
136769,104022
136547,103973
136453,103917
136400,103930
136286,103876
136247,103875
136193,103841
136125,103830
136122,103816
136161,103814
136076,103815
136041,103782
135993,103745
136078,103810
136093,103817
136043,103818
136020,103748
136033,103789
136112,103834
136166,103848
136098,103837
136076,103774
136120,103839
136163,103846
136212,103837
136206,103876
136172,103829
136230,103884
136310,103898
136295,103906
136334,103902
136295,103875
136353,103935
136426,103933
136436,103960
136480,103953
136437,103945
136455,103986
136584,104028
136598,104027
136662,104022
136650,104009
136708,104052
136784,104106
136795,104078
136873,104117
136854,104085
136931,104133
137018,104181
137043,104183
137069,104189
137042,104193
137078,104207
137138,104208
137126,104192
137172,104235
137107,104218
137130,104210
137202,104197
137188,104222
137181,104223
137146,104175
137105,104186
137147,104224
137107,104200
137064,104164
137023,104171
137012,104136
136967,104163
136966,104105
136935,104099
136872,104101
136834,104094
136824,104070
136823,104066
136804,104084
136687,104008
136705,104028
136765,104040
136780,104042
136761,104066
136695,103987
136727,104031
136781,104048
136790,104096
136740,104045
136755,104049
136798,104073
136813,104061
136862,104115
136821,104070
136834,104056
136858,104105
136896,104071
136918,104126
136906,104089
136920,104093
136983,104126
136984,104161
137041,104161
137012,104161
137014,104156
137107,104164
137146,104213
137198,104194
137187,104212
137211,104235
137270,104218
137301,104269
137347,104279
137308,104250
137348,104292
137417,104276
137448,104281
137463,104325
137473,104330
137410,104314
137497,104330
137563,104371
137584,104342
137559,104343
137532,104320
137628,104353
137628,104422
137660,104398
137667,104373
137658,104410
137684,104397
137784,104449
137748,104403
137752,104419
137749,104406
137830,104479
137865,104491
137837,104472
137834,104452
137830,104478
137903,104467
137899,104490
137918,104496
137877,104538
137857,104454
137914,104507
137951,104488
137973,104503
137939,104522
137906,104503
137969,104485
138002,104535
138023,104502
138031,104525
137980,104525
138057,104533
138108,104574
138076,104564
138067,104537
138083,104556
138098,104598
138143,104541
138113,104587
138062,104544
137982,104508
137937,104485
137886,104442
137755,104389
137523,104317
137403,104241
137225,104179
137109,104139
136923,104076
136776,103996
136656,103973
136546,103958
136525,103916
136412,103886
136338,103855
136240,103834
136222,103829
136227,103806
136213,103783
136171,103739
136141,103770
136124,103803
136169,103765
136181,103782
136147,103787
136104,103796
136200,103812
136203,103808
136233,103837
136217,103824
136199,103822
136311,103839
136335,103899
136330,103881
136388,103839
136364,103850
136427,103912
136483,103907
136466,103897
136493,103909
136499,103905
136570,103966
136628,103980
136584,103961
136618,103971
136684,103986
136753,104037
136806,104035
136832,104063
136862,104050
136860,104045
136943,104088
137005,104101
137033,104127
137035,104126
137084,104126
137155,104158
137180,104170
137236,104192
137191,104131
137246,104192
137264,104225
137277,104242
137290,104198
137280,104233
137246,104217
137289,104209
137327,104213
137282,104217
137200,104134
137223,104157
137242,104174
137221,104181
137136,104125
137116,104152
137068,104111
137095,104113
137040,104091
137004,104087
136918,104079
136871,104031
136927,104029
136871,104041
136808,104014
136781,103983
136781,104015
136760,103978
136743,104017
136736,103985
136757,103972
136716,104010
136739,103977
136754,104010
136778,103974
136721,103946
136717,103987
136834,103998
136842,104017
136832,104016
136820,103994
136817,104005
136854,104024
136901,104037
136913,104050
136858,104031
136945,104051
136943,104058
136973,104052
136994,104052
137035,104056
137064,104114
137081,104120
137146,104140
137150,104112
137149,104138
137183,104172
137276,104144
137282,104177
137313,104187
137273,104156
137361,104196
137362,104254
137380,104232
137454,104236
137385,104220
137431,104251
137530,104277
137570,104282
137511,104279
137525,104279
137593,104281
137662,104318
137652,104329
137654,104303
137633,104292
137671,104322
137703,104318
137732,104356
137698,104369
137685,104324
137735,104330
137767,104407
137763,104362
137787,104365
137802,104371
137796,104408
137866,104370
137900,104427
137868,104398
137831,104366
137914,104411
137938,104429
137954,104437
137950,104390
137902,104434
137936,104386
137921,104458
137893,104429
137806,104345
137697,104279
137626,104290
137469,104205
137368,104156
137199,104109
137031,104065
136883,103999
136798,103982
136698,103932
136595,103894
136482,103814
136487,103825
136417,103855
136412,103802
136322,103796
136270,103771
136290,103746
136255,103785
136267,103766
136267,103746
136200,103732
136234,103769
136274,103787
136237,103760
136242,103746
136213,103756
136275,103776
136301,103798
136322,103775
136344,103813
136286,103778
136354,103798
136408,103850
136425,103820
136443,103847
136450,103854
136506,103855
136540,103877
136595,103892
136614,103877
136583,103892
136638,103915
136723,103957
136737,103945
136726,103938
136747,103940
136788,103969
136905,104016
136904,104034
136955,103995
137006,104049
137050,104078
137080,104083
137143,104065
137176,104128
137181,104101
137290,104157
137269,104142
137324,104148
137293,104190
137272,104134
137332,104190
137366,104173
137364,104166
137277,104144
137309,104123
137324,104180
137342,104150
137289,104126
137279,104125
137183,104103
137243,104140
137217,104091
137197,104110
137128,104053
137102,104047
137125,104094
137065,104072
137059,104025
137052,104047
136981,104006
137042,104055
137022,104055
136968,103992
136941,104025
136954,103989
136954,104030
136966,103995
136922,104029
136921,103960
136932,103997
136978,103981
136957,104011
136981,104023
136954,104017
136989,104019
137022,104021
137054,104075
137042,104023
137054,104044
137068,104052
137113,104039
137164,104083
137173,104055
137137,104069
137198,104085
137222,104096
137245,104101
137288,104125
137229,104111
137271,104116
137349,104128
137364,104177
137334,104127
137359,104131
137367,104136
137428,104159
137428,104168
137457,104177
137423,104178
137493,104178
137539,104230
137568,104229
137576,104187
137590,104231
137570,104244
137641,104230
137669,104253
137657,104241
137655,104245
137659,104280
137719,104250
137747,104277
137733,104268
137738,104268
137716,104320
137809,104279
137837,104330
137797,104302
137809,104288
137785,104305
137861,104346
137890,104336
137864,104329
137872,104325
137867,104331
137950,104340
137966,104373
137925,104347
137954,104350
137966,104381
137989,104355
138018,104387
137978,104348
137888,104339
137841,104298
137819,104285
137674,104234
137523,104185
137321,104097
137202,104010
137069,104008
136939,103961
136719,103876
136607,103812
136550,103782
136487,103777
136443,103740
136350,103735
136287,103702
136251,103684
136271,103695
136246,103708
136179,103626
136115,103615
136134,103660
136142,103636
136152,103644
136106,103624
136110,103629
136133,103622
136148,103656
136203,103705
136122,103631
136116,103623
136210,103704
136215,103716
136241,103702
136206,103675
136212,103688
136241,103690
136327,103733
136339,103727
136286,103717
136314,103697
136364,103757
136418,103742
136449,103767
136458,103768
136416,103777
136483,103802
136547,103772
136613,103815
136573,103849
136631,103834
136646,103854
136724,103832
136767,103884
136724,103885
136765,103859
136802,103914
136878,103970
136903,103931
136912,103946
136868,103920
136986,103953
136990,104005
136968,103951
136980,103927
136903,103956
136973,103923
137013,103971
136982,103933
136921,103954
136873,103917
136911,103963
136894,103905
136899,103904
136833,103905
136802,103881
136835,103890
136793,103893
136752,103849
136748,103865
136676,103828
136696,103846
136721,103842
136671,103868
136639,103785
136631,103815
136600,103831
136632,103815
136669,103790
136622,103806
136598,103764
136625,103815
136676,103807
136658,103824
136649,103847
136606,103795
136672,103819
136711,103866
136689,103843
136665,103843
136684,103782
136750,103877
136734,103848
136756,103861
136752,103839
136718,103845
136801,103881
136831,103902
136800,103852
136779,103888
136775,103860
136847,103893
136841,103896
136918,103940
136906,103883
136895,103884
136922,103927
136926,103924
136991,103934
136912,103934
136928,103889
137033,103959
137052,103931
137048,103926
137084,103931
137050,103990
137097,103945
137163,103996
137122,103965
137133,103967
137140,103970
137187,104039
137210,104022
137205,104042
137245,104028
137233,104012
137242,104037
137304,104033
137299,104025
137299,104025
137242,104041
137346,104096
137339,104068
137291,104044
137329,104059
137318,104044
137336,104064
137372,104064
137383,104070
137365,104060
137353,104059
137398,104105
137443,104102
137441,104080
137378,104092
137421,104098
137468,104071
137413,104104
137383,104055
137338,104044
137252,103996
137233,103980
137123,103967
136968,103898
136817,103816
136683,103775
136585,103763
136508,103745
136402,103639
136316,103641
136247,103615
136201,103603
136169,103550
136114,103568
136021,103531
136034,103523
136050,103566
136000,103531
136007,103491
135945,103496
135911,103501
135959,103481
135939,103534
135938,103476
135905,103467
135882,103451
135979,103501
135981,103507
135936,103470
135948,103503
135973,103524
136038,103518
136061,103554
136023,103516
135997,103489
136033,103560
136060,103542
136106,103534
136120,103581
136100,103578
136109,103571
136157,103573
136182,103563
136162,103586
136166,103542
136207,103591
136213,103612
136226,103593
136244,103616
136217,103575
136256,103592
136315,103626
136305,103666
136355,103628
136311,103625
136354,103659
136409,103660
136444,103697
136437,103647
136439,103632
136441,103652
136501,103670
136504,103716
136476,103648
136468,103666
136486,103674
136491,103705
136501,103640
136429,103673
136384,103649
136458,103670
136412,103664
136406,103627
136397,103652
136337,103610
136330,103603
136388,103620
136328,103629
136316,103617
136255,103577
136256,103587
136291,103599
136248,103557
136269,103597
136220,103529
136221,103580
136281,103543
136223,103553
136213,103579
136179,103534
136206,103554
136224,103550
136246,103582
136225,103583
136208,103526
136282,103579
136265,103614
136253,103549
136264,103589
136237,103560
136276,103589
136292,103587
