11111,11111
0,0
82338,82313
119778,112539
119567,112469
119399,112369
119289,112347
119177,112268
119092,112233
119053,112258
118938,112192
118947,112213
118919,112139
118891,112168
118833,112145
118824,112131
118799,112125
118808,112092
118790,112103
118753,112087
118772,112099
118797,112100
118746,112105
118805,112089
118757,112117
118790,112088
118822,112119
118835,112112
118832,112154
118856,112121
118878,112180
118850,112124
118896,112154
118945,112172
118925,112162
118956,112187
118963,112197
118988,112178
119019,112204
118981,112187
119032,112184
119038,112223
119066,112199
119068,112248
119074,112225
119113,112247
119126,112209
119133,112233
119130,112276
119195,112245
119200,112274
119197,112303
119264,112329
119284,112311
119344,112325
119352,112363
119397,112355
119414,112375
119430,112398
119495,112412
119484,112396
119596,112416
119620,112455
119608,112476
119649,112470
119668,112442
119677,112484
119680,112473
119707,112490
119750,112507
119689,112492
119720,112502
119698,112450
119694,112454
119665,112470
119649,112439
119617,112425
119613,112432
119609,112380
119582,112398
119573,112398
119515,112383
119518,112350
119528,112386
119481,112314
119480,112340
119465,112362
119418,112340
119427,112380
119441,112303
119456,112374
119444,112306
119472,112340
119431,112370
119470,112352
119439,112346
119497,112353
119504,112380
119515,112352
119540,112414
119536,112389
119627,112421
119580,112408
119632,112426
119632,112465
119665,112478
119685,112499
119692,112476
119721,112473
119728,112519
119742,112526
119810,112530
119816,112559
119857,112589
119840,112577
119911,112557
119944,112599
119939,112618
119972,112628
119969,112602
120069,112638
120012,112683
120074,112662
120081,112730
120122,112720
120131,112723
120573,112932
120915,113129
120864,113140
118150,111888
118093,111858
118007,111825
117616,111634
117580,111595
117620,111612
117584,111620
117783,111728
117780,111708
117813,111718
117800,111717
117866,111740
117853,111786
117917,111773
117894,111808
117920,111791
117951,111814
117980,111843
118034,111831
118027,111835
118009,111862
118040,111864
118099,111878
118067,111840
118113,111866
118074,111906
118092,111914
118075,111904
118105,111862
118129,111907
118095,111856
118127,111883
118089,111893
118073,111847
118120,111889
118051,111853
118055,111854
118068,111888
118075,111877
118078,111854
118043,111891
118030,111859
118046,111887
118054,111822
118013,111875
118018,111847
118060,111866
118096,111869
118081,111887
118081,111870
118093,111886
118104,111932
118094,111876
118131,111922
118174,111920
118169,111926
118185,111935
118156,111942
118207,111987
118234,111956
118241,111946
118279,111969
118307,111989
118333,111986
118318,112016
118369,112042
118346,112048
118410,112041
118415,112050
118465,112063
118471,112089
118504,112078
118528,112119
118588,112121
118599,112166
118601,112125
118656,112150
118667,112197
118658,112173
118779,112184
118751,112212
118785,112216
118787,112236
118843,112234
118874,112293
118901,112263
118941,112293
118969,112312
118964,112343
118975,112290
119027,112365
119047,112351
119097,112365
119108,112354
119098,112393
119198,112415
119202,112399
119201,112403
119273,112456
119312,112470
119291,112461
119351,112472
119348,112517
119385,112507
119409,112521
119453,112555
119445,112559
119508,112560
119541,112592
119521,112593
119564,112597
119590,112596
119610,112632
119638,112615
119690,112634
119662,112675
119714,112671
119700,112665
119704,112665
119738,112671
119783,112667
119809,112711
119803,112702
119824,112728
119860,112720
119911,112761
119889,112793
119904,112733
119962,112787
119943,112771
119975,112762
120029,112803
119992,112810
120040,112816
120076,112846
120099,112873
120101,112857
120144,112858
120170,112908
120173,112857
120200,112919
120201,112900
120230,112932
120270,112910
120269,112926
120288,112910
120231,112904
120198,112881
120119,112838
120081,112850
119936,112762
119813,112686
119699,112627
119549,112572
119314,112478
119193,112405
119015,112349
118819,112237
118758,112210
118582,112165
118483,112081
118404,112074
118233,111976
118166,111956
118041,111920
117931,111842
117824,111804
117731,111762
117625,111702
117548,111696
117484,111652
117377,111617
117343,111589
117297,111534
117215,111534
117201,111500
117149,111500
117080,111471
117075,111454
117069,111459
117008,111433
117035,111409
116977,111416
117005,111412
116996,111427
116974,111425
116958,111374
116985,111440
116998,111418
116990,111419
116993,111438
117014,111396
117003,111460
117041,111396
117031,111435
117084,111461
117083,111463
117122,111483
117128,111490
117092,111469
117135,111511
117117,111469
117187,111513
117177,111507
117170,111492
117225,111508
117229,111537
117239,111516
117264,111563
117245,111571
117291,111536
117335,111573
117324,111603
117343,111581
117422,111598
117418,111663
117437,111618
117498,111683
117482,111692
117553,111676
117606,111695
117659,111706
117640,111762
117665,111728
117735,111768
117762,111791
117764,111766
117837,111809
117835,111836
117821,111799
117847,111825
117888,111846
117868,111813
117881,111823
117886,111874
117909,111830
117920,111863
117914,111856
117935,111879
117898,111820
117915,111890
117888,111835
117907,111822
117923,111851
117935,111840
117922,111873
117969,111844
117925,111895
117940,111888
117936,111837
117980,111898
118010,111899
117977,111885
118037,111905
118037,111919
118061,111950
118096,111965
118131,111926
118177,111993
118156,111968
118202,112028
118229,112008
118247,112016
118284,112014
118323,112092
118373,112060
118416,112115
118414,112116
118449,112082
118484,112170
118496,112132
118555,112193
118597,112177
118647,112184
118715,112209
118751,112243
118773,112297
118859,112285
118885,112330
118920,112321
119005,112378
118987,112352
119075,112396
119096,112429
119133,112421
119195,112448
119252,112499
119267,112534
119360,112504
119385,112567
119426,112580
119505,112616
119484,112612
119576,112626
119566,112679
119627,112701
119701,112727
119709,112719
119717,112734
119835,112747
119829,112809
119867,112750
119895,112826
119969,112823
119966,112829
120067,112864
120066,112922
120100,112884
120174,112951
120211,112944
120243,112953
120296,113002
120322,112987
120402,113038
120382,113054
120440,113053
120500,113096
120513,113072
120603,113108
120583,113141
120649,113161
120698,113182
120714,113179
120772,113247
120813,113205
120865,113247
120879,113282
120900,113313
120919,113292
121034,113367
121004,113343
121071,113337
121105,113356
121138,113400
121164,113444
121206,113414
121261,113440
121258,113446
121300,113472
121331,113474
121403,113499
121390,113557
121444,113522
121484,113559
121511,113545
121545,113601
121550,113580
121625,113605
121610,113623
121675,113597
121685,113654
121703,113651
121751,113672
121753,113704
121813,113685
121800,113704
121862,113710
121853,113725
121854,113725
121912,113744
121867,113741
121895,113716
121904,113722
121842,113695
121821,113679
121665,113631
121575,113534
121436,113501
121281,113410
121118,113314
120935,113238
120708,113106
120417,113007
120203,112870
119956,112767
119762,112704
119590,112607
119402,112560
119297,112495
119198,112473
119118,112428
119069,112400
118975,112375
118972,112369
118939,112345
118908,112357
118861,112335
118840,112323
118850,112320
118841,112331
118823,112309
118840,112310
118859,112299
118867,112347
118844,112345
118924,112356
118921,112351
118944,112362
119014,112348
118983,112411
119046,112396
119119,112439
119125,112459
119163,112429
119181,112494
119256,112487
119271,112495
119357,112535
119381,112563
119404,112554
119461,112613
119505,112639
119489,112635
119589,112628
119596,112654
119666,112692
119725,112730
119722,112732
119773,112710
119800,112730
119867,112764
119877,112794
119924,112808
119989,112791
119987,112870
120076,112887
120126,112879
120136,112910
120189,112953
120263,112932
120290,112990
120341,112982
120411,113041
120439,113027
120462,113068
120541,113099
120583,113129
120597,113136
120650,113104
120686,113146
120697,113172
120694,113197
120711,113142
120765,113222
120768,113165
120763,113174
120741,113186
120735,113223
120706,113137
120710,113184
120733,113147
120699,113163
120639,113120
120684,113108
120623,113101
120643,113092
120613,113081
120595,113100
120532,113084
120577,113077
120524,113060
120543,113068
120515,113094
120521,113018
120490,113047
120502,113052
120517,113046
120528,113069
120506,113071
120564,113049
120560,113062
120581,113078
120564,113081
120600,113103
120652,113090
120625,113124
120692,113140
120702,113153
120704,113166
120715,113150
120803,113158
120805,113171
120834,113217
120836,113194
120899,113222
120909,113267
120940,113232
120938,113267
120993,113268
121023,113301
121072,113355
121083,113275
121123,113332
121137,113365
121173,113366
121177,113351
121218,113400
121219,113392
121282,113387
121252,113403
121331,113444
121308,113402
121386,113448
121372,113490
121380,113451
121445,113485
121402,113500
121450,113534
121469,113471
121530,113550
121493,113543
121543,113543
121576,113558
121604,113544
121641,113569
121628,113606
121689,113582
121696,113596
121684,113593
121687,113607
121742,113653
121768,113627
121753,113646
121760,113652
121815,113669
121790,113677
121843,113687
121840,113685
121843,113694
121857,113691
121891,113713
121904,113717
121882,113728
121915,113732
121942,113733
121945,113736
121947,113753
121995,113756
122013,113763
122016,113772
122040,113777
122052,113777
122057,113808
122081,113810
122093,113806
122125,113833
122150,113829
122126,113832
122155,113874
122137,113845
122212,113864
122185,113894
122199,113883
122192,113853
122194,113875
122125,113827
122087,113814
121977,113740
121900,113716
121795,113681
121633,113560
121455,113499
121246,113371
121015,113236
120796,113185
120576,113068
120306,112965
120110,112861
119924,112821
119796,112739
119618,112682
119563,112653
119423,112578
119388,112599
119277,112522
119185,112463
119166,112502
119061,112439
119054,112446
118956,112370
118954,112346
118862,112346
118834,112309
118790,112315
118755,112298
118743,112303
118763,112244
118755,112282
118710,112255
118693,112259
118718,112261
118675,112245
118680,112229
118665,112286
118673,112269
118681,112274
118712,112250
118681,112250
118734,112260
118711,112304
118739,112233
118729,112280
118761,112272
118743,112270
118798,112290
118792,112346
118797,112283
118854,112317
118820,112299
118860,112329
118828,112349
118874,112325
118903,112368
118917,112385
118900,112378
118934,112374
118923,112410
118973,112362
118968,112430
119010,112421
119087,112429
119045,112446
119097,112487
119152,112447
119180,112491
119234,112504
119225,112506
119259,112531
119299,112541
119282,112555
119328,112549
119347,112570
119376,112558
119387,112583
119424,112583
119401,112595
119440,112585
119455,112576
119463,112632
119428,112581
119466,112596
119417,112606
119427,112578
119397,112597
119405,112584
119353,112584
119380,112570
119346,112538
119319,112552
119321,112526
119278,112555
119281,112507
119291,112524
119249,112502
119279,112524
119284,112493
119264,112512
119302,112547
119275,112512
119300,112564
119309,112528
119296,112520
119316,112560
119354,112538
119393,112591
119349,112556
119399,112623
119448,112642
119471,112655
119492,112652
119527,112639
119582,112694
119604,112693
119618,112681
119687,112746
119728,112742
119733,112776
119774,112737
119836,112796
119857,112795
119891,112812
119950,112798
120025,112847
120029,112826
120087,112881
120105,112872
120159,112873
120218,112939
120232,112896
120306,112950
120298,112963
120331,112998
120358,113002
120442,113025
120450,113027
120440,113049
120472,113078
120505,113085
120515,113109
120552,113099
120561,113132
120553,113100
120606,113133
120590,113128
120646,113173
120628,113195
120672,113144
120737,113218
120735,113212
120739,113196
120741,113229
120816,113238
120816,113271
120828,113241
120895,113271
120912,113298
120932,113340
120958,113283
121010,113342
121010,113318
121049,113364
121065,113368
121107,113401
121133,113393
121208,113402
121168,113412
121225,113434
121309,113455
121279,113468
121324,113496
121335,113515
121360,113496
121402,113508
121407,113549
121477,113544
121500,113546
121533,113586
121507,113579
121557,113626
121568,113612
121578,113609
121607,113616
121648,113680
121673,113633
121664,113671
121735,113699
121723,113688
121775,113694
121782,113737
121802,113701
121819,113748
121830,113744
121845,113792
121841,113726
121894,113765
121812,113786
121836,113731
121786,113715
121719,113707
121578,113619
121495,113557
121319,113498
121111,113371
120898,113278
120711,113180
120443,113092
120263,112961
120043,112923
119844,112817
119692,112758
119531,112668
119439,112653
119353,112596
119198,112568
119152,112522
119013,112435
118967,112440
118896,112418
118777,112363
118741,112314
118662,112325
118604,112296
118547,112247
118527,112218
118468,112238
118484,112158
118404,112176
118397,112187
118363,112153
118372,112151
118309,112113
118319,112152
118329,112162
118331,112137
118321,112155
118319,112147
118354,112125
118340,112179
118365,112148
118344,112145
118351,112160
118347,112161
118362,112189
118376,112170
118401,112180
118378,112173
118415,112190
118428,112187
118436,112199
118458,112203
118424,112193
118456,112214
118489,112232
118500,112216
118473,112212
118496,112239
118539,112250
118523,112236
118527,112243
118567,112252
118545,112261
118603,112268
118586,112297
118608,112292
118669,112321
118687,112349
118683,112300
118751,112340
118737,112340
118789,112384
118828,112345
118851,112387
118832,112380
118861,112422
118878,112433
118922,112397
118966,112457
118949,112399
118979,112431
118987,112468
119008,112445
118970,112470
119012,112433
119015,112447
118985,112472
119003,112460
119001,112477
118983,112449
118965,112438
118962,112480
118962,112412
118955,112433
118961,112411
118945,112449
118917,112439
118963,112442
118922,112409
118944,112396
118920,112447
118924,112392
118907,112440
118927,112430
118972,112446
118936,112445
118929,112462
118993,112433
118934,112421
118984,112435
119009,112430
119007,112468
119025,112484
119053,112467
119097,112483
119050,112503
119144,112505
119134,112506
119167,112527
119191,112525
119222,112588
119238,112541
119264,112587
119310,112610
119374,112611
119380,112649
119364,112608
119418,112653
119473,112645
119480,112671
119545,112692
119519,112717
119582,112748
119593,112738
119621,112715
119669,112771
119693,112765
119710,112765
119765,112784
119775,112802
119837,112837
119832,112858
119875,112876
119858,112869
119947,112899
119943,112941
119946,112906
120003,112939
120000,112938
120068,112968
120076,113002
120115,112975
120161,113042
120183,113004
120195,113057
120221,113054
120310,113066
120281,113107
120300,113073
120381,113115
120334,113095
120385,113141
120394,113112
120407,113092
120473,113166
120439,113129
120468,113177
120524,113190
120523,113172
120534,113165
120592,113200
120573,113217
120604,113217
120652,113214
120652,113219
120726,113257
120680,113267
120709,113282
120747,113276
120789,113297
120770,113305
120853,113293
120830,113331
120818,113314
120885,113365
120883,113358
120947,113377
120933,113362
120926,113344
120999,113377
121013,113413
121024,113380
121022,113425
121077,113438
121083,113396
121079,113451
121147,113446
121161,113462
121149,113498
121202,113465
121254,113517
121234,113493
121260,113511
121215,113481
121201,113498
121161,113449
121132,113452
121028,113377
120910,113334
120794,113260
120640,113221
120455,113081
120264,113036
120096,112939
119889,112846
119696,112753
119567,112718
119367,112604
119293,112579
119190,112551
119029,112475
118978,112433
118868,112392
118721,112341
118668,112335
118577,112258
118487,112257
118404,112207
118384,112164
118247,112109
118230,112104
118155,112073
118096,112050
118109,112054
118022,112038
117978,111963
117981,112006
117941,111981
117926,111965
117912,111988
117892,111957
117926,111988
117862,111951
117889,111961
117863,111907
117913,111938
117885,111959
117902,111988
117903,111933
117927,111966
117955,111979
117972,111994
117954,112008
117966,111957
118018,112012
117997,111997
117979,112015
117992,111995
118029,111991
118017,111995
118037,111985
118085,112036
118066,112034
118100,112055
118072,112041
118136,112057
118091,112086
118149,112055
118176,112107
118188,112082
118209,112073
118188,112110
118259,112096
118244,112122
118324,112155
118327,112154
118346,112169
118369,112158
118424,112193
118435,112167
118472,112214
118500,112245
118509,112236
118575,112214
118538,112254
118611,112285
118593,112291
118636,112265
118624,112271
118661,112292
118626,112275
118637,112259
118679,112276
118683,112303
118646,112268
118651,112262
118631,112308
118643,112279
118621,112275
118605,112279
118621,112243
118607,112267
118603,112252
118594,112270
118575,112273
118588,112253
118605,112249
118606,112267
118566,112251
118613,112255
118574,112272
118568,112267
118606,112252
118615,112298
118629,112265
118639,112260
118683,112292
118679,112305
118701,112275
118718,112315
118701,112300
118728,112337
118740,112344
118765,112319
118803,112356
118776,112382
118882,112360
118862,112387
118878,112385
118935,112388
118948,112446
118977,112389
119017,112442
119014,112426
119023,112484
119114,112503
119120,112501
119165,112533
119197,112500
119241,112519
119261,112556
119313,112565
119405,112622
119354,112589
119441,112622
119480,112672
119493,112667
119551,112668
119589,112724
119628,112696
119679,112744
119715,112753
119723,112769
119788,112781
119817,112814
119813,112807
119900,112866
119922,112865
119910,112866
119985,112928
119998,112861
120038,112932
120079,112930
120088,112950
120171,112969
120144,112956
120245,113009
120253,113055
120329,113000
120313,113039
120390,113066
120385,113067
120463,113075
120462,113152
120527,113134
120524,113132
120594,113149
120656,113188
120644,113235
120706,113218
120750,113254
120787,113258
120807,113263
120859,113283
120899,113289
120927,113329
120956,113304
120990,113323
121050,113368
121001,113401
121098,113381
121107,113423
121143,113412
121169,113443
121222,113466
121281,113475
121277,113463
121354,113503
121334,113525
121361,113510
121440,113547
121426,113515
121512,113557
121477,113572
121534,113602
121562,113597
121618,113627
121601,113670
121667,113650
121687,113679
121714,113652
121741,113711
121772,113713
121780,113715
121812,113741
121859,113714
121832,113745
121813,113766
121832,113703
121811,113665
121761,113657
121670,113662
121543,113544
121384,113514
121239,113412
121102,113325
120873,113237
120609,113100
120448,113028
120188,112924
119988,112823
119804,112764
119625,112696
119547,112617
119421,112606
119302,112550
119268,112504
119168,112510
119134,112498
119060,112448
119064,112439
119000,112403
118965,112390
118970,112443
118913,112361
118966,112419
118943,112412
118942,112398
118958,112358
118952,112405
118942,112364
118965,112417
118972,112392
118974,112423
119031,112419
119063,112422
119057,112497
119067,112438
119142,112479
119142,112488
119190,112512
119230,112524
119251,112524
119271,112530
119328,112563
119337,112553
119400,112599
119446,112616
119455,112643
119500,112644
119530,112640
119596,112667
119597,112688
119662,112700
119665,112715
119713,112732
119764,112748
119825,112748
119811,112788
119870,112794
119906,112802
119979,112840
120008,112882
120020,112857
120116,112892
120169,112934
120205,112928
120253,112969
120314,113013
120311,113012
120390,113041
120441,113033
120466,113044
120517,113133
120572,113076
120585,113123
120619,113139
120674,113131
120670,113117
120739,113162
120729,113198
120759,113169
120749,113171
120782,113173
120757,113219
120732,113143
120776,113187
120736,113155
120744,113184
120697,113120
120751,113178
120686,113139
120673,113121
120693,113123
120659,113116
120658,113106
120660,113071
120679,113127
120657,113097
120636,113087
120665,113099
120662,113122
120642,113091
120703,113151
120713,113114
120723,113105
120734,113166
120710,113111
120744,113156
120775,113176
120834,113160
120831,113198
120893,113184
120880,113197
120959,113253
120971,113261
121022,113273
121041,113283
121042,113294
121138,113306
121157,113358
121176,113330
121243,113384
121309,113387
121318,113418
121379,113407
121408,113473
121428,113450
121485,113463
121538,113508
121578,113531
121592,113510
121691,113548
121673,113587
121721,113564
121773,113649
121844,113637
121849,113643
121917,113675
121922,113680
121968,113714
121993,113706
122028,113722
122038,113727
122118,113738
122098,113786
122169,113750
122156,113799
122200,113809
122197,113798
122257,113811
122252,113816
122280,113815
122322,113849
122324,113832
122354,113816
122360,113839
122361,113801
122399,113853
122399,113824
122403,113826
122425,113843
122456,113888
122471,113836
122469,113833
122520,113878
122496,113896
122565,113938
122585,113913
122598,113954
122623,113927
122642,113961
122629,113998
122651,113976
122692,113992
122671,113967
122660,113999
122715,113987
122716,113966
122758,114003
122732,113993
122794,113991
122761,114035
122779,114062
122795,114021
122837,114072
122808,114044
122878,114075
122877,114053
122861,114084
122859,114085
122893,114071
122811,114087
122820,114030
122750,114005
122643,113980
122446,113836
122248,113809
122086,113678
121969,113651
121738,113541
121460,113393
121167,113247
120897,113146
120562,113059
120362,112909
120129,112849
119989,112764
119800,112714
119747,112675
119633,112658
119570,112592
119512,112577
119433,112551
119358,112524
119324,112522
119292,112496
119199,112455
119186,112470
119125,112409
119098,112396
119053,112403
119032,112332
118988,112373
118963,112351
118968,112334
118922,112344
118915,112374
118908,112284
118928,112339
118922,112309
118900,112314
118883,112309
118918,112302
118924,112351
118950,112326
118934,112342
118965,112351
118948,112327
118987,112336
118953,112341
119016,112348
119019,112372
119026,112391
119003,112373
119050,112372
119010,112396
119041,112387
119066,112431
119071,112384
119075,112435
119117,112414
119110,112424
119143,112462
119169,112422
119144,112432
119228,112438
119186,112440
119251,112458
119268,112503
119289,112509
119296,112503
119344,112501
119359,112565
119347,112510
119403,112564
119420,112559
119447,112535
119427,112577
119448,112596
119440,112545
119458,112573
119429,112532
119418,112552
119435,112548
119409,112549
119399,112555
119383,112519
119362,112532
119321,112520
119351,112506
119309,112541
119278,112480
119273,112494
119255,112473
119214,112464
119221,112457
119183,112448
119223,112441
119190,112471
119189,112437
119165,112434
119164,112430
119136,112442
119182,112418
119155,112428
119136,112458
119193,112435
119193,112451
119209,112480
119167,112439
119205,112462
119202,112440
119244,112451
119247,112508
119237,112491
119292,112487
119298,112528
119332,112541
119358,112511
119392,112550
119363,112556
119444,112548
119409,112597
119431,112586
119463,112610
119479,112608
119524,112618
119488,112625
119536,112639
119572,112657
119598,112653
119653,112683
119637,112706
119670,112677
119666,112717
119723,112733
119754,112735
119749,112760
119807,112727
119803,112801
119819,112752
119856,112828
119882,112810
119863,112834
119893,112804
119959,112837
119961,112860
120000,112867
119997,112868
120070,112893
120049,112891
120110,112931
120097,112914
120113,112934
120106,112952
120147,112932
120175,112999
120184,112965
120220,112994
120268,113011
120255,112991
120282,113038
120286,113020
120381,113066
120359,113033
120389,113074
120374,113075
120435,113086
120429,113118
120482,113074
120485,113125
120531,113113
120551,113127
120558,113132
120557,113155
120613,113175
120587,113161
120619,113175
120625,113205
120618,113213
120689,113179
120672,113253
120666,113235
120710,113241
120751,113255
120727,113280
120760,113255
120784,113269
120780,113271
120771,113276
120729,113240
120731,113237
120625,113211
120569,113137
120464,113089
120358,113031
120183,112954
120084,112911
119876,112841
119738,112755
119580,112687
119399,112642
119308,112572
119154,112537
119035,112456
118879,112409
118773,112384
118674,112270
118545,112278
118422,112193
118351,112157
118187,112093
118129,112030
117987,112010
117908,111958
117824,111901
117782,111871
117701,111881
117622,111814
117569,111823
117502,111763
117462,111761
117373,111727
117393,111720
117324,111678
117322,111713
117304,111657
117234,111668
117242,111655
117229,111656
117192,111629
117224,111643
117205,111611
117173,111643
117167,111633
117179,111612
117177,111620
117166,111630
117189,111648
117152,111629
117198,111600
117169,111663
117172,111654
117206,111644
117182,111611
117217,111684
117195,111617
117198,111657
117220,111626
117237,111652
117217,111647
117210,111659
117213,111629
117198,111667
117231,111638
117234,111687
117234,111689
117213,111693
117268,111674
117342,111703
117314,111692
117312,111721
117336,111708
117365,111744
117353,111737
117449,111743
117452,111775
117474,111775
117460,111783
117531,111805
117542,111799
117548,111820
117557,111808
117583,111831
117616,111853
117649,111842
117612,111850
117624,111857
117606,111859
117648,111877
117682,111861
117625,111857
117668,111870
117637,111874
117645,111863
117622,111848
117667,111894
117670,111878
117633,111856
117654,111868
117638,111894
117658,111848
117648,111868
117699,111874
117639,111890
117658,111864
117680,111892
117662,111882
117659,111876
117666,111859
117701,111915
117750,111910
117694,111920
117771,111910
117725,111946
117786,111931
117828,111922
117808,111977
117835,111955
117831,111976
117840,111936
117890,111948
117867,111991
117919,111988
117940,112012
117957,111998
117994,112030
117986,112043
118045,112048
118025,112049
118041,112065
118093,112065
118090,112067
118129,112102
118118,112107
118195,112113
118218,112120
118206,112141
118265,112140
118230,112142
118293,112184
118334,112177
118361,112195
118322,112210
118371,112170
118438,112243
118427,112245
118435,112251
118474,112230
118520,112270
118491,112260
118511,112277
118564,112298
118576,112283
118577,112295
118641,112330
118650,112307
118657,112290
118705,112365
118695,112371
118735,112372
118743,112385
118747,112371
118803,112391
118806,112421
118825,112404
118843,112387
118918,112442
118893,112437
118943,112439
118958,112492
118978,112485
118996,112459
119047,112522
119012,112489
119112,112513
119105,112541
119118,112557
119168,112506
119198,112591
119199,112538
119232,112573
119257,112575
119252,112618
119268,112582
119275,112596
119252,112575
119201,112579
119194,112562
119137,112545
119037,112437
118953,112409
118837,112404
118714,112308
118651,112281
118499,112232
118378,112163
118253,112096
118145,112031
118052,112002
117880,111919
117808,111915
117698,111834
117613,111787
117475,111776
117392,111666
117271,111690
117149,111589
117049,111553
116993,111503
116917,111489
116806,111447
116796,111385
116675,111366
116624,111361
116610,111333
116499,111294
116487,111320
116437,111211
116460,111259
116472,111213
116454,111261
116394,111191
116411,111210
116363,111245
116400,111223
116411,111232
116423,111249
116389,111227
116483,111223
116424,111267
116486,111258
116487,111280
116522,111279
116546,111306
116577,111275
116573,111306
116582,111307
116640,111304
116626,111308
116654,111370
116679,111325
116685,111367
116695,111345
116734,111370
116724,111342
116773,111364
116780,111381
116795,111425
116825,111365
116810,111431
116867,111409
116919,111450
116933,111476
116954,111428
117000,111501
117017,111477
117081,111509
117101,111564
117125,111514
117170,111588
117223,111590
117255,111607
117267,111602
117336,111651
117336,111602
117393,111655
117377,111668
117425,111679
117457,111693
117427,111691
117507,111688
117477,111742
117488,111725
117503,111715
117547,111732
117535,111742
117531,111712
117585,111757
117594,111773
117585,111728
117580,111760
117604,111758
117604,111778
117579,111736
117613,111766
117639,111773
117641,111790
117652,111789
117704,111803
117683,111821
117692,111827
117733,111834
117782,111810
117808,111887
117819,111850
117899,111886
117914,111896
117962,111928
117951,111942
117988,111921
118047,111966
118049,111984
118124,111985
118171,112021
118196,112069
118203,112056
118315,112086
118298,112123
118317,112100
118355,112138
118403,112150
118482,112179
118467,112191
118516,112184
118587,112246
118625,112261
118631,112253
118718,112269
118742,112323
118754,112311
118820,112361
118870,112376
118922,112402
118907,112409
119041,112434
119003,112466
119021,112457
119064,112476
119142,112497
119147,112512
119231,112507
119248,112572
119328,112559
119313,112568
119395,112610
119412,112633
119474,112666
119466,112666
119550,112670
119576,112683
119610,112695
119637,112745
119675,112739
119731,112774
119768,112797
119775,112792
119873,112822
119855,112834
119871,112814
119924,112875
119919,112884
119974,112865
119998,112883
120060,112916
120042,112901
120079,112903
120123,112967
120137,112960
120191,112972
120186,112962
120202,112997
120238,112971
120282,113014
120277,113032
120295,113005
120338,113027
120295,113001
120280,113002
120251,112991
120201,112992
120138,112932
120020,112889
119914,112861
119771,112724
119608,112648
119428,112613
119278,112557
119099,112477
118981,112395
118812,112364
118719,112288
118633,112247
118499,112214
118403,112137
118323,112124
118240,112096
118112,112048
118093,112028
117984,111942
117930,111933
117862,111948
117788,111860
117720,111840
117714,111823
117590,111803
117579,111734
117544,111775
117508,111718
117524,111761
117466,111723
117437,111713
117457,111750
117398,111693
117474,111733
117444,111672
117450,111727
117455,111703
117475,111730
117506,111712
117484,111763
117520,111697
117512,111752
117533,111757
117596,111775
117593,111789
117618,111768
117638,111820
117658,111801
117653,111800
117695,111793
117745,111853
117717,111818
117746,111812
117761,111860
117776,111855
117825,111904
117828,111836
117866,111902
117879,111874
117901,111906
117937,111923
117988,111934
117992,111988
118040,111969
118064,111983
118132,112006
118153,112018
118193,112029
118255,112067
118268,112082
118318,112080
118353,112135
118429,112119
118454,112120
118502,112168
118502,112205
118568,112173
118584,112202
118644,112241
118602,112270
118653,112211
118669,112258
118709,112234
118654,112247
118727,112247
118695,112246
118721,112239
118682,112272
118709,112267
118686,112231
118696,112249
118676,112249
118676,112222
118712,112258
118684,112228
118722,112223
118698,112250
118665,112223
118714,112240
118666,112213
118723,112211
118693,112230
118762,112240
118724,112236
118782,112264
118775,112283
118837,112300
118841,112281
118825,112275
118925,112305
118902,112362
118922,112353
118946,112362
118994,112361
119015,112388
119117,112407
119106,112398
119171,112440
119157,112428
119239,112475
119286,112454
119321,112538
119306,112507
119398,112546
119408,112549
119486,112576
119499,112600
119583,112633
119625,112622
119646,112655
119699,112667
119729,112716
119790,112703
119850,112746
119900,112766
119923,112757
119960,112792
120014,112815
120059,112840
120111,112876
120135,112895
120204,112912
120246,112941
120288,112951
120290,112964
120360,112978
120372,112996
120439,113011
120482,113053
120501,113053
120577,113056
120554,113065
120666,113084
120660,113135
120725,113152
120718,113157
120783,113148
120799,113195
120828,113162
120885,113219
120886,113258
120937,113229
120975,113290
120987,113252
121014,113295
121050,113324
121071,113322
121136,113351
121142,113381
121168,113347
121205,113398
121249,113382
121255,113403
121278,113431
121276,113400
121386,113481
121381,113464
121398,113477
121382,113457
121407,113464
121400,113501
121378,113454
121340,113430
121278,113397
121145,113306
121101,113302
120955,113207
120744,113115
120588,113040
120339,112902
120105,112818
119918,112725
119706,112648
119535,112546
119345,112481
119236,112422
119163,112400
119021,112364
118974,112325
118867,112284
118791,112281
118774,112229
118697,112207
118676,112226
118634,112168
118606,112140
118584,112143
118575,112142
118571,112168
118540,112126
118544,112101
118532,112155
118504,112101
118548,112141
118578,112136
118554,112140
118620,112168
118643,112125
118621,112184
118653,112159
118696,112188
118735,112218
118759,112221
118772,112254
118785,112208
118836,112240
118831,112223
118882,112283
118911,112249
118973,112283
118961,112291
119023,112324
119019,112337
119040,112295
119110,112378
119127,112336
119164,112392
119186,112409
119188,112383
119202,112419
119289,112425
119283,112481
119344,112429
119344,112459
119419,112486
119465,112504
119510,112555
119537,112559
119586,112569
119602,112581
119693,112611
119717,112607
119718,112680
119790,112643
119837,112666
119820,112691
119864,112709
119895,112738
119874,112758
119916,112685
119920,112753
119932,112711
119922,112759
119920,112705
119889,112721
119887,112702
119837,112683
119815,112724
119809,112686
119755,112662
119736,112643
119701,112605
119742,112648
119696,112623
119630,112598
119636,112623
119578,112583
119597,112555
119580,112559
119542,112574
119542,112545
119504,112530
119558,112540
119489,112529
119522,112504
119527,112544
119520,112542
119554,112561
119527,112593
119558,112558
119541,112558
119566,112570
119593,112585
119599,112597
119586,112581
119653,112626
119643,112656
119672,112615
119674,112604
119683,112647
119730,112668
119751,112666
119794,112667
119801,112671
119774,112686
119843,112733
119811,112707
119888,112735
119890,112728
119941,112737
119910,112761
119976,112736
119985,112784
120039,112753
120020,112804
120078,112819
120076,112816
120083,112849
120089,112813
120126,112895
120172,112842
120179,112865
120200,112837
120207,112878
120232,112906
120262,112877
120278,112919
120293,112909
120320,112914
120276,112928
120322,112932
120370,112959
120344,112937
120355,112924
120372,112973
120395,112947
120434,112985
120391,112954
120429,113007
120431,112989
120468,113006
120470,113031
120473,113045
120473,113002
120549,113028
120519,113029
120540,113033
120537,113032
120606,113053
120551,113082
120590,113047
120593,113065
120560,113028
120590,113061
120524,113038
120522,113006
120414,112992
120326,112913
120207,112846
120088,112829
119977,112726
119818,112682
119637,112569
119479,112561
119319,112454
119189,112398
119066,112374
118992,112262
118814,112272
118704,112215
118604,112138
118461,112077
118374,112041
118255,111962
118206,111922
118090,111860
117988,111847
117889,111799
117832,111730
117759,111728
117676,111663
117579,111637
117571,111609
117518,111596
117469,111570
117467,111565
117364,111549
117331,111540
117316,111501
117324,111514
117312,111480
117245,111453
117286,111510
117251,111487
117276,111469
117251,111472
117275,111477
117244,111468
117274,111472
117260,111508
117271,111480
117294,111511
117262,111456
117284,111481
117269,111479
117245,111505
117286,111513
117279,111467
117293,111469
117292,111519
117301,111490
117308,111494
117286,111513
117311,111503
117332,111539
117339,111535
117348,111512
117355,111543
117357,111527
117409,111563
117410,111528
117460,111569
117454,111568
117450,111584
117520,111606
117485,111617
117525,111581
117540,111634
117595,111624
117598,111626
117604,111656
117649,111636
117641,111711
117629,111641
117687,111680
117666,111678
117694,111666
117672,111653
117705,111709
117660,111636
117657,111676
117651,111670
117656,111664
117618,111675
117636,111647
117595,111645
117595,111621
117578,111667
117554,111618
117551,111639
117545,111586
117588,111628
117546,111611
117562,111628
117545,111636
117540,111598
117556,111627
117528,111587
117573,111601
117539,111620
117540,111669
117568,111599
117586,111655
117592,111598
117567,111619
117579,111650
117641,111677
117631,111667
117610,111622
117685,111695
117656,111682
117696,111669
117675,111685
117726,111681
117730,111724
117743,111705
117810,111729
117792,111713
117852,111749
117864,111717
117859,111772
117857,111774
117926,111823
117906,111794
117989,111789
118004,111828
118002,111831
118073,111851
118042,111844
118074,111855
118116,111863
118106,111883
118174,111915
118170,111889
118244,111943
118237,111957
118332,111956
118358,112000
118373,111964
118467,112023
118476,112019
118512,112043
118549,112083
118565,112064
118641,112104
118638,112093
118696,112126
118724,112105
118747,112176
118781,112134
118817,112178
118795,112181
118852,112221
118817,112208
118914,112230
118929,112215
118911,112240
118992,112263
118983,112262
119024,112300
119029,112294
119026,112289
119107,112324
119110,112342
119147,112310
119204,112351
119222,112344
119264,112368
119272,112417
119286,112361
119338,112418
119315,112423
119320,112437
119281,112399
119307,112408
119220,112351
119160,112293
119063,112300
118973,112210
118858,112170
118713,112116
118550,112025
118417,111966
118282,111895
118166,111856
118050,111793
117894,111736
117776,111678
117707,111639
117555,111589
117454,111514
117341,111486
117258,111425
117147,111387
117022,111311
116941,111267
116848,111273
116785,111231
116689,111172
116605,111143
116570,111132
116491,111088
116413,111076
116358,111006
116355,111041
116311,110982
116274,110995
116223,110972
116224,110940
116216,110981
116186,110943
116196,110903
116179,110910
116191,110959
116179,110899
116178,110934
116128,110941
116184,110926
116183,110958
116147,110907
116194,110926
116187,110924
116176,110958
116147,110919
116217,110928
116201,110942
116190,110910
116239,110956
116188,110968
116216,110943
116231,110941
116228,110950
116267,110957
116286,110973
116229,110963
116290,110969
116294,110988
116295,111004
116337,110981
116352,111044
116407,111025
116437,111033
116459,111044
116459,111096
116550,111092
116552,111088
116602,111136
116642,111086
116656,111168
116750,111164
116739,111199
116763,111200
116828,111206
116840,111254
116849,111226
116923,111261
116912,111251
116942,111260
116980,111273
116961,111273
116999,111253
116982,111287
117017,111294
117003,111336
117028,111288
117037,111320
116987,111291
117039,111273
117037,111339
117047,111286
117054,111310
117040,111335
117030,111315
117082,111309
117047,111328
117068,111317
117107,111314
117095,111338
117109,111352
117122,111328
117116,111372
117154,111357
117181,111390
117206,111365
117230,111384
117229,111400
117227,111399
117319,111434
117329,111462
117340,111443
117353,111472
117423,111511
117409,111480
117461,111504
117477,111524
117553,111562
117563,111512
117587,111547
117648,111560
117666,111608
117661,111601
117735,111596
117739,111616
117768,111638
117822,111679
117843,111683
117870,111698
117861,111685
117922,111704
117928,111715
117992,111743
118001,111741
118074,111755
118059,111814
118111,111783
118129,111798
118204,111805
118195,111851
118220,111812
118270,111862
118297,111883
118292,111880
118355,111885
118356,111936
118427,111916
118437,111966
118496,111967
118499,111972
118521,111960
118540,111981
118583,112024
118618,112031
118619,112051
118703,112057
118692,112077
118743,112061
118767,112119
118792,112115
118797,112133
118820,112166
118898,112137
118885,112169
118938,112176
118942,112221
119013,112222
119030,112237
119066,112265
119054,112264
119123,112289
119150,112268
119172,112321
119193,112278
119259,112342
119230,112384
119263,112368
119323,112371
119363,112396
119394,112433
119428,112413
119418,112453
119440,112404
119479,112464
119499,112452
119490,112430
119466,112468
119367,112396
119341,112356
119228,112308
119076,112253
118931,112180
118799,112100
118598,112005
118488,111934
118320,111910
118208,111836
118054,111772
117945,111749
117841,111653
117748,111653
117636,111563
117545,111551
117460,111505
117393,111472
117316,111419
117253,111417
117154,111348
117083,111356
117040,111308
116975,111278
116953,111265
116912,111261
116855,111232
116842,111218
116803,111224
116782,111203
116796,111158
116758,111206
116746,111165
116772,111181
116762,111196
116754,111142
116768,111207
116741,111176
116813,111211
116784,111160
116828,111190
116798,111195
116790,111203
116854,111193
116852,111169
116843,111219
116844,111178
116884,111214
116860,111215
116856,111177
116871,111194
116884,111218
116893,111209
116905,111238
116862,111214
116915,111195
116907,111211
116938,111213
116928,111247
116940,111220
116988,111208
116969,111275
117011,111253
117027,111252
117013,111265
117102,111291
117057,111290
117136,111283
117171,111340
117178,111350
117223,111352
117218,111376
117269,111367
117305,111420
117339,111409
117347,111402
117375,111396
117374,111448
117381,111389
117409,111449
117426,111451
117427,111435
117418,111456
117443,111433
117445,111464
117416,111425
117453,111436
117418,111434
117409,111434
117425,111440
117414,111430
117371,111417
117394,111449
117407,111426
117367,111386
117387,111461
117370,111389
117390,111409
117367,111442
117352,111407
117388,111425
117377,111417
117412,111459
117405,111413
117422,111466
117440,111445
117396,111431
117472,111456
117447,111467
117488,111475
117493,111477
117503,111524
117543,111508
117555,111494
117570,111517
117622,111556
117586,111578
117625,111563
117668,111588
117677,111591
117734,111594
117710,111641
117723,111646
117789,111618
117766,111638
117849,111672
117831,111699
117900,111651
117924,111721
117944,111740
117962,111728
118054,111755
118025,111812
118096,111782
118100,111814
118146,111807
118194,111875
118226,111865
118283,111927
118257,111897
118374,111947
118384,111927
118385,111968
118474,111973
118464,112027
118494,112000
118549,112040
118554,112070
118629,112076
118634,112097
118660,112066
118734,112123
118736,112114
118730,112132
118767,112128
118764,112185
118823,112152
118866,112211
118870,112180
118885,112205
118926,112237
118923,112240
118981,112214
118984,112264
119011,112263
119042,112277
119029,112279
119088,112311
119108,112328
119120,112311
119184,112335
119191,112349
119206,112349
119186,112336
119270,112387
119230,112383
119266,112387
119265,112386
119325,112406
119296,112444
119301,112382
119286,112405
119241,112364
119173,112358
119111,112289
119022,112279
118926,112182
118803,112188
118654,112088
118539,112047
118403,111966
118228,111914
118110,111882
118014,111783
117870,111760
117794,111652
117659,111641
117543,111597
117441,111515
117305,111501
117179,111450
117050,111382
116992,111320
116893,111283
116762,111253
116714,111187
116604,111138
116519,111121
116507,111106
116402,111081
116365,111021
116297,111023
116282,110978
116236,110971
116188,110952
116185,110934
116149,110968
116139,110922
116128,110907
116095,110906
116116,110908
116115,110928
116089,110931
116110,110932
116101,110929
116126,110924
116069,110917
116138,110917
116091,110974
116107,110910
116094,110954
116097,110929
116133,110921
116127,110958
116110,110911
116127,110961
116107,110951
116102,110926
116117,110918
116145,110918
116103,110936
116140,110950
116125,110949
116133,110941
116112,110938
116161,110952
116169,110964
116171,110949
116185,110936
116201,110958
116225,110978
116226,110975
116256,110988
116268,111016
116284,111012
116309,110988
116304,111002
116349,111022
116340,111026
116335,111011
116373,111011
116347,111023
116354,110998
116384,111015
116368,111009
116365,111003
116378,110990
116315,110996
116290,111003
116308,110954
116309,111000
116296,110987
116264,110949
116276,110982
116201,110957
116223,110942
116175,110916
116152,110905
116147,110917
116087,110864
116120,110922
116094,110865
116078,110891
116031,110863
116044,110813
116024,110873
116014,110841
115981,110822
116036,110822
115985,110824
116039,110846
116006,110834
116038,110818
116056,110827
116008,110876
116032,110851
116009,110838
116049,110858
116070,110850
116045,110873
116100,110866
116120,110866
116094,110859
116145,110888
116110,110925
116152,110917
116153,110912
116162,110903
116199,110920
116187,110938
116256,110974
116249,110963
116243,110946
116329,110970
116334,110994
116360,110989
116348,111016
116382,111059
116364,111018
116443,111020
116410,111057
116465,111051
116506,111050
116522,111105
116519,111114
116566,111090
116577,111106
116581,111120
116643,111124
116652,111173
116702,111143
116672,111162
116700,111189
116740,111187
116750,111222
116785,111229
116778,111209
116792,111235
116845,111232
116877,111225
116845,111245
116879,111286
116901,111271
116901,111294
116966,111287
116963,111334
117013,111319
116997,111308
117001,111340
117021,111350
117078,111356
117085,111373
117081,111374
117080,111371
117115,111379
117107,111366
117149,111379
117162,111399
117157,111406
117172,111406
117170,111380
117206,111388
117169,111382
117191,111397
117135,111377
117131,111350
117070,111340
117013,111301
116942,111257
116825,111190
116719,111184
116616,111120
116518,111038
116400,110981
116233,110946
116107,110855
115939,110778
115775,110731
115617,110603
115433,110538
115256,110495
115108,110376
114924,110302
114805,110220
114629,110183
114467,110109
114373,110021
114211,109952
114105,109937
113978,109821
113830,109815
113798,109788
113700,109751
113660,109733
113524,109637
113450,109670
113462,109632
113452,109635
113362,109590
113374,109588
113334,109548
113315,109555
113338,109559
113304,109558
113335,109565
113352,109536
113369,109603
113419,109562
113465,109603
113491,109650
113534,109666
113588,109668
113620,109647
113690,109682
113689,109704
113774,109721
113817,109767
113862,109770
113874,109814
113932,109821
113980,109826
114028,109851
114036,109912
114066,109867
114182,109949
114186,109938
114188,109983
114267,110007
114274,109984
114370,110046
114421,110066
114434,110070
114514,110121
114577,110147
114627,110127
114714,110180
114739,110237
114828,110281
114885,110292
114959,110286
115024,110328
115067,110366
115129,110404
115167,110462
115255,110443
115305,110456
115296,110509
115359,110481
115445,110531
115438,110548
115452,110582
115511,110545
115542,110622
115512,110582
115578,110619
115600,110622
115581,110633
115627,110617
115655,110664
115613,110629
115684,110654
115666,110680
115690,110654
115709,110680
115742,110728
115734,110701
115774,110703
115781,110726
115815,110748
115830,110773
115841,110755
115859,110777
115878,110809
115937,110793
115936,110842
116017,110848
115988,110840
116055,110879
116028,110874
116126,110872
116102,110907
116159,110921
116212,110935
116242,110963
116274,110935
116298,111011
116313,110982
116371,111027
116447,111053
116429,111066
116513,111102
116573,111128
116577,111142
116589,111148
116671,111169
116707,111210
116749,111202
116791,111249
116816,111242
116900,111305
116897,111307
116930,111311
116998,111295
117037,111361
117044,111334
117117,111374
117098,111376
117175,111417
117185,111437
117247,111415
117247,111488
117304,111465
117282,111492
117343,111485
117389,111511
117425,111528
117470,111560
117476,111568
117540,111575
117519,111603
117561,111587
117612,111658
117624,111621
117668,111682
117715,111699
117691,111692
117770,111681
117793,111740
117798,111709
117809,111763
117839,111764
117898,111781
117892,111758
117970,111782
117963,111832
118022,111826
118040,111863
118037,111852
118139,111854
118093,111891
118153,111922
118186,111899
118225,111946
118273,111925
118280,111985
118331,111968
118345,112002
118340,112002
118430,112032
118391,112053
118382,112013
118426,112045
118369,111998
118321,111991
118256,111918
118146,111913
118010,111803
117895,111799
117737,111703
117579,111689
117457,111572
117369,111575
117171,111479
117090,111393
116986,111394
116884,111352
116785,111270
116633,111238
116553,111208
116436,111124
116367,111109
116290,111043
116149,111004
116131,110992
116026,110937
115978,110915
115908,110882
115843,110855
115791,110837
115745,110858
115702,110791
115719,110820
115638,110770
115649,110773
115635,110777
115589,110777
115603,110748
115600,110771
115613,110737
115573,110756
115622,110784
115636,110764
115642,110773
115637,110767
115670,110792
115704,110771
115701,110824
115731,110834
115758,110782
115774,110861
115810,110858
115831,110863
115843,110889
115862,110893
115898,110920
115909,110924
115997,110930
116015,110937
115981,110919
116052,110988
116047,110930
116122,111019
116124,111005
116188,111011
116233,111040
116237,111055
116304,111089
116315,111079
116387,111105
116419,111171
116467,111160
116563,111158
116607,111221
116664,111241
116729,111263
116777,111317
116833,111331
116872,111337
116975,111350
116973,111415
117014,111420
117073,111427
117153,111470
117141,111448
117222,111478
117183,111522
117211,111437
117259,111490
117221,111489
117244,111507
117284,111518
117259,111477
117258,111507
117275,111503
117246,111495
117297,111471
117263,111510
117265,111481
117290,111499
117320,111530
117312,111508
117297,111550
117280,111510
117345,111496
117354,111539
117367,111543
117353,111558
117403,111518
117433,111591
117441,111537
117506,111580
117496,111585
117558,111614
117567,111629
117626,111660
117609,111645
117671,111672
117693,111672
117704,111685
117774,111709
117808,111746
117850,111764
117885,111777
117925,111809
117963,111819
118020,111824
118082,111845
118131,111857
118118,111885
118210,111899
118249,111930
118295,111952
118367,111973
118385,112022
118474,112030
118470,112016
118552,112045
118586,112111
118621,112075
118680,112125
118735,112135
118798,112178
118835,112217
118841,112189
118899,112241
118965,112274
118991,112276
119031,112291
119114,112305
119116,112331
119147,112355
119235,112402
119227,112366
119329,112434
119342,112436
119342,112428
119400,112481
119402,112462
119494,112504
119525,112521
119527,112517
119585,112574
119553,112553
119644,112589
119672,112570
119701,112583
119757,112625
119748,112643
119829,112680
119873,112653
119885,112679
119917,112734
119971,112708
120019,112741
120014,112756
120077,112765
120125,112781
120124,112788
120160,112786
120210,112840
120205,112858
120242,112852
120278,112849
120276,112884
120233,112843
120255,112843
120201,112814
120211,112786
120086,112784
120031,112724
119852,112626
119734,112579
119544,112445
119313,112377
119091,112264
118856,112172
118660,112082
118463,111988
118265,111919
118160,111867
118031,111832
117929,111768
117837,111727
117731,111680
117690,111668
117642,111632
117551,111610
117535,111574
117471,111577
117429,111559
117407,111542
117381,111538
117345,111516
117330,111521
117346,111522
117323,111499
117353,111518
117384,111512
117366,111541
117395,111521
117353,111532
117402,111532
117435,111532
117481,111578
117489,111552
117503,111573
117559,111603
117580,111613
117615,111621
117637,111619
117681,111628
117673,111633
117717,111661
117726,111657
117780,111704
117801,111691
117826,111705
117827,111709
117876,111736
117893,111715
117915,111767
117966,111759
117990,111774
118016,111762
118051,111813
118065,111815
118069,111804
118127,111848
118183,111878
118211,111861
118229,111888
118283,111899
118325,111921
118398,111956
118424,111990
118513,112012
118539,112032
118556,112047
118617,112076
118646,112079
118714,112098
118728,112105
118750,112124
118795,112128
118835,112158
118828,112152
118832,112141
118823,112147
118844,112182
118867,112151
118835,112138
118836,112153
118803,112116
118802,112137
118786,112113
118777,112098
118754,112085
118708,112097
118728,112067
118686,112071
118682,112073
118655,112052
118658,112060
118669,112063
118628,112058
118639,112050
118625,112042
118661,112051
118667,112049
118661,112064
118687,112057
118650,112049
118695,112077
118702,112081
118722,112103
118755,112121
118757,112116
118805,112130
118815,112130
118811,112132
118852,112156
118858,112142
118908,112193
118947,112180
118946,112198
118965,112203
118981,112212
119054,112229
119038,112247
119087,112243
119094,112267
119143,112287
119184,112298
119200,112312
119219,112324
119235,112331
119277,112339
119324,112340
119339,112380
119358,112394
119403,112411
119417,112408
119432,112401
119461,112427
119466,112432
119516,112439
119507,112456
119512,112464
119533,112462
119569,112467
119600,112492
119606,112518
119603,112497
119620,112517
119616,112496
119653,112541
119654,112519
119657,112561
119688,112529
119724,112558
119684,112544
119730,112547
119755,112550
119779,112566
119761,112576
119790,112592
119805,112589
119812,112601
119833,112607
119840,112618
119884,112629
119844,112616
119890,112636
119931,112633
119907,112624
119926,112661
119970,112654
119958,112687
119960,112681
119927,112668
119932,112659
119883,112636
119861,112625
119781,112579
119664,112514
119555,112443
119379,112383
119229,112296
119032,112202
118857,112135
118708,112057
118504,112001
118350,111919
118221,111856
118092,111794
117994,111731
117820,111711
117706,111619
117629,111577
117517,111510
117403,111482
117279,111421
117185,111344
117065,111323
116980,111291
116917,111237
116867,111201
116745,111185
116724,111150
116661,111119
116619,111098
116554,111086
116530,111060
116530,111066
116477,111040
116428,111031
116445,111012
116413,111039
116424,111025
116427,111025
116423,111011
116424,111018
116395,111018
116413,111038
116454,111006
116441,111015
116464,111041
116437,111010
116466,111035
116476,111051
116453,111020
116469,111021
116503,111080
116510,111061
116485,111038
116501,111057
116502,111055
116494,111062
116500,111055
116547,111077
116517,111052
116560,111070
116552,111086
116572,111084
116571,111111
116646,111104
116635,111127
116641,111115
116688,111150
116709,111127
116697,111126
116754,111165
116761,111201
116777,111156
116822,111204
116843,111233
116811,111233
116852,111233
116875,111221
116895,111229
116894,111239
116924,111228
116927,111260
116907,111238
116954,111246
116902,111231
116926,111247
116899,111225
116934,111220
116923,111267
116906,111210
116886,111239
116853,111235
116856,111235
116886,111196
116813,111197
116826,111195
116830,111177
116844,111206
116804,111214
116821,111205
116802,111215
116826,111201
116822,111214
116811,111196
116833,111195
116827,111197
116822,111213
116834,111230
116863,111224
116872,111225
116886,111243
116909,111225
116922,111289
116972,111267
116953,111279
116977,111292
117013,111296
117012,111302
117048,111335
117060,111343
117109,111355
117144,111339
117159,111398
117195,111394
117162,111397
117242,111431
117255,111420
117293,111457
117291,111448
117315,111467
117376,111489
117391,111498
117435,111503
117457,111521
117453,111485
117490,111545
117533,111548
117559,111566
117585,111574
117589,111569
117609,111572
117612,111603
117688,111626
117702,111620
117671,111639
117735,111654
117771,111659
117762,111653
117816,111686
117826,111686
117817,111673
117882,111725
117872,111724
117890,111748
117915,111732
117932,111762
117968,111744
117975,111738
117995,111789
118027,111768
118035,111784
118065,111806
118092,111795
118137,111847
118154,111820
118118,111843
118177,111878
118182,111832
118248,111903
118257,111871
118274,111889
118262,111932
118310,111906
118356,111950
118361,111914
118389,111962
118423,111956
118412,111986
118460,111936
118437,111969
118483,111993
118482,112005
118448,112003
118417,111938
118343,111932
118317,111880
118191,111854
118111,111801
118018,111741
117873,111694
117735,111637
117602,111602
117436,111512
117325,111461
117165,111391
117068,111333
116952,111288
116780,111219
116691,111144
116507,111079
116411,111027
116237,110961
116105,110880
116013,110869
115907,110813
115801,110728
115686,110714
115555,110644
115520,110610
115424,110540
115339,110528
115284,110498
115214,110484
115151,110419
115118,110403
115079,110393
115041,110370
115017,110383
115022,110385
114991,110383
114963,110328
114984,110355
114946,110363
114939,110330
114931,110324
114979,110362
114946,110323
114986,110350
114955,110328
114991,110364
114994,110339
115011,110355
114985,110349
114959,110372
114994,110368
115007,110375
115022,110389
114990,110353
115021,110365
115023,110376
114966,110392
114973,110368
115006,110358
114990,110377
115014,110358
115042,110373
115041,110380
115051,110387
115050,110401
115072,110359
115119,110449
115131,110421
115163,110447
115166,110455
115192,110489
115207,110488
115221,110503
115283,110482
115275,110553
115292,110518
115354,110554
115368,110540
115410,110541
115393,110560
115431,110593
115436,110587
115483,110605
115465,110612
115515,110595
115521,110619
115553,110642
115510,110607
115542,110610
115528,110634
115547,110659
115575,110644
115557,110617
115587,110658
115614,110640
115630,110661
115585,110650
115620,110643
115635,110680
115652,110666
115660,110669
115622,110661
115692,110702
115656,110695
115736,110673
115742,110696
115764,110728
115726,110732
115755,110710
115841,110771
115854,110781
115904,110776
115891,110804
115909,110786
115971,110832
115963,110820
116039,110853
116060,110886
116091,110857
116118,110911
116169,110896
116214,110950
116219,110951
116285,110960
116335,111006
116353,111011
116417,110993
116456,111046
116458,111043
116572,111072
116604,111112
116606,111135
116676,111132
116716,111180
116718,111128
116768,111190
116813,111194
116865,111262
116890,111241
116982,111281
116981,111290
117008,111302
117089,111361
117084,111325
117145,111388
117205,111402
117204,111419
117292,111420
117280,111405
117354,111491
117386,111478
117395,111511
117413,111489
117461,111551
117528,111552
117539,111526
117563,111535
117624,111586
117638,111602
117694,111606
117720,111646
117733,111668
117779,111637
117870,111719
117858,111689
117877,111719
117894,111738
117960,111733
118039,111800
118088,111765
118119,111835
118127,111833
118198,111853
118261,111869
118289,111894
118357,111908
118373,111959
118439,111947
118483,111979
118510,111964
118551,111983
118553,112032
118605,112058
118646,112019
118582,112034
118614,111991
118537,112030
118450,111932
118383,111887
118274,111849
118087,111750
117974,111691
117785,111614
117610,111532
117463,111490
117317,111404
117230,111348
117065,111295
116977,111257
116882,111185
116804,111173
116704,111093
116601,111091
116541,111072
116503,111006
116402,111018
116358,110957
116305,110956
116263,110939
116232,110907
116168,110896
116152,110887
116125,110871
116123,110881
116113,110857
116098,110856
116108,110865
116087,110836
116132,110870
116158,110865
116156,110881
116187,110887
116213,110900
116224,110870
116244,110926
116266,110925
116310,110964
116320,110942
116414,110968
116384,110953
116431,110981
116465,110992
116471,111041
116473,110991
116522,111052
116567,111044
116590,111060
116617,111060
116617,111091
116659,111117
116687,111112
116689,111103
116746,111136
116740,111134
116831,111196
116841,111186
116868,111182
116898,111213
116970,111239
116996,111223
117042,111276
117050,111269
117151,111325
117160,111351
117262,111379
117313,111376
117348,111437
117391,111443
117477,111428
117528,111520
117548,111528
117622,111496
117650,111539
117674,111525
117665,111564
117674,111559
117737,111594
117729,111585
117776,111588
117774,111577
117743,111574
117715,111560
117728,111555
117698,111574
117680,111558
117695,111539
117669,111575
117651,111506
117683,111527
117656,111499
117663,111511
117669,111514
117640,111544
117668,111484
117656,111522
117675,111520
117679,111493
117708,111561
117679,111524
117709,111543
117763,111545
117731,111519
117779,111547
117766,111589
117815,111571
117850,111580
117889,111589
117896,111599
117891,111576
117944,111626
117972,111638
118017,111617
118054,111677
118049,111675
118098,111695
118152,111701
118150,111704
118193,111759
118233,111754
118279,111773
118301,111775
118315,111781
118376,111760
118427,111864
118467,111851
118510,111880
118534,111855
118575,111893
118569,111890
118632,111915
118698,111923
118686,111979
118701,112002
118814,111963
118840,111996
118829,112034
118854,112030
118918,112027
118893,112078
118923,112074
118986,112085
118989,112065
119031,112132
119078,112113
119101,112132
119104,112146
119110,112166
119145,112172
119181,112210
119205,112243
119257,112224
119234,112208
119311,112244
119285,112258
119301,112283
119311,112289
119385,112312
119400,112296
119415,112310
119468,112328
119480,112349
119480,112319
119521,112369
119524,112388
119524,112359
119589,112409
119590,112422
119622,112423
119615,112383
119644,112418
119591,112422
119606,112416
119558,112396
119541,112354
119438,112345
119323,112234
119210,112219
119047,112113
118822,112057
118641,111973
118502,111903
118289,111804
118098,111737
118009,111642
117848,111590
117702,111562
117560,111462
117462,111401
117306,111343
117226,111307
117093,111239
116994,111210
116925,111180
116772,111080
116671,111054
116588,111040
116557,110994
116423,110946
116399,110956
116340,110898
116268,110855
116219,110861
116180,110797
116159,110823
116124,110790
116120,110785
116042,110765
116073,110782
116048,110738
116072,110758
116025,110786
116049,110789
116027,110759
116034,110770
116062,110758
116045,110804
116088,110815
116063,110799
116109,110810
116130,110799
116102,110799
116123,110838
116111,110814
116126,110823
116121,110815
116144,110834
116168,110841
116151,110836
116141,110827
116170,110864
116188,110831
116138,110846
116174,110824
116250,110850
116233,110880
116234,110857
116267,110892
116320,110910
116324,110942
116339,110899
116398,110961
116438,110963
116443,110961
116467,110982
116467,110966
116487,111026
116517,111015
116526,111004
116563,111037
116537,111009
116599,111057
116606,111057
116611,111028
116561,111014
116584,111048
116619,111050
116583,111037
116593,111007
116616,111011
116595,111050
116542,111003
116547,111035
116521,111013
116516,110982
116537,111020
116499,110956
116472,110978
116517,110999
116454,110981
116477,110955
116450,110988
116469,110970
116458,110983
116424,110950
116433,110951
116486,110991
116473,110965
116487,110971
116426,110950
116461,111007
116479,110943
116482,110999
116513,111026
116519,110972
116525,111020
116519,111024
116569,111021
116567,111026
116632,111071
116617,111032
116643,111019
116699,111068
116684,111075
116722,111052
116706,111115
116710,111129
116756,111104
116792,111143
116773,111153
116841,111155
116869,111175
116872,111232
116882,111155
116909,111213
116941,111213
116945,111219
116981,111226
117035,111247
117002,111263
117032,111241
117046,111250
117110,111292
117105,111314
117129,111288
117204,111336
117181,111282
117214,111359
117179,111348
117232,111336
117285,111389
117270,111347
117285,111387
117298,111389
117336,111410
117331,111381
117370,111435
117365,111420
117428,111454
117392,111436
117425,111445
117475,111469
117451,111456
117502,111465
117535,111496
117519,111495
117562,111502
117601,111515
117557,111523
117630,111528
117625,111567
117665,111554
117690,111552
117654,111591
117716,111572
117774,111631
117737,111591
117773,111631
117794,111629
117775,111649
117800,111607
117809,111674
117789,111663
117786,111646
117754,111597
117668,111592
117666,111560
117569,111528
117477,111463
117331,111427
117232,111341
117101,111328
116948,111237
116831,111157
116684,111106
116522,111057
116392,110987
116233,110906
116062,110799
115923,110737
115726,110681
115595,110573
115421,110522
115239,110440
115107,110341
115006,110334
114859,110228
114718,110177
114621,110118
114518,110087
114424,110041
114309,109974
114275,109970
114182,109947
114146,109924
114096,109866
114011,109836
113996,109822
113952,109796
113907,109795
113886,109792
113842,109777
113847,109758
113818,109743
113815,109749
113787,109743
113793,109742
113783,109734
113760,109734
113814,109772
113822,109723
113832,109742
113787,109756
113814,109739
113811,109730
113833,109738
113829,109737
113860,109760
113866,109781
113858,109788
113854,109728
113869,109802
113858,109785
113890,109778
113954,109780
113907,109843
113957,109792
113931,109812
114016,109811
113990,109887
114012,109820
114059,109904
114114,109868
114142,109875
114181,109919
114200,109887
114207,109952
114286,109997
114347,109985
114379,110030
114399,110036
114416,110028
114486,110082
114530,110104
114514,110093
114585,110092
114626,110152
114621,110136
114635,110120
114689,110135
114669,110205
114738,110161
114720,110175
114727,110172
114757,110194
114784,110240
114776,110199
114795,110213
114781,110227
114833,110242
114791,110277
114839,110253
114821,110253
114838,110262
114852,110215
114845,110286
114890,110286
114877,110279
114899,110306
114897,110281
114953,110301
114959,110348
114995,110335
114998,110327
115035,110356
115029,110394
115075,110373
115115,110386
115104,110444
115143,110409
115219,110480
115209,110438
115237,110474
115255,110492
115319,110484
115344,110570
115383,110522
115399,110543
115420,110598
115471,110552
115510,110627
115566,110620
115543,110646
115637,110648
115671,110707
115710,110695
115727,110701
115755,110719
115822,110772
115818,110754
115877,110816
115908,110795
115929,110820
116002,110849
116012,110887
116055,110850
116072,110865
116135,110903
116168,110929
116197,110981
116225,110908
116240,110977
116299,110997
116339,111045
116338,111024
116425,111076
116447,111057
116458,111074
116517,111107
116580,111141
116559,111106
116585,111166
116668,111202
116676,111159
116710,111212
116738,111187
116757,111230
116811,111266
116886,111276
116866,111332
116890,111335
116922,111347
116975,111341
116991,111386
117023,111333
117096,111413
117104,111395
117120,111418
117185,111446
117207,111474
117270,111472
117296,111501
117323,111514
117339,111522
117399,111523
117382,111516
117398,111567
117457,111566
117412,111536
117430,111559
117339,111537
117280,111503
117240,111483
117124,111408
116991,111367
116925,111314
116777,111263
116654,111189
116539,111182
116418,111091
116315,111033
116190,111020
116097,110954
115988,110880
115871,110873
115789,110779
115665,110751
115538,110690
115454,110648
115326,110643
115282,110579
115214,110534
115107,110474
115054,110469
115003,110457
114965,110388
114935,110403
114889,110383
114897,110351
114852,110407
114859,110362
114853,110355
114807,110362
114847,110403
114872,110402
114854,110353
114886,110373
114937,110393
114932,110436
114947,110416
115023,110409
115024,110460
115028,110481
115057,110462
115091,110479
115098,110499
115117,110514
115156,110530
115190,110513
115269,110579
115225,110556
115238,110566
115325,110565
115358,110605
115328,110650
115380,110627
115395,110633
115423,110650
115485,110704
115483,110688
115541,110709
115567,110698
115614,110728
115626,110771
115657,110807
115751,110778
115777,110811
115845,110849
115886,110846
115949,110887
115981,110871
116022,110912
116071,110982
116120,110938
116188,110997
116203,110983
116207,111027
116313,111038
116299,111079
116317,111028
116382,111104
116386,111110
116375,111062
116441,111116
116412,111123
116441,111111
116418,111114
116452,111123
116427,111128
116435,111080
116434,111155
116445,111113
116488,111128
116434,111138
116492,111149
116497,111120
116479,111158
116471,111098
116487,111133
116491,111102
116520,111179
116516,111140
116584,111156
116574,111163
116598,111184
116640,111216
116663,111177
116675,111254
116698,111223
116706,111232
116762,111276
116782,111267
116805,111299
116836,111302
116906,111313
116897,111346
116945,111364
116985,111396
116985,111392
117070,111402
117066,111397
117131,111417
117153,111432
117201,111499
117283,111478
117277,111508
117358,111556
117383,111573
117421,111557
117474,111590
117494,111661
117546,111638
117639,111667
117641,111705
117713,111679
117751,111731
117818,111748
117870,111782
117894,111819
117932,111777
117929,111866
117995,111870
118092,111884
118111,111914
118188,111942
118178,111936
118232,111950
118285,111998
118330,112015
118357,112047
118421,112063
118424,112064
118532,112076
118553,112116
118519,112124
118634,112136
118690,112185
118704,112169
118739,112191
118782,112224
118836,112276
118844,112277
118951,112263
118971,112321
119002,112302
119022,112338
119081,112348
119100,112392
119126,112380
119193,112420
119182,112388
119260,112441
119301,112477
119296,112489
119368,112468
119384,112505
119443,112536
119445,112555
119499,112542
119507,112609
119564,112590
119542,112581
119533,112595
119530,112584
119512,112539
119440,112477
119380,112485
119270,112440
119069,112369
118932,112244
118739,112162
118516,112078
118331,111983
118098,111903
117936,111855
117806,111796
117704,111685
117549,111666
117442,111596
117372,111548
117245,111528
117174,111475
117139,111434
117033,111407
116968,111416
116928,111338
116826,111340
116775,111278
116750,111287
116725,111280
116677,111229
116694,111239
116627,111271
116626,111258
116632,111226
116643,111254
116646,111251
116675,111213
116685,111244
116687,111222
116716,111260
116743,111277
116770,111295
116774,111298
116807,111300
116838,111320
116892,111349
116907,111322
116916,111355
116941,111376
116965,111387
117017,111375
117035,111419
117076,111413
117074,111433
117089,111441
117122,111467
117169,111440
117138,111492
117210,111484
117230,111509
117271,111494
117273,111516
117313,111523
117371,111580
117425,111577
117444,111593
117466,111610
117525,111610
117572,111663
117637,111690
117657,111688
117715,111754
117772,111732
117854,111798
117890,111784
117902,111806
117946,111815
117986,111882
118002,111817
118022,111885
118077,111876
118101,111874
118123,111938
