11111,11111
0,0
82402,82444
135134,107555
139050,107595
139095,107578
139123,107596
139052,107595
138961,107546
139064,107547
139132,107580
139115,107547
139057,107547
138930,107545
139038,107534
139104,107563
139069,107539
139013,107491
138981,107526
139006,107543
139058,107538
139078,107500
138984,107511
138908,107491
139039,107497
139045,107533
139006,107502
138959,107489
138870,107448
139000,107503
139060,107493
138979,107500
138916,107472
138890,107416
138946,107493
139000,107462
138963,107506
138899,107439
138872,107457
139002,107483
139024,107475
139008,107468
138916,107471
138865,107419
139018,107474
139007,107469
139010,107439
138976,107434
138901,107474
139007,107451
139063,107491
138991,107478
138971,107419
138906,107466
139011,107449
139090,107464
139026,107474
138956,107451
138979,107483
139072,107451
139136,107468
139047,107507
139001,107427
139037,107474
139110,107461
139148,107486
139095,107450
139045,107438
139054,107490
139175,107473
139171,107519
139140,107451
139092,107464
139081,107482
139188,107523
139183,107514
139153,107455
139087,107458
139142,107465
139218,107497
139230,107517
139219,107480
139101,107443
139159,107441
139249,107499
139230,107495
139208,107449
139152,107447
139151,107522
139253,107475
139311,107507
139223,107485
139139,107435
139216,107483
139280,107490
139258,107516
139210,107441
139151,107441
139183,107479
139252,107460
139256,107465
139111,107428
139027,107339
139067,107426
139098,107410
139044,107382
138952,107393
138810,107326
138904,107325
138886,107355
138867,107341
138798,107277
138673,107277
138719,107268
138798,107293
138721,107287
138670,107219
138592,107240
138620,107235
138684,107260
138645,107258
138615,107212
138492,107216
138624,107234
138667,107264
138658,107242
138793,107238
138901,107280
138883,107289
138775,107245
138876,107255
138912,107247
138884,107260
138892,107253
138947,107266
139025,107293
139066,107286
138982,107274
139094,107303
139110,107297
138992,107262
139085,107300
139165,107330
139158,107296
139141,107336
139026,107262
139113,107308
139166,107293
139189,107321
139100,107281
139024,107240
139158,107313
139170,107290
139174,107295
139083,107281
139020,107226
139052,107287
139082,107282
139032,107236
138943,107186
138860,107181
138860,107209
138886,107189
138869,107166
138787,107134
138661,107120
138751,107111
138744,107132
138716,107119
138653,107082
138559,107045
138640,107118
138634,107093
138628,107073
138538,107054
138503,107065
138571,107094
138604,107068
138583,107050
138538,107031
138467,107050
138588,107039
138574,107079
138592,107036
138526,107038
138468,107042
138609,107024
138633,107063
138590,107065
138538,107023
138545,107053
138601,107106
138630,107073
138636,107073
138567,107035
138575,107054
138637,107107
138692,107083
138680,107075
138575,107065
138543,107032
138704,107090
138718,107107
138706,107058
138650,107053
138627,107068
138783,107072
138790,107091
138770,107091
138693,107107
138656,107084
138818,107117
138849,107132
138809,107123
138687,107089
138720,107063
138852,107126
138870,107119
138811,107106
138738,107107
138710,107085
138889,107113
138854,107121
138807,107082
138702,107095
138696,107074
138841,107106
138815,107098
138767,107046
138686,107014
138737,107076
138779,107065
138821,107108
138768,107052
138678,107062
138702,107043
138762,107035
138770,107091
138727,107055
138607,107032
138671,107014
138763,107058
138769,107055
138685,107038
138590,106980
138673,107023
138737,107045
138760,107053
138709,107058
138605,107002
138720,107032
138816,107034
138853,107074
138880,107055
138807,107035
138746,107015
138831,107060
138917,107062
138892,107097
138854,107034
138746,107019
138877,107062
138932,107035
138944,107059
138868,107050
138798,107048
138888,107047
138936,107071
138945,107086
138895,107024
138812,107031
138900,107110
138946,107080
138968,107059
138885,107066
138819,107027
138949,107091
138995,107097
138971,107100
138894,107040
138848,107019
138980,107100
139027,107083
138993,107080
138946,107029
138897,107041
138992,107104
139052,107072
139029,107063
138954,107062
138915,107030
139004,107052
139061,107066
139010,107059
138953,107029
138901,107024
138967,107039
138984,107026
138925,107014
138798,106975
138707,106976
138824,106961
138780,106977
138699,106934
138659,106920
138565,106931
138643,106939
138609,106918
138525,106888
138455,106850
138415,106899
138486,106863
138482,106873
138406,106869
138322,106820
138331,106794
138409,106876
138418,106831
138393,106818
138298,106819
138268,106832
138390,106822
138405,106872
138336,106810
138318,106808
138300,106813
138383,106838
138390,106835
138354,106794
138278,106816
138293,106818
138418,106873
138437,106834
138413,106810
138284,106807
138322,106808
138435,106817
138460,106845
138416,106793
138319,106782
138411,106859
138457,106856
138468,106852
138422,106827
138398,106805
138423,106854
138477,106824
138522,106853
138478,106837
138380,106845
138418,106835
138567,106865
138566,106900
138493,106825
138406,106826
138500,106840
138589,106860
138577,106846
138530,106817
138429,106822
138518,106857
138582,106888
138583,106865
138507,106811
138470,106821
138499,106832
138530,106860
138537,106829
138509,106796
138406,106780
138472,106843
138501,106814
138539,106816
138464,106809
138368,106800
138421,106780
138500,106827
138485,106801
138441,106797
138301,106774
138450,106789
138445,106823
138443,106775
138394,106775
138307,106750
138420,106812
138448,106827
138496,106797
138395,106820
138323,106774
138404,106758
138467,106814
138470,106797
138397,106778
138326,106764
138450,106789
138465,106794
138501,106822
138426,106801
138354,106770
138491,106800
138535,106830
138493,106796
138479,106810
138414,106801
138497,106798
138551,106836
138537,106826
138453,106802
138439,106787
138502,106809
138586,106850
138549,106804
138488,106789
138444,106797
138560,106826
138622,106835
138583,106810
138529,106815
138484,106790
138603,106823
138632,106841
138614,106804
138543,106787
138507,106806
138605,106819
138653,106850
138666,106822
138581,106817
138542,106820
138645,106834
138681,106837
138678,106813
138596,106808
138576,106825
138712,106848
138700,106851
138676,106821
138618,106827
138582,106839
138724,106885
138722,106849
138719,106818
138642,106830
138663,106823
138736,106821
138795,106840
138714,106843
138642,106793
138662,106826
138706,106816
138700,106784
138713,106814
138576,106750
138586,106795
138582,106763
138646,106768
138519,106763
138423,106692
138368,106697
138440,106729
138419,106706
138346,106645
138207,106681
138228,106652
138320,106696
138262,106660
138230,106614
138118,106601
138136,106624
138163,106614
138189,106606
138133,106604
138016,106601
138066,106593
138131,106590
138179,106600
138080,106614
138001,106553
138046,106576
138154,106599
138147,106635
138090,106554
137996,106551
138090,106580
138136,106600
138179,106600
138096,106588
138021,106573
138137,106604
138165,106602
138178,106609
138156,106604
138033,106574
138167,106617
138227,106620
138195,106629
138207,106593
138093,106588
138203,106630
138266,106620
138228,106624
138224,106611
138144,106607
138260,106629
138300,106637
138333,106652
138257,106613
138192,106583
138284,106652
138331,106664
138325,106612
138319,106645
138234,106627
138324,106672
138317,106628
138369,106616
138308,106633
138217,106621
138294,106652
138355,106634
138364,106651
138262,106589
138185,106581
138308,106623
138322,106646
138302,106641
138225,106569
138163,106585
138265,106597
138284,106642
138261,106623
138204,106551
138154,106559
138248,106599
138261,106596
138262,106599
138141,106552
138092,106537
138219,106554
138276,106618
138208,106607
138166,106523
138106,106529
138232,106564
138259,106606
138204,106587
138187,106547
138153,106565
138265,106599
138277,106571
138249,106568
138186,106583
138151,106560
138280,106566
138304,106593
138244,106587
138189,106562
138172,106565
138253,106578
138333,106624
138264,106581
138204,106552
138229,106577
138339,106624
138313,106606
138266,106573
138263,106594
138232,106591
138345,106614
138363,106633
138294,106579
138248,106579
138277,106591
138373,106607
138400,106627
138333,106556
138304,106603
138295,106591
138395,106588
138422,106612
138361,106602
138318,106596
138301,106595
138430,106619
138456,106613
138431,106568
138309,106577
138366,106601
138416,106628
138436,106609
138446,106608
138361,106567
138401,106600
138458,106611
138500,106624
138440,106645
138358,106555
138414,106622
138477,106622
138514,106646
138437,106648
138387,106624
138400,106620
138483,106629
138509,106626
138484,106646
138391,106595
138441,106612
138507,106632
138537,106653
138462,106606
138387,106569
138435,106620
138465,106624
138522,106641
138418,106602
138291,106573
138342,106551
138386,106592
138331,106579
138252,106534
138141,106524
138155,106531
138186,106493
138153,106525
138042,106485
137935,106437
137973,106441
138021,106463
137976,106427
137893,106420
137811,106375
137857,106398
137904,106394
137884,106360
137810,106408
137696,106339
137813,106365
137850,106394
137821,106400
137745,106341
137671,106349
137801,106386
137803,106392
137804,106371
137727,106346
137679,106349
137770,106361
137815,106393
137789,106370
137753,106356
137723,106343
137840,106387
137811,106422
137785,106363
137783,106341
137709,106384
137841,106370
137847,106412
137848,106394
137781,106343
137764,106366
137867,106427
137908,106387
137873,106404
137830,106411
137789,106387
137918,106386
138003,106419
137932,106440
137887,106425
137852,106424
137959,106418
138032,106454
137987,106416
137969,106446
137901,106413
138008,106432
138037,106451
137996,106440
137969,106418
137965,106410
138042,106459
138067,106470
138033,106406
137934,106423
137909,106424
138056,106438
138028,106430
138011,106421
137910,106369
137932,106391
137987,106432
138025,106433
137929,106409
137874,106371
137909,106389
137963,106411
138006,106399
137945,106402
137903,106358
137881,106389
137935,106385
138000,106388
137919,106375
137867,106350
137893,106387
137939,106395
138010,106411
137931,106413
137889,106366
137879,106390
137993,106382
137991,106417
137915,106414
137885,106348
137905,106397
137969,106403
138016,106396
137976,106403
137876,106375
137964,106380
138025,106404
138048,106412
138003,106386
137906,106360
137991,106390
138033,106436
138042,106429
138051,106411
137906,106407
138001,106413
138030,106421
138080,106427
138020,106441
137953,106386
138029,106415
138084,106448
138135,106426
138078,106412
137986,106423
138056,106436
138100,106453
138117,106434
138135,106437
138019,106399
138096,106444
138192,106469
138171,106488
138127,106411
138075,106426
138135,106462
138165,106438
138215,106446
138175,106478
138084,106447
138180,106473
138205,106478
138188,106463
138204,106439
138134,106458
138189,106476
138250,106438
138249,106474
138202,106438
138171,106448
138217,106496
138267,106454
138310,106492
138242,106477
138179,106452
138237,106462
138290,106500
138272,106480
138230,106449
138168,106460
138220,106470
138264,106503
138234,106460
138233,106434
138132,106445
138158,106441
138224,106434
138145,106421
138074,106399
138007,106352
138015,106347
138024,106383
137956,106337
137872,106274
137818,106284
137857,106332
137828,106309
137801,106326
137709,106276
137640,106265
137684,106271
137717,106244
137698,106267
137608,106212
137553,106213
137594,106250
137630,106226
137602,106229
137516,106219
137518,106220
137524,106223
137604,106248
137551,106229
137552,106224
137478,106225
137562,106254
137605,106212
137577,106227
137549,106210
137500,106241
137556,106208
137646,106244
137553,106233
137538,106242
137515,106214
137639,106216
137654,106271
137635,106219
137574,106214
137566,106208
137647,106279
137659,106233
137655,106230
137562,106228
137591,106233
137657,106266
137723,106242
137674,106243
137637,106213
137653,106259
137734,106306
137760,106268
137739,106284
137655,106230
137689,106243
137787,106261
137768,106289
137769,106285
137669,106248
137695,106255
137819,106288
137807,106262
137763,106270
137651,106232
137731,106241
137770,106299
137784,106258
137771,106249
137673,106244
137710,106232
137738,106298
137765,106281
137720,106242
137668,106217
137658,106263
137723,106228
137769,106254
137704,106282
137616,106214
137673,106238
137721,106238
137796,106276
137705,106283
137629,106204
137719,106270
137744,106250
137763,106261
137734,106266
137658,106249
137679,106235
137798,106271
137773,106264
137755,106265
137652,106235
137751,106224
137768,106298
137776,106261
137782,106291
137702,106243
137755,106239
137832,106294
137812,106289
137820,106258
137760,106222
137815,106270
137844,106270
137896,106272
137842,106304
137757,106254
137846,106284
137927,106289
137928,106326
137869,106284
137852,106275
137905,106315
137947,106284
137960,106296
137931,106284
137862,106309
137917,106285
137997,106324
137969,106319
137944,106294
137912,106304
137958,106310
138033,106308
138008,106331
137957,106323
137918,106301
138043,106310
138018,106317
138042,106334
138005,106320
137968,106325
138065,106347
138069,106352
138073,106369
138034,106330
137968,106323
138077,106350
138106,106339
138072,106339
138050,106331
138022,106336
138095,106344
138103,106375
138122,106378
138073,106347
138018,106326
138136,106390
138122,106372
138137,106351
138059,106348
138063,106348
138154,106359
138160,106386
138169,106371
138097,106308
138077,106345
138124,106381
138186,106367
138098,106362
138042,106313
138036,106305
138042,106346
138048,106310
137943,106300
137870,106233
137862,106281
137855,106245
137840,106258
137798,106225
137690,106213
137674,106190
137713,106212
137683,106174
137646,106195
137546,106147
137527,106167
137532,106163
137565,106140
137528,106122
137404,106103
137446,106105
137503,106161
137493,106126
137450,106106
137388,106105
137403,106140
137484,106102
137488,106143
137493,106121
137403,106117
137411,106130
137512,106114
137524,106130
137506,106169
137448,106134
137485,106130
137538,106180
137576,106167
137526,106149
137495,106136
137581,106174
137617,106193
137665,106162
137599,106176
137562,106157
137574,106179
137662,106181
137682,106184
137616,106199
137569,106169
137599,106195
137710,106186
137689,106187
137670,106167
137639,106205
137653,106238
137753,106205
137759,106209
137670,106206
137666,106184
137677,106192
137780,106211
137789,106253
137722,106193
137698,106229
137724,106228
137782,106224
137795,106230
137732,106248
137655,106181
137745,106228
137769,106195
137732,106205
137688,106209
137633,106157
137732,106230
137732,106232
137709,106206
137692,106172
137626,106210
137682,106223
137750,106170
137703,106210
137636,106200
137651,106199
137678,106212
137700,106190
137705,106183
137638,106213
137622,106167
137676,106182
137741,106195
137727,106223
137625,106181
137624,106184
137685,106215
137739,106204
137729,106221
137682,106214
137662,106179
137761,106241
137769,106200
137768,106216
137737,106197
137691,106235
137746,106229
137793,106215
137809,106244
137734,106231
137734,106205
137834,106286
137856,106239
137830,106250
137760,106225
137762,106238
137866,106275
137877,106290
137843,106240
137816,106245
137790,106246
137922,106292
137897,106271
137907,106246
137850,106260
137855,106242
137932,106278
137928,106299
137923,106259
137897,106274
137879,106269
137948,106299
138023,106315
137959,106276
137885,106280
137894,106278
137947,106306
138016,106306
137994,106323
137919,106254
137939,106267
138000,106323
138040,106291
138040,106296
137949,106269
137973,106305
138051,106314
138097,106318
138059,106319
137979,106263
138037,106300
138106,106309
138077,106339
138057,106296
138025,106304
138066,106294
138122,106347
138148,106352
138121,106325
138023,106316
138106,106323
138144,106332
138164,106308
138130,106332
138071,106316
138043,106325
138117,106300
138099,106314
138050,106291
137973,106295
137964,106287
138023,106253
137964,106311
137928,106257
137801,106221
137830,106233
137820,106246
137771,106208
137727,106188
137598,106173
137636,106166
137656,106146
137646,106165
137563,106120
137478,106093
137513,106137
137515,106133
137513,106090
137502,106110
137361,106064
137435,106107
137454,106090
137446,106110
137425,106082
137354,106079
137418,106116
137432,106086
137453,106101
137380,106103
137342,106058
137436,106124
137435,106134
137447,106092
137412,106070
137396,106093
137428,106093
137481,106140
137456,106116
137448,106087
137410,106084
137475,106133
137532,106112
137496,106135
137487,106113
137411,106129
137499,106151
137576,106145
137569,106124
137532,106141
137453,106124
137559,106147
137599,106142
137620,106150
137527,106172
137488,106119
137633,106161
137641,106196
137672,106190
137570,106165
137569,106128
137652,106167
137659,106179
137662,106160
137623,106192
137578,106165
137662,106188
137672,106175
137683,106170
137590,106145
137550,106168
137659,106174
137661,106149
137627,106141
137577,106158
137552,106120
137624,106171
137625,106195
137572,106161
137539,106104
137517,106175
137589,106126
137583,106122
137566,106153
137520,106100
137503,106124
137559,106157
137591,106139
137560,106110
137494,106135
137459,106136
137572,106170
137548,106131
137563,106137
137490,106092
137459,106138
137582,106157
137569,106148
137535,106103
137515,106134
137538,106117
137571,106166
137614,106149
137589,106138
137510,106147
137577,106137
137638,106162
137640,106159
137640,106175
137521,106168
137584,106146
137679,106207
137708,106158
137627,106164
137613,106142
137626,106194
137730,106170
137724,106164
137703,106179
137654,106148
137675,106201
137690,106193
137783,106182
137711,106210
137625,106181
137727,106173
137758,106218
137777,106193
137780,106192
137723,106182
137744,106204
137801,106216
137796,106240
137730,106221
137721,106173
137781,106221
137807,106206
137815,106217
137820,106204
137722,106210
137759,106221
137864,106227
137899,106211
137824,106184
137761,106239
137813,106215
137886,106224
137905,106268
137827,106230
137832,106215
137867,106267
137920,106279
137885,106238
137910,106255
137803,106215
137890,106265
137922,106250
137914,106252
137929,106271
137856,106246
137899,106279
137919,106290
137885,106247
137837,106209
137749,106222
137805,106214
137796,106209
137758,106177
137679,106189
137568,106098
137611,106127
137606,106126
137546,106130
137489,106070
137380,106090
137392,106069
137424,106058
137317,106071
137295,106028
137222,106020
137242,106046
137279,106010
137237,106037
137122,105998
137104,105963
137167,106015
137158,105974
137155,105981
137078,105987
137062,105947
137132,106012
137125,106001
137097,105979
137079,105958
137023,105981
137098,105984
137136,105999
137111,105980
137046,105991
137027,105951
137154,106013
137190,106002
137170,105996
137106,105986
137082,106019
137137,105999
137225,106021
137168,106010
137104,105998
137099,105980
137233,106001
137243,106064
137218,106004
137194,105986
137166,106007
137277,106048
137306,106025
137263,106033
137241,106015
137239,106027
137330,106066
137352,106058
137307,106054
137264,106035
137267,106049
137309,106049
137350,106075
137328,106054
137252,106042
137300,106050
137352,106050
137328,106052
137341,106061
137250,106017
137247,106049
137339,106057
137376,106076
137295,106056
137207,106021
137266,106049
137291,106023
137329,106021
137231,106020
137199,106000
137234,106014
137253,106025
137286,106023
137255,106034
137165,105994
137218,106039
137243,106041
137272,106011
137229,105992
137134,106012
137183,106012
137263,106008
137241,106041
137203,106009
137155,105978
137214,106020
137248,106037
137235,106025
137204,106015
137166,106018
137235,106051
137291,106049
137251,106048
137245,106021
137187,106037
137230,106060
137310,106029
137287,106055
137282,106038
137218,106041
137278,106105
137306,106031
137326,106099
137300,106034
137237,106032
137287,106069
137380,106066
137344,106058
137359,106035
137260,106043
137345,106104
137383,106060
137399,106068
137384,106036
137308,106063
137428,106093
137424,106093
137440,106075
137430,106078
137380,106104
137432,106107
137518,106082
137498,106095
137438,106088
137401,106070
137496,106125
137485,106098
137520,106109
137460,106098
137449,106094
137502,106107
137569,106122
137511,106131
137497,106104
137452,106111
137507,106126
137578,106099
137574,106130
137494,106155
137486,106104
137567,106126
137635,106157
137579,106144
137527,106156
137502,106126
137609,106140
137596,106182
137610,106165
137542,106142
137552,106140
137641,106181
137619,106141
137561,106125
137518,106100
137474,106117
137515,106103
137518,106084
137461,106111
137380,106041
137283,106062
137342,106041
137331,106082
137239,106024
137145,105981
137098,105976
137144,106021
137108,105999
137030,105951
136981,105909
136909,105932
136969,105918
136918,105937
136846,105886
136802,105888
136751,105897
136804,105867
136841,105907
136789,105877
136696,105862
136697,105860
136754,105842
136776,105881
136709,105848
136656,105817
136690,105846
136736,105883
136764,105840
136738,105893
136672,105863
136710,105859
136763,105889
136803,105872
136749,105890
136673,105846
136740,105906
136784,105894
136797,105925
136744,105893
136726,105832
136772,105903
136805,105898
136835,105885
136832,105879
136744,105895
136825,105883
136881,105926
136885,105887
136855,105931
136797,105899
136898,105932
136937,105955
136955,105930
136916,105934
136856,105893
136941,105953
136980,105941
136966,105927
136946,105950
136864,105902
136926,105941
137006,105928
136949,105946
136900,105916
136845,105913
136904,105946
136938,105959
136941,105928
136889,105914
136792,105914
136842,105949
136901,105934
136884,105905
136862,105907
136769,105951
136849,105907
136855,105962
136883,105956
136816,105913
136781,105901
136851,105962
136864,105928
136859,105938
136829,105912
136793,105906
136830,105956
136890,105920
136852,105957
136818,105894
136769,105890
136887,105950
136871,105949
136870,105914
136812,105909
136750,105927
136837,105962
136926,105953
136888,105959
136844,105937
136811,105889
136878,105962
136891,105954
136925,105956
136829,105963
136839,105905
136960,105979
136950,105990
136983,105992
136889,105943
136912,105940
136984,106002
136976,105951
136992,105988
136921,105957
136960,105992
137025,106003
137060,105997
137037,105999
137002,105983
136992,105992
137078,105999
137102,106038
137054,106006
137039,105982
137028,105979
137139,106026
137153,106045
137088,106047
137044,105981
137089,106026
137178,106017
137183,106046
137187,106025
137101,106035
137096,106033
137201,106045
137221,106079
137200,106051
137154,106011
137194,106046
137260,106088
137248,106052
137209,106070
137163,106047
137198,106072
137234,106100
137300,106072
137249,106100
137161,106056
137265,106083
137303,106135
137313,106096
137338,106116
137217,106077
137232,106070
137330,106093
137345,106109
137264,106100
137158,106010
137154,106067
137221,106070
137159,106067
137110,106057
136972,105999
136988,105990
137006,105996
136940,105965
136875,105954
136792,105873
136807,105939
136779,105945
136754,105869
136685,105886
136545,105843
136579,105834
136609,105881
136558,105826
136481,105812
136404,105804
136445,105795
136485,105825
136416,105793
136391,105807
136285,105774
136333,105773
136372,105771
136379,105789
136318,105788
136260,105735
136324,105777
136359,105798
136366,105757
136317,105764
136250,105768
136300,105800
136353,105798
136385,105763
136331,105780
136276,105741
136311,105816
136370,105766
136384,105786
136325,105770
136303,105763
136390,105830
136403,105818
136444,105827
136369,105794
136361,105770
136422,105834
136457,105803
136511,105853
136446,105862
136440,105821
136519,105855
136522,105850
136561,105842
136512,105868
136446,105834
136509,105861
136587,105873
136553,105864
136535,105835
136468,105836
136564,105860
136586,105860
136562,105837
136525,105828
136465,105840
136513,105882
136568,105861
136519,105866
136496,105833
136420,105834
136507,105859
136546,105871
136488,105852
136427,105802
136427,105843
136508,105852
136508,105828
136486,105839
136423,105821
136408,105805
136486,105839
136452,105846
136417,105833
136403,105782
136370,105833
136426,105854
136480,105826
136447,105841
136386,105816
136411,105815
136500,105838
136474,105851
136465,105847
136361,105795
136428,105845
136469,105851
136516,105835
136483,105880
136436,105810
136454,105858
136486,105862
136553,105849
136519,105875
136468,105850
136496,105849
136564,105906
136553,105870
136563,105859
136479,105863
136507,105887
136561,105894
136598,105910
136568,105880
136545,105875
136545,105890
136595,105911
136667,105886
136637,105886
136556,105875
136643,105912
136686,105922
136677,105897
136693,105914
136638,105877
136653,105908
136709,105936
136734,105936
136724,105910
136626,105890
136700,105930
136754,105941
136759,105928
136746,105941
136653,105893
136767,105914
136799,105958
136833,105965
136781,105951
136713,105937
136786,105954
136871,105967
136822,105978
136836,105988
136771,105945
136838,105961
136868,106003
136907,105993
136858,105992
136793,105982
136866,106005
136929,105988
136951,106044
136907,105986
136861,105982
136927,106031
136942,106001
136948,106014
136922,105973
136826,105975
136915,105991
136934,106029
136866,105945
136779,105950
136704,105908
136766,105925
136739,105937
136650,105902
136579,105888
136472,105835
136529,105866
136523,105846
136452,105824
136331,105812
136252,105746
136338,105828
136265,105793
136278,105765
136177,105755
136078,105733
136127,105742
136165,105748
136093,105727
136015,105700
136000,105663
136064,105710
136054,105738
136009,105684
136000,105690
135914,105703
135976,105729
136034,105712
136003,105704
135928,105657
135948,105685
136015,105714
136028,105721
136029,105691
135982,105681
135952,105706
136001,105731
136032,105739
136001,105690
136004,105689
135966,105737
136050,105705
136093,105750
136072,105734
136022,105722
135987,105690
136098,105739
136146,105741
136105,105751
136074,105754
136096,105743
136151,105774
136163,105769
136163,105759
136124,105753
136122,105776
136185,105801
136252,105776
136184,105817
136111,105778
136166,105754
136211,105786
136219,105822
136165,105773
136151,105729
136173,105781
136213,105820
136231,105760
136194,105761
136107,105786
136099,105747
136167,105751
136169,105782
136125,105745
136045,105759
136053,105728
136129,105741
136101,105750
136082,105763
135983,105702
136058,105746
136074,105745
136095,105733
136063,105720
135989,105688
136013,105759
136054,105739
136097,105756
136046,105759
135976,105706
135991,105750
136090,105752
136074,105747
136033,105767
135940,105720
136015,105763
136107,105764
136120,105760
136082,105748
135990,105737
136106,105771
136133,105785
136163,105759
136147,105777
136027,105748
136120,105813
136161,105814
136206,105809
136153,105810
136110,105779
136218,105795
136273,105847
136241,105817
136221,105809
136166,105800
136288,105833
136291,105859
136275,105825
136283,105811
136227,105813
136323,105832
136380,105877
136328,105860
136280,105826
136261,105848
136326,105874
136382,105875
136342,105855
136314,105829
136314,105859
136390,105851
136429,105883
136417,105884
136361,105821
136350,105875
136401,105879
136454,105869
136417,105906
136413,105847
136400,105878
136440,105923
136478,105888
136459,105921
136418,105875
136380,105855
136456,105897
136519,105926
136475,105924
136442,105869
136417,105899
136497,105934
136512,105899
136496,105936
136432,105892
136437,105912
136510,105930
136548,105910
136531,105929
136482,105900
136420,105915
136490,105914
136486,105926
136446,105888
136352,105829
136300,105849
136307,105857
136291,105803
136203,105821
136119,105764
136097,105767
136110,105786
136048,105733
135993,105741
135894,105658
135835,105683
135871,105670
135807,105706
135746,105626
135676,105640
135625,105620
135691,105634
135652,105647
135594,105584
135502,105565
135491,105576
135552,105587
135561,105560
135539,105569
135410,105569
135420,105542
135497,105585
135503,105567
135439,105564
135379,105531
135422,105580
135475,105591
135518,105601
135476,105551
135395,105567
135488,105551
135503,105595
135494,105555
135511,105581
135404,105541
135494,105571
135515,105600
135568,105635
135531,105580
135447,105562
135513,105607
135570,105609
135604,105617
135573,105609
135545,105606
135589,105622
135669,105634
135623,105677
135611,105625
135580,105577
135647,105672
135687,105652
135701,105637
135689,105670
135594,105619
135699,105637
135736,105665
135726,105650
135705,105627
135571,105631
135614,105672
135668,105659
135667,105654
135587,105630
135563,105584
135595,105665
135659,105648
135616,105641
135585,105599
135520,105579
135574,105650
135578,105613
135591,105626
135567,105618
135487,105600
135581,105642
135568,105629
135595,105618
135529,105634
135455,105582
135581,105637
135607,105629
135580,105594
135560,105627
135468,105642
135572,105668
135585,105653
135599,105650
135542,105617
135530,105659
135578,105643
135607,105636
135617,105666
135568,105631
135571,105622
135647,105678
135628,105695
135632,105629
135628,105663
135596,105642
135674,105691
135674,105666
135698,105657
135632,105669
135630,105629
135717,105687
135750,105699
135731,105650
135704,105682
135656,105703
135756,105718
135820,105732
135798,105735
135718,105711
135781,105715
135830,105759
135846,105712
135857,105723
135762,105715
135793,105716
135883,105740
135944,105785
135884,105733
135847,105712
135847,105735
135930,105751
135979,105770
135918,105778
135853,105729
135867,105763
135962,105770
135995,105788
135947,105780
135934,105741
135905,105789
135996,105799
136039,105775
135979,105794
135946,105783
135966,105766
136070,105801
136109,105840
136042,105790
136022,105797
136041,105832
136108,105852
136115,105843
136077,105796
135992,105773
136043,105835
136114,105807
136143,105814
136093,105842
135997,105771
136014,105818
136064,105789
136089,105800
135973,105799
135850,105773
135881,105737
135940,105748
135880,105741
135759,105679
135644,105637
135656,105669
135680,105671
135648,105660
135522,105616
135393,105552
135468,105606
135405,105607
135365,105566
135324,105563
135228,105539
135219,105518
135264,105515
135213,105527
135167,105472
135098,105470
135113,105480
135196,105492
135131,105525
135074,105474
135024,105487
135074,105461
135088,105497
135104,105481
135046,105469
135048,105469
135055,105504
135126,105476
135139,105496
135043,105478
135027,105455
135112,105461
135153,105505
135135,105498
135093,105484
135025,105483
135153,105484
135190,105520
135166,105498
135137,105494
135118,105501
135211,105512
135220,105537
135241,105532
135209,105520
135165,105525
135273,105566
135307,105551
135314,105544
135282,105553
135248,105564
135332,105569
135362,105568
135360,105596
135279,105573
135270,105551
135350,105600
135387,105582
135334,105575
135312,105579
135253,105580
135363,105575
135363,105594
135339,105559
135288,105523
135223,105571
135345,105552
135328,105588
135251,105540
135240,105522
135174,105569
135268,105545
135249,105543
135216,105542
135139,105519
135154,105517
135247,105569
135219,105548
135205,105538
135117,105510
135125,105515
135178,105512
135252,105544
135189,105552
135122,105525
135147,105560
135209,105560
135197,105526
135225,105557
135127,105505
135162,105524
135212,105540
135271,105568
135179,105571
135142,105519
135194,105534
135232,105567
135222,105566
135234,105553
135176,105527
135193,105534
135287,105549
135290,105565
135277,105554
135188,105548
135235,105587
135287,105566
135373,105575
135326,105583
135243,105588
135302,105608
135344,105619
135357,105576
135382,105623
135273,105595
135334,105615
135370,105601
135424,105614
135367,105619
135312,105590
135388,105622
135426,105667
135482,105614
135424,105622
135328,105589
135429,105629
135472,105663
135469,105644
135451,105634
135362,105607
135461,105658
135490,105635
135547,105649
135471,105651
135428,105628
135475,105639
135562,105651
135536,105681
135501,105631
135444,105666
135547,105687
135578,105712
135543,105647
135578,105669
135491,105625
135569,105668
135567,105697
135613,105669
135550,105686
135542,105672
135629,105713
135622,105707
135658,105702
135584,105680
135516,105649
135629,105701
135612,105686
135620,105660
135517,105654
135442,105594
135522,105662
135474,105683
135422,105626
135345,105561
135223,105577
135259,105546
135269,105562
135141,105542
135077,105479
134991,105471
134980,105468
135002,105478
134888,105424
134781,105426
134713,105392
134796,105390
134730,105398
134694,105356
134586,105323
134538,105316
134616,105343
134579,105356
134552,105338
134437,105313
134425,105273
134513,105346
134527,105332
134458,105299
134413,105280
134404,105306
134484,105288
134506,105322
134459,105307
134405,105270
134440,105297
134501,105322
134497,105318
134513,105300
134433,105284
134478,105319
134530,105347
134554,105346
134532,105350
134463,105305
134484,105294
134603,105344
134595,105395
134547,105312
134542,105312
134516,105356
134610,105383
134647,105353
134582,105359
134550,105320
134586,105393
134638,105383
134701,105387
134638,105362
134581,105325
134605,105406
134712,105387
134718,105407
134651,105411
134578,105356
134656,105394
134707,105385
134666,105394
134647,105380
134554,105326
134620,105360
134655,105374
134674,105388
134577,105361
134529,105360
134572,105358
134568,105379
134605,105395
134530,105323
134468,105305
134495,105354
134546,105334
134532,105365
134505,105331
134470,105318
134472,105381
134508,105358
134510,105344
134506,105338
134394,105324
134504,105343
134509,105364
134522,105352
134498,105372
134414,105326
134483,105334
134531,105371
134483,105363
134466,105339
134393,105321
134506,105363
134550,105359
134581,105382
134517,105362
134462,105333
134524,105386
134574,105425
134579,105379
134561,105376
134516,105387
134604,105421
134632,105415
134638,105399
134604,105424
134606,105362
134640,105431
134716,105432
134678,105412
134665,105437
134607,105402
134712,105417
134765,105468
134743,105449
134719,105438
134670,105433
134728,105449
134771,105466
134792,105428
134749,105445
134733,105452
134833,105458
134832,105466
134866,105487
134794,105466
134780,105464
134864,105489
134875,105509
134879,105462
134811,105460
134822,105472
134888,105492
134922,105520
134861,105471
134845,105461
134846,105480
134887,105526
134922,105521
134903,105505
134850,105488
134851,105457
134979,105544
134948,105543
134936,105530
134869,105519
134921,105516
134981,105538
134985,105533
135030,105531
134932,105511
134970,105516
134991,105534
135052,105519
135020,105544
134926,105489
134957,105518
134998,105541
135022,105531
134977,105513
134892,105508
134853,105505
134905,105502
134845,105486
134786,105474
134646,105425
134592,105358
134663,105433
134610,105423
134479,105345
134390,105317
134343,105310
134397,105308
134350,105323
134247,105276
134113,105214
134142,105245
134116,105262
134071,105219
134063,105203
133919,105181
133959,105179
133978,105192
133927,105181
133915,105151
133818,105147
133862,105127
133855,105165
133882,105163
133867,105132
133764,105130
133805,105136
133853,105184
133846,105163
133831,105157
133754,105133
133819,105123
133862,105191
133883,105183
133851,105179
133748,105132
133828,105144
133880,105197
133867,105183
133883,105171
133802,105148
133842,105177
133915,105196
133942,105212
133903,105171
133838,105166
133914,105184
133996,105201
133992,105231
133932,105192
133916,105183
133972,105208
134041,105205
134064,105257
133985,105215
133931,105186
134012,105253
134025,105253
134034,105226
133968,105241
133906,105201
134023,105225
134024,105251
134003,105237
133967,105243
133919,105190
133948,105220
133995,105231
133958,105238
133894,105173
133844,105196
133926,105254
133947,105217
133931,105194
133872,105212
133794,105182
133877,105217
133895,105182
133874,105196
133813,105178
133775,105182
133831,105181
133883,105201
133855,105206
133789,105172
133777,105152
133826,105228
133877,105224
133856,105192
133827,105199
133818,105178
133857,105215
133920,105233
133844,105211
133837,105207
133817,105210
133938,105204
133957,105235
133908,105230
133900,105224
133877,105221
133968,105268
133972,105264
133961,105216
133909,105223
133939,105260
134031,105277
134041,105279
134048,105288
134005,105270
134024,105288
134077,105305
134105,105296
134115,105310
134056,105277
134046,105300
134146,105319
134210,105343
134132,105313
134112,105305
134149,105303
134189,105351
134247,105357
134191,105352
134169,105344
134241,105355
134253,105370
134336,105400
134306,105369
134262,105350
134246,105398
134359,105380
134409,105389
134347,105427
134313,105404
134348,105390
134446,105447
134418,105455
134441,105392
134351,105388
134414,105417
134455,105444
134474,105423
134469,105433
134406,105390
134459,105450
134478,105448
134520,105448
134509,105410
134445,105420
134503,105467
134559,105450
134561,105449
134518,105460
134458,105407
134547,105452
134569,105482
134594,105448
134521,105479
134395,105393
134494,105452
134475,105436
134465,105444
134387,105393
134264,105331
134286,105410
134256,105346
134182,105348
134126,105294
133972,105277
134007,105285
133986,105255
133943,105260
133806,105197
133672,105157
133731,105183
133694,105195
133653,105134
133533,105105
133479,105084
133508,105134
133481,105110
133476,105101
133389,105064
133317,105030
133368,105111
133385,105081
133366,105085
133282,105026
133227,105015
133328,105085
133345,105079
133329,105078
133265,105042
133246,105031
133303,105092
133349,105077
133325,105070
133298,105029
133298,105051
133349,105104
133388,105090
133408,105088
133335,105078
133308,105079
133403,105104
133430,105119
133450,105115
133379,105111
133411,105081
133478,105162
133522,105137
133510,105166
133443,105151
133441,105112
133551,105175
133601,105159
133553,105152
133537,105150
133537,105126
133603,105205
133609,105189
133631,105148
133573,105164
133560,105185
133625,105198
133641,105192
133621,105166
133549,105185
133538,105153
133646,105191
133637,105184
133629,105204
133519,105154
133528,105160
133597,105231
133582,105204
133571,105148
133477,105166
133434,105154
133548,105154
133550,105169
133458,105151
133423,105106
133392,105171
133480,105144
133511,105165
133453,105136
133395,105134
133429,105128
133460,105143
133495,105150
133462,105140
133371,105117
133446,105150
133493,105152
133498,105122
133463,105189
133361,105123
133419,105180
133477,105187
133530,105204
133447,105171
133399,105110
133474,105206
133521,105172
133543,105163
133531,105192
133441,105188
133499,105179
133620,105228
133625,105210
133578,105252
133553,105227
133585,105228
133683,105256
133734,105283
133706,105256
133631,105231
133710,105253
133790,105314
133779,105309
133786,105267
133735,105252
133822,105320
133838,105351
133872,105315
133872,105320
133775,105292
133859,105324
133981,105367
133925,105365
133935,105322
133912,105313
134010,105392
134047,105385
134014,105390
133995,105410
133943,105338
134069,105380
134084,105433
134075,105385
134089,105410
134016,105388
134128,105416
134148,105478
134150,105420
134109,105404
134096,105401
134189,105467
134230,105459
134256,105438
134181,105466
134160,105427
134269,105498
134336,105493
134298,105476
134279,105476
134220,105472
134310,105512
134382,105494
134393,105486
134312,105485
134332,105475
134420,105546
134456,105506
134455,105523
134421,105489
134362,105530
134407,105529
134486,105534
134430,105514
134330,105492
134287,105491
134359,105488
134354,105515
134269,105462
134146,105394
134135,105438
134154,105432
134116,105400
134043,105379
133907,105330
133850,105321
133874,105334
133834,105330
133725,105280
133655,105230
133589,105263
133595,105228
133582,105216
133526,105189
133384,105209
133363,105155
133457,105206
133412,105170
133414,105172
133320,105162
133264,105146
133358,105145
133382,105173
133292,105175
133235,105159
133220,105135
133370,105214
133316,105164
133303,105152
133245,105174
133253,105147
133350,105161
133358,105188
133368,105182
133301,105135
133372,105196
133429,105208
133442,105208
133426,105227
133380,105189
133388,105210
133486,105246
133515,105219
133472,105216
133434,105226
133476,105255
133531,105258
133587,105280
133553,105269
133510,105244
133598,105300
133651,105299
133672,105283
133667,105300
133614,105274
133636,105298
133720,105334
133735,105296
133682,105315
133653,105269
133726,105328
133754,105325
133758,105309
133775,105339
133658,105269
133757,105316
133747,105324
133801,105297
133727,105342
133682,105293
133723,105307
133751,105311
133729,105298
133699,105313
133601,105248
133651,105303
133688,105303
133665,105295
133653,105254
133531,105262
133590,105295
133673,105289
133652,105304
133576,105266
133539,105257
133570,105267
133626,105293
133619,105277
133551,105270
133489,105258
133605,105251
133622,105331
133603,105296
133582,105300
133508,105225
133654,105301
133630,105287
133643,105281
133601,105269
133557,105271
133639,105310
133685,105300
133685,105307
133597,105303
133587,105291
133702,105359
133702,105332
133709,105309
133679,105319
133678,105323
133720,105353
133787,105366
133772,105379
133728,105286
133750,105348
133859,105377
133852,105407
133829,105378
133806,105363
133808,105368
133858,105414
133888,105385
133915,105398
133837,105392
133838,105398
133960,105406
133966,105459
133963,105409
133865,105395
133899,105404
133991,105437
134006,105431
133988,105395
133959,105416
133920,105442
134045,105441
134064,105467
134058,105466
134018,105422
134022,105456
134063,105464
134092,105467
134147,105453
134017,105408
134096,105467
134127,105503
134117,105484
134170,105484
134069,105431
134115,105465
134190,105483
134219,105525
134194,105490
134129,105457
134172,105504
134241,105500
134266,105496
134249,105534
134145,105482
134200,105499
134297,105536
134321,105543
134243,105541
134193,105475
134260,105546
134280,105530
134314,105529
134215,105516
134094,105446
134151,105472
134148,105498
134124,105442
134072,105441
133880,105380
133926,105417
133909,105381
133822,105360
133769,105361
133616,105288
133634,105318
133597,105305
133563,105288
133459,105215
133332,105205
133342,105193
133329,105219
133320,105187
133198,105154
133099,105140
133147,105145
133136,105151
133132,105117
133044,105102
132966,105099
132984,105094
133050,105095
133034,105128
132963,105075
132924,105067
132966,105124
133027,105083
132995,105084
133002,105095
132899,105071
133053,105114
133039,105164
133034,105099
133012,105099
132967,105127
133020,105124
133092,105122
133114,105173
133013,105126
133061,105114
133110,105145
133190,105164
133141,105186
133062,105127
133068,105142
133178,105156
133202,105191
133222,105163
133194,105187
133158,105165
133216,105207
133303,105190
133300,105213
133249,105200
133250,105219
133342,105214
133385,105235
133337,105225
133328,105228
133278,105211
133340,105237
133401,105249
133378,105237
133302,105207
133290,105206
133337,105243
133383,105214
133360,105206
133252,105212
133258,105216
133321,105222
133329,105213
133287,105185
133263,105212
133254,105202
133316,105227
133313,105218
133253,105167
133238,105190
133234,105199
133285,105234
133273,105201
133242,105234
133189,105126
133207,105172
133261,105196
133307,105200
133262,105192
133159,105139
133220,105183
133301,105204
133320,105234
133276,105192
133233,105196
133235,105206
133317,105231
133356,105201
133364,105248
133272,105184
133357,105242
133400,105263
133404,105231
133383,105228
133347,105253
133404,105278
133466,105292
133481,105272
133498,105285
133405,105217
133473,105267
133524,105315
133535,105290
133544,105296
133475,105239
133546,105297
133604,105338
133631,105290
133596,105320
133522,105300
133592,105316
133688,105325
133689,105350
133653,105351
133612,105299
133697,105356
133725,105381
133750,105358
133726,105349
133663,105322
133761,105390
133776,105375
133827,105371
133752,105403
133752,105333
133772,105365
133862,105380
133860,105363
133839,105390
133718,105384
133805,105389
133904,105431
133895,105434
133855,105387
133771,105370
133920,105412
133874,105459
133900,105421
133860,105422
133832,105395
133884,105417
133941,105437
133940,105447
133898,105436
133878,105388
133952,105451
133978,105461
133982,105442
133945,105439
133908,105419
134008,105492
134008,105456
134025,105458
134009,105428
133963,105463
134017,105472
134074,105503
134020,105489
133946,105438
133898,105416
133988,105462
133967,105454
133889,105399
133830,105370
133754,105392
133733,105393
133739,105366
133640,105352
133561,105288
133491,105265
133528,105297
133481,105281
133431,105248
133308,105204
133256,105224
133339,105218
133301,105262
133227,105200
133145,105156
133129,105143
133205,105180
133153,105185
133112,105140
133057,105126
133030,105145
133139,105172
133121,105181
133075,105146
133037,105105
133043,105159
133101,105173
133108,105169
133066,105161
133036,105148
133037,105181
133164,105172
133206,105210
133151,105169
133144,105160
133132,105211
133222,105180
133282,105235
133247,105220
133204,105183
133229,105204
133337,105245
133368,105241
133352,105262
133286,105218
133330,105270
133409,105263
133466,105280
133425,105300
133356,105232
133453,105299
133540,105310
133538,105328
133507,105284
133503,105317
133492,105330
133603,105314
133615,105345
133601,105331
133514,105306
133561,105330
133655,105348
133640,105350
133606,105349
133559,105283
133631,105352
133647,105382
133632,105353
133593,105367
133539,105283
133622,105324
133663,105331
133665,105343
133588,105366
133520,105284
133603,105355
133652,105355
133596,105337
133547,105310
133529,105300
133573,105359
133614,105349
133591,105360
133537,105310
133473,105313
133532,105327
133564,105360
133572,105331
133537,105314
133497,105288
133602,105334
133602,105355
133624,105365
133574,105337
133534,105314
133618,105329
133690,105396
133660,105358
133604,105373
133591,105325
133678,105375
133738,105421
133705,105382
133709,105334
133671,105351
133774,105415
133790,105416
133827,105388
133740,105373
133742,105396
133811,105433
133888,105446
133887,105429
133807,105431
133801,105407
133915,105427
133960,105461
133944,105434
133892,105452
133882,105426
134029,105499
134023,105523
134049,105475
133981,105467
133994,105484
134061,105503
134134,105511
134125,105520
134082,105490
134057,105469
134162,105524
134224,105540
134173,105522
134118,105526
134142,105510
134256,105555
134252,105567
134230,105572
134161,105541
134173,105534
134295,105548
134347,105590
134293,105590
134247,105530
134291,105576
134344,105603
134379,105581
134375,105603
134309,105584
134328,105588
134403,105597
134434,105662
134413,105627
134347,105595
134429,105625
134492,105620
134533,105632
134487,105642
134428,105622
134473,105622
134571,105660
134555,105695
134515,105661
134474,105619
134487,105640
134571,105649
134521,105641
134486,105609
134410,105599
134409,105624
134446,105634
134399,105597
134332,105596
134221,105526
134219,105576
134214,105513
134198,105514
134107,105521
133977,105472
133964,105463
134005,105456
133937,105452
133828,105415
133775,105405
133783,105385
133753,105424
133756,105372
133684,105377
133592,105332
133631,105359
133634,105363
133619,105329
133582,105324
133487,105296
133531,105326
133621,105344
133586,105361
133518,105316
133498,105284
133555,105356
133607,105346
133585,105348
133587,105289
133514,105344
133578,105338
133645,105373
133654,105379
133604,105334
133586,105315
133671,105364
133707,105388
133743,105333
133694,105384
133638,105320
133764,105409
133822,105395
133803,105424
133775,105387
133728,105358
133875,105429
133910,105449
133895,105428
133879,105402
133859,105425
133957,105461
134024,105460
133977,105488
133929,105423
133963,105446
134006,105494
134035,105493
134043,105473
133976,105445
133986,105456
134051,105499
134081,105481
134039,105475
133952,105448
133988,105459
134035,105493
134069,105514
134038,105466
133966,105462
133960,105452
134003,105483
134072,105532
134018,105492
133923,105438
133958,105455
133983,105484
134038,105486
133985,105459
133930,105441
133889,105461
133985,105465
134045,105479
133975,105453
133893,105430
133924,105434
134009,105467
134026,105498
134019,105478
133928,105426
133997,105462
134079,105515
134070,105499
134027,105492
134016,105431
134057,105502
134096,105511
134139,105478
134106,105489
134036,105486
134072,105489
134183,105509
134175,105566
134121,105518
134108,105488
134182,105539
134234,105568
134234,105515
134257,105543
134162,105523
134250,105575
134307,105556
134318,105573
134306,105582
134264,105528
134334,105572
134377,105587
134383,105616
134383,105608
134308,105584
134360,105584
134446,105598
134490,105635
134427,105608
134359,105575
134452,105610
134527,105607
134525,105660
134502,105641
134433,105604
134511,105666
134548,105657
134592,105674
134545,105643
134502,105610
134558,105666
134618,105639
134619,105696
134607,105654
134492,105629
134583,105661
134673,105690
134670,105704
134642,105674
134564,105650
134682,105699
134719,105708
134724,105723
134671,105686
134611,105676
134712,105728
134752,105711
134714,105684
134694,105680
134694,105700
134753,105718
134769,105713
134797,105731
134720,105692
134721,105682
134799,105718
134814,105756
134759,105729
134731,105697
134711,105692
134722,105715
134768,105749
134729,105686
134618,105643
134539,105640
134586,105655
134561,105638
134496,105606
134429,105565
134315,105552
134389,105572
134309,105572
134269,105551
134188,105491
134114,105503
134171,105508
134145,105503
134043,105460
133990,105438
133969,105405
134003,105453
133972,105427
133938,105420
133890,105412
133828,105368
133919,105428
133931,105416
133877,105421
133806,105385
133775,105345
133856,105394
133880,105382
133864,105401
133759,105402
133805,105404
133856,105423
133912,105378
133898,105393
133828,105398
133841,105376
133924,105412
133937,105441
133953,105415
133859,105403
133918,105421
134013,105424
134026,105447
133988,105446
133933,105414
134023,105448
134095,105494
134057,105465
134073,105490
133989,105463
134042,105462
134149,105486
134194,105500
134152,105501
134091,105472
134162,105482
134231,105515
134222,105523
134193,105508
134167,105487
134217,105522
134244,105557
134284,105521
134238,105510
134188,105506
134202,105548
134275,105536
134292,105545
134245,105513
134131,105483
134227,105543
134265,105545
134257,105540
134210,105515
134103,105486
134212,105501
134257,105524
134224,105507
134182,105491
134137,105461
134160,105504
134240,105504
134217,105509
134176,105499
134124,105485
134196,105515
134240,105517
134242,105523
134206,105491
134108,105484
134216,105539
134269,105538
134236,105517
134228,105533
134183,105484
134226,105533
134273,105552
134305,105535
134241,105512
134213,105505
134314,105556
134346,105557
134342,105539
134279,105537
134266,105529
134367,105583
134410,105582
134390,105566
134359,105564
134336,105573
134428,105578
134469,105610
134440,105594
134418,105578
134392,105550
134461,105604
134537,105614
134523,105612
134469,105591
134462,105600
134541,105624
134576,105632
134558,105630
134524,105617
134526,105607
134596,105646
134604,105654
134616,105634
134574,105645
134560,105625
134630,105675
134688,105682
134668,105671
134619,105641
134617,105653
134688,105671
134762,105715
134719,105666
134676,105663
134678,105668
134736,105689
134782,105694
134781,105683
134689,105663
134709,105704
134808,105709
134774,105705
134786,105702
134733,105679
134744,105689
134780,105694
134812,105712
134797,105674
134650,105645
134717,105674
134739,105673
134704,105668
134622,105637
134543,105590
134475,105583
134536,105589
134482,105587
134386,105543
134262,105507
134286,105507
134283,105523
134256,105474
134167,105498
134081,105414
134063,105467
134068,105446
134059,105451
133970,105415
133895,105375
133919,105411
133934,105418
133960,105391
133854,105381
133806,105371
133826,105393
133867,105365
133881,105405
133858,105359
133733,105312
133810,105387
133854,105398
133869,105367
133858,105355
133762,105360
133831,105372
133931,105410
133899,105416
133830,105359
133839,105310
133849,105412
133912,105364
133932,105406
133883,105390
133865,105355
133928,105399
134030,105395
134007,105396
134024,105414
133936,105419
134018,105424
134067,105454
134119,105437
134049,105452
134001,105393
134084,105463
134159,105473
134110,105453
134083,105426
134075,105436
134141,105450
134193,105468
134169,105483
134143,105458
134077,105474
134151,105482
134190,105489
134173,105449
134125,105411
134115,105463
134186,105458
134172,105488
134211,105478
134097,105467
134055,105404
134120,105456
134146,105452
134134,105432
134088,105457
134011,105423
134073,105446
134111,105434
134067,105442
134011,105389
134021,105424
134071,105418
134059,105434
134044,105415
134025,105366
133984,105420
134079,105430
134083,105414
134079,105436
133981,105418
133981,105370
134060,105437
134108,105436
134061,105433
134034,105375
134018,105434
134107,105426
134111,105444
134115,105432
134054,105392
134077,105448
134150,105464
134152,105462
134174,105433
134111,105429
134101,105455
134211,105467
134181,105469
134182,105460
134123,105408
134188,105462
134264,105517
134257,105520
134221,105489
134174,105449
134255,105498
134331,105499
134299,105513
134344,105475
134264,105511
134260,105480
134368,105509
134412,105542
134364,105518
134317,105493
134340,105532
134426,105535
134482,105551
134438,105529
134396,105502
134412,105550
134480,105554
134537,105569
134504,105571
134427,105531
134501,105587
134552,105617
134543,105607
134536,105542
134532,105565
134563,105603
134615,105611
134647,105586
134627,105599
134538,105615
134609,105595
134680,105619
134676,105665
134626,105605
134583,105548
134610,105636
134635,105620
134659,105605
134548,105609
134425,105531
134508,105575
134498,105552
134432,105540
134355,105505
134247,105452
134241,105480
134226,105456
134201,105415
134128,105397
134007,105377
134006,105383
134029,105387
133963,105351
133917,105332
133791,105339
133848,105304
133863,105352
133831,105313
133738,105318
133642,105246
133755,105328
133749,105307
133705,105243
133664,105249
133580,105284
133699,105270
133673,105261
133698,105272
133625,105250
133622,105257
133664,105269
133740,105309
133691,105256
133683,105273
133621,105269
133751,105306
133741,105304
133767,105300
133678,105275
133671,105255
133773,105312
133795,105321
133796,105322
133697,105271
133728,105239
133828,105318
133862,105335
133815,105279
133801,105292
133771,105333
133865,105341
133917,105364
133873,105323
133854,105324
133851,105305
133911,105363
134002,105352
133963,105351
133909,105340
133891,105339
133991,105366
134029,105377
133962,105367
133944,105353
133923,105314
133963,105372
134033,105385
133947,105348
133873,105288
133928,105345
133991,105351
134000,105366
133939,105311
133898,105315
133887,105339
133948,105316
133984,105366
133924,105327
133859,105298
133894,105330
133933,105337
133941,105327
133939,105328
133866,105318
133865,105347
133936,105353
133960,105347
133915,105309
133887,105314
133857,105325
133964,105370
133945,105343
133944,105328
133874,105325
133917,105325
133980,105347
133994,105356
133946,105322
133928,105305
133969,105345
134028,105369
134068,105375
133999,105365
133962,105332
134028,105372
134077,105387
134126,105404
134071,105391
134044,105357
134095,105365
134160,105403
134127,105405
134125,105424
134050,105364
134159,105465
134202,105440
134244,105421
134209,105392
134132,105405
134241,105465
134292,105465
134260,105463
134293,105439
134243,105448
134309,105477
134336,105480
134338,105474
134321,105482
134262,105449
134378,105487
134394,105482
134407,105500
134407,105489
134319,105444
134442,105509
134468,105495
134469,105507
134456,105491
134411,105507
134521,105521
134532,105509
134546,105536
134498,105521
134442,105508
134556,105517
134613,105540
134571,105548
134518,105510
134531,105521
134573,105569
134618,105568
134612,105530
134572,105522
134507,105552
134561,105535
134570,105528
134546,105513
134467,105485
134423,105496
134437,105487
134426,105465
134394,105469
134284,105419
134251,105406
134273,105441
134230,105403
134193,105390
134066,105348
134043,105331
134123,105379
134072,105381
133987,105296
133947,105291
133864,105321
133930,105307
133944,105307
133917,105319
133789,105266
133862,105284
133901,105301
133880,105292
133876,105250
133805,105254
133837,105269
133949,105301
133948,105319
133894,105260
133852,105275
133852,105310
133953,105306
134017,105335
133936,105326
133868,105281
133946,105331
134018,105319
134012,105352
134019,105308
133944,105295
133965,105314
134055,105299
134096,105337
134033,105290
133995,105301
134037,105347
134127,105350
134108,105332
134068,105355
134000,105293
134132,105344
134156,105398
134140,105394
134166,105360
134083,105352
134180,105396
134194,105383
134228,105385
134202,105397
134107,105348
134206,105378
134276,105393
134270,105415
134227,105351
134164,105367
134232,105421
134259,105417
134265,105404
134218,105367
134160,105339
134231,105363
134283,105382
134268,105379
134227,105384
134134,105361
134216,105387
134260,105412
134260,105367
134212,105365
134149,105369
134243,105393
134278,105389
134287,105365
134222,105384
134187,105350
134278,105380
134319,105401
134291,105431
134277,105382
134216,105360
134326,105402
134355,105443
134312,105386
134276,105393
134259,105372
134371,105409
134425,105400
134396,105449
134368,105385
134336,105387
134436,105456
134439,105448
134484,105425
134421,105399
134434,105409
134500,105461
134514,105482
134546,105465
134510,105458
134477,105480
134597,105477
134625,105477
134628,105520
134561,105460
134540,105485
134664,105522
134677,105539
134653,105469
134600,105490
134607,105517
134707,105538
134742,105498
134738,105539
134664,105494
134706,105529
134769,105534
134837,105541
134760,105573
134734,105513
134768,105551
134829,105586
134857,105580
134859,105550
134773,105538
134818,105603
134907,105604
134942,105572
134921,105593
134876,105562
134852,105579
134948,105603
134999,105642
134932,105575
134860,105578
134947,105592
134973,105625
135027,105658
134959,105600
134932,105576
134982,105641
135034,105640
135082,105619
135057,105650
134974,105634
134989,105638
135098,105660
135113,105668
135073,105609
134984,105606
135065,105649
135067,105656
135067,105623
135030,105648
134936,105585
134934,105573
134984,105602
134962,105611
134888,105555
134789,105539
134800,105548
134835,105574
134804,105530
134759,105536
134664,105470
134679,105513
134750,105527
134694,105514
134643,105472
134522,105464
134620,105500
134666,105508
134608,105472
134592,105488
134526,105454
134614,105448
134637,105497
134639,105473
134621,105478
134543,105488
134606,105454
134646,105527
134656,105488
134608,105474
134614,105456
134695,105509
134727,105521
134704,105490
134683,105475
134677,105478
134784,105524
134812,105559
134766,105539
134773,105489
134737,105501
134783,105518
134874,105539
134858,105543
134790,105480
134780,105513
134869,105576
134913,105582
134862,105546
134870,105550
134825,105542
134922,105595
134967,105592
134926,105549
134891,105569
134867,105564
134996,105574
135020,105600
134986,105567
134930,105587
134955,105583
135026,105592
135025,105577
135044,105602
134987,105542
134966,105606
135072,105630
135073,105641
135009,105569
135016,105589
134962,105594
135063,105609
135102,105626
135027,105575
134973,105598
134985,105564
135061,105649
135047,105592
135062,105557
134982,105560
135021,105597
135095,105607
135104,105616
135055,105574
135022,105599
135041,105588
135090,105613
135135,105594
135081,105625
135017,105578
135063,105613
135119,105628
135166,105625
135110,105622
135057,105611
135102,105612
135200,105656
135178,105617
135180,105640
135131,105586
135141,105630
135225,105667
135253,105659
135234,105610
135184,105626
135239,105640
135303,105660
135272,105693
135284,105656
135217,105661
135260,105655
135362,105687
135349,105690
135315,105693
135242,105654
135358,105678
135407,105721
135429,105680
135396,105717
135312,105680
135374,105723
135480,105708
135484,105736
135450,105681
135379,105661
135473,105723
135520,105741
135496,105702
135499,105696
135396,105713
135493,105748
135569,105719
135529,105748
135529,105724
135512,105716
135575,105742
135585,105760
135603,105753
135550,105716
135539,105710
135629,105770
135669,105786
135614,105769
135602,105774
135530,105745
135646,105752
135711,105796
135676,105795
135636,105768
135610,105758
135695,105765
135778,105792
135709,105812
135690,105751
135660,105770
135757,105806
135776,105818
135799,105806
135703,105767
135694,105811
135794,105795
135808,105826
135820,105823
135745,105759
135775,105788
135829,105817
135881,105867
135824,105811
135835,105822
135785,105821
135849,105829
135844,105834
135829,105813
135746,105778
135753,105782
135798,105789
135794,105789
135712,105767
135664,105735
135626,105736
135657,105730
135694,105755
135616,105718
135527,105674
135505,105691
135574,105715
135556,105703
135509,105669
135475,105641
135470,105694
135537,105701
135554,105715
135487,105691
135431,105645
135426,105663
135500,105660
135533,105715
135473,105693
135443,105660
135510,105694
135545,105714
135585,105722
135531,105723
135468,105649
135499,105701
135573,105725
135616,105718
135586,105701
135540,105680
135584,105720
135638,105735
135666,105754
135624,105715
135540,105723
135585,105706
135714,105758
135703,105739
135677,105725
135600,105706
135680,105764
135687,105738
135746,105760
135717,105743
135631,105733
135711,105767
135782,105750
135783,105776
135758,105779
135715,105761
135793,105785
135832,105823
135804,105781
135852,105770
135742,105773
135788,105784
135888,105766
135868,105776
135826,105758
135762,105754
135847,105812
135837,105751
135880,105787
135805,105772
135761,105711
135875,105798
135854,105778
135871,105782
135853,105748
135781,105751
135839,105809
135877,105753
135899,105770
135820,105790
135752,105771
135876,105795
135898,105800
135886,105781
135819,105770
135824,105733
135899,105812
135894,105805
135912,105809
135834,105768
135807,105739
135940,105794
135920,105823
135954,105810
135921,105813
135855,105805
135944,105779
136016,105848
135969,105813
135930,105784
135919,105784
136012,105850
136024,105810
136038,105825
135961,105790
135966,105818
136070,105803
136077,105879
136030,105842
136014,105797
136038,105807
136101,105836
136165,105861
136098,105836
136068,105824
136045,105826
136136,105830
136204,105842
136169,105851
136078,105846
136105,105837
136196,105865
136217,105896
136213,105877
136125,105841
136185,105845
136236,105917
136227,105876
136252,105852
136179,105864
136189,105883
136286,105892
136318,105902
136290,105883
136179,105855
136242,105894
136279,105923
136350,105952
136297,105900
136258,105889
136290,105923
136359,105911
136377,105916
136331,105914
136267,105855
136352,105908
136368,105922
136417,105926
136370,105933
136306,105872
136373,105903
136411,105949
136426,105907
136389,105942
136323,105866
136408,105950
136443,105910
136470,105939
136456,105913
136385,105904
136405,105933
136504,105957
136515,105953
136433,105951
136382,105885
136414,105922
136513,105935
136503,105935
136415,105933
136324,105860
136390,105888
136423,105928
136398,105878
136297,105871
136248,105826
136285,105890
136295,105848
136304,105866
136215,105819
136170,105820
136222,105866
136257,105839
136242,105839
136192,105847
136135,105792
136243,105862
136222,105836
136233,105821
136199,105838
136175,105790
136251,105870
136309,105866
136268,105860
136205,105825
136210,105818
136313,105862
136307,105886
136284,105862
136300,105836
136240,105859
136354,105880
136384,105860
136375,105865
136331,105849
136344,105857
136408,105919
136426,105895
136423,105891
136403,105885
136357,105878
136468,105906
136450,105959
136440,105897
136384,105899
136389,105881
136504,105895
136515,105942
136480,105903
136451,105891
136458,105868
136547,105954
136601,105914
136567,105947
136489,105911
136521,105913
136617,105964
136595,105971
136588,105943
136556,105907
136541,105957
136603,105943
136598,105950
136608,105927
136559,105925
136552,105899
136667,105968
136658,105979
136589,105936
136539,105881
136588,105921
136658,105951
136651,105991
136614,105925
136563,105909
136566,105919
136669,105958
136660,105934
136624,105916
136558,105931
136563,105925
136671,105966
136666,105976
136620,105923
136607,105907
136624,105915
136680,105972
136672,105970
136626,105956
136585,105916
136676,105942
136693,105977
136725,105979
136656,105942
136630,105940
136668,105960
136753,105970
136782,105997
136723,105961
136675,105953
136711,105975
136782,105947
136807,105988
136756,105968
136690,105957
136770,105953
136836,106000
136812,105995
136806,105955
136744,105975
136819,106008
136867,105981
136871,105998
136865,105958
136748,105960
136878,105987
136879,106017
136895,106003
136890,106016
136790,106002
136886,105997
136939,106017
136947,106009
136878,106007
136869,105957
136936,106017
136967,106015
136946,106010
136927,105982
136900,105990
136968,106056
136998,106017
137023,106048
136944,106017
136948,106021
136986,106050
137068,106032
137021,106050
136982,105989
136930,106033
137020,106034
137091,106048
137021,106053
137032,106026
136959,106004
137075,106029
137051,106093
137038,106048
137043,106008
136991,106035
137052,106042
137071,106052
137073,106036
137061,106020
137026,106051
137098,106037
137142,106060
137134,106051
137049,106037
137039,106017
137149,106040
137197,106099
137150,106034
137084,106030
137120,106045
137135,106057
137222,106098
137145,106071
137115,106023
137142,106051
137194,106084
137209,106054
137160,106049
137106,106051
137173,106048
137220,106102
137226,106089
137165,106050
137138,106000
137089,106056
137161,106044
137196,106081
137104,106019
137034,105977
137059,105993
137070,106022
137049,106011
136963,105982
136908,105972
136909,105944
136957,105987
136942,105928
136872,105919
136813,105931
136841,105932
136850,105967
136879,105929
136870,105925
136794,105895
136841,105919
136849,105964
136880,105935
136888,105914
136773,105940
136857,105942
136871,105970
136889,105971
136866,105912
136838,105923
136871,105952
136970,105987
136951,105947
136937,105954
136840,105926
136970,105953
136983,106012
136982,105978
136987,105974
136909,105931
136990,105979
137049,106026
137063,105947
137007,105933
136970,105945
137066,105995
137049,106017
137061,105976
137049,105986
136968,105953
137052,105996
137111,105986
137115,106001
137032,106011
136996,105928
137073,106010
137147,106041
137111,106019
137042,105995
137015,105991
137110,105997
137171,106034
137181,106022
137113,106000
137079,105962
137166,106016
137201,106040
137160,106015
137114,105988
137076,105978
137169,106035
137187,106043
137174,106011
137126,105990
137114,105982
137136,106005
137223,106028
137178,106002
137101,105997
137073,105971
137175,105999
137180,106001
137173,105999
137124,105978
137092,105981
137199,106020
137194,106007
137192,105997
137131,105976
137129,105999
137183,106014
137232,106039
137181,105993
137144,105993
137128,105989
137215,106043
137277,106022
137247,106009
137168,106015
137158,106008
137230,105991
137282,106070
137262,106013
137200,105975
137244,106024
137284,106053
137332,106031
137289,106029
137252,106034
137265,106033
137368,106050
137326,106076
137293,106050
137218,105990
137316,106050
137350,106065
137401,106064
137343,106072
137280,106003
137312,106070
137395,106086
137436,106055
137392,106060
137287,106042
137390,106043
137444,106089
137455,106093
137381,106055
137331,106013
137392,106041
137469,106070
137419,106067
137433,106061
137341,105996
137422,106077
137486,106083
137468,106095
137432,106079
137364,106026
137467,106090
137494,106097
137514,106097
137453,106093
137371,106009
137484,106072
137494,106063
137503,106092
137474,106060
137420,106025
137476,106072
137521,106107
137509,106059
137500,106050
137435,106077
137505,106085
137521,106090
137561,106089
137510,106063
137470,106030
137533,106077
137580,106099
137530,106058
137492,106054
137472,106054
137561,106068
137591,106111
137562,106090
137515,106086
137511,106044
137593,106087
137614,106111
137576,106066
137542,106031
137530,106091
137561,106063
137645,106088
137592,106067
137595,106054
137524,106084
137585,106095
137667,106104
137617,106055
137589,106067
137525,106079
137638,106094
137643,106080
137597,106102
137548,106032
137573,106073
137628,106063
137629,106089
137554,106078
137468,106030
137434,105992
137529,106021
137485,106025
137435,106023
137348,105975
137326,105977
137394,106008
137415,105974
137376,105976
137261,105972
137274,105922
137350,105975
137378,105975
137292,105963
