11111,11111
0,0
82508,82488
136627,109028
141576,109028
141477,108982
141526,109018
141546,109007
141496,108968
141478,108924
141434,108944
141434,108903
141490,108939
141454,108970
141406,108895
141366,108906
141395,108890
141434,108877
141447,108915
141362,108871
141285,108858
141371,108871
141392,108913
141371,108878
141409,108892
141314,108887
141340,108897
141394,108892
141418,108867
141416,108874
141345,108875
141366,108858
141439,108882
141464,108879
141398,108898
141369,108870
141438,108925
141442,108867
141466,108910
141469,108901
141455,108885
141461,108874
141540,108905
141547,108939
141494,108924
141467,108892
141542,108951
141586,108932
141586,108900
141579,108940
141526,108925
141595,108926
141630,108937
141631,108922
141621,108913
141586,108919
141686,108938
141704,108926
141638,108935
141697,108932
141637,108955
141671,108926
141726,108982
141703,108932
141729,108962
141676,108963
141782,108989
141796,108990
141832,108971
141758,108980
141770,108963
141828,109018
141883,108966
141927,109019
141866,109012
141866,108982
141972,109038
141979,109030
141980,109050
141916,109042
141939,109015
142035,109034
142072,109050
142082,109084
142045,109067
142059,109056
142116,109089
142138,109103
142145,109066
142087,109077
142024,109058
142086,109052
142061,109009
141996,109013
141886,108956
141767,108969
141748,108898
141705,108872
141605,108865
141505,108793
141425,108758
141439,108800
141364,108742
141306,108716
141219,108698
141199,108709
141231,108708
141183,108721
141118,108613
141093,108653
141061,108643
141067,108660
141103,108632
141024,108629
140979,108601
141014,108620
141027,108651
141066,108625
141002,108624
140969,108597
141006,108632
141021,108628
141065,108671
141039,108603
141011,108625
141024,108626
141423,108777
141339,108684
141398,108709
141494,108730
141473,108699
141496,108736
141785,108794
141763,108769
141788,108785
141733,108783
141829,108807
141996,108863
142078,108885
142120,108868
142068,108901
142024,108894
142036,108855
142110,108905
142119,108880
142104,108883
142012,108830
141932,108841
142001,108812
141912,108797
141775,108733
141682,108708
141603,108672
141592,108634
141493,108608
141450,108601
141329,108560
141261,108518
141236,108546
141170,108511
141166,108465
141066,108449
141037,108456
141041,108476
141008,108423
140998,108404
140944,108410
140876,108412
140933,108392
140908,108389
140918,108400
140851,108386
140829,108361
140867,108390
140881,108390
140882,108389
140834,108383
140825,108375
140903,108370
140951,108405
140889,108367
140848,108380
140855,108384
140919,108367
140998,108405
140940,108442
140894,108389
140971,108402
140990,108432
140994,108419
141010,108413
140983,108406
140958,108433
141060,108387
141112,108440
141050,108456
141036,108411
141097,108446
141167,108458
141195,108501
141192,108441
141181,108484
141186,108492
141288,108504
141303,108523
141280,108479
141273,108510
141321,108531
141355,108560
141330,108518
141356,108526
141317,108512
141344,108521
141402,108541
141392,108571
141377,108509
141319,108511
141354,108522
141389,108510
141430,108539
141340,108507
141289,108482
141368,108541
141356,108516
141402,108515
141292,108522
141276,108484
141330,108508
141354,108518
141301,108505
141319,108493
141226,108468
141286,108492
141304,108476
141332,108483
141261,108443
141209,108449
141279,108469
141296,108483
141277,108429
141256,108449
141229,108445
141265,108435
141332,108472
141328,108501
141332,108454
141261,108469
141346,108486
141358,108523
141354,108463
141343,108501
141333,108482
141395,108524
141415,108514
141395,108474
141403,108509
141381,108477
141441,108568
141505,108529
141454,108515
141460,108535
141420,108521
141507,108554
141517,108531
141568,108546
141542,108505
141524,108536
141648,108561
141628,108596
141612,108537
141610,108536
141632,108580
141697,108571
141755,108590
141686,108621
141689,108599
141681,108591
141786,108622
141844,108631
141794,108652
141820,108630
141770,108647
141857,108647
141919,108653
141927,108611
141844,108639
141888,108635
141914,108682
141965,108673
142016,108644
141984,108656
141973,108673
142024,108723
142045,108686
142046,108696
142015,108705
142059,108690
142129,108748
142125,108725
142163,108703
142086,108689
142151,108735
142197,108747
142250,108777
142195,108725
142163,108713
142172,108711
142153,108721
142171,108717
142082,108681
141965,108650
141841,108591
141823,108582
141721,108538
141598,108508
141447,108444
141387,108397
141377,108399
141306,108365
141254,108331
141136,108325
141045,108257
141083,108294
141061,108276
140980,108274
140934,108258
140904,108205
140950,108230
140904,108241
140915,108222
140842,108202
140850,108175
140920,108219
140875,108254
140860,108171
140822,108193
140828,108177
140880,108169
140911,108213
140859,108233
140806,108163
140868,108230
140918,108234
140914,108236
140927,108240
140883,108230
140911,108210
140987,108241
141026,108242
141013,108232
140950,108269
141002,108243
141077,108256
141124,108265
141105,108307
141091,108310
141146,108292
141190,108287
141254,108310
141233,108314
141232,108328
141249,108364
141293,108352
141356,108335
141389,108378
141324,108339
141389,108365
141458,108381
141451,108428
141444,108362
141424,108361
141441,108377
141484,108395
141556,108427
141482,108404
141451,108408
141469,108428
141542,108424
141501,108392
141488,108422
141395,108350
141507,108403
141510,108430
141463,108394
141432,108401
141377,108355
141399,108364
141427,108329
141473,108352
141395,108355
141319,108312
141339,108339
141373,108333
141373,108319
141320,108317
141237,108310
141317,108306
141296,108304
141347,108321
141284,108329
141231,108270
141265,108289
141304,108296
141310,108283
141273,108280
141209,108294
141310,108281
141304,108327
141349,108300
141284,108315
141264,108291
141338,108306
141421,108342
141373,108319
141371,108305
141286,108303
141372,108329
141379,108333
141390,108303
141370,108316
141364,108316
141427,108301
141452,108322
141443,108346
141435,108299
141394,108322
141471,108327
141519,108338
141472,108315
141461,108321
141442,108337
141528,108368
141542,108372
141527,108389
141487,108333
141497,108337
141536,108398
141598,108386
141582,108351
141603,108381
141546,108378
141615,108364
141695,108397
141643,108407
141629,108396
141603,108373
141723,108438
141718,108451
141712,108384
141671,108395
141680,108397
141724,108420
141754,108419
141764,108419
141712,108414
141707,108407
141794,108442
141855,108439
141806,108417
141771,108423
141798,108424
141856,108467
141872,108444
141810,108449
141825,108446
141810,108434
141848,108455
141878,108473
141835,108438
141731,108409
141721,108409
141750,108390
141659,108374
141576,108331
141478,108279
141425,108294
141400,108236
141328,108246
141229,108196
141115,108142
141041,108176
141101,108132
141039,108112
140976,108099
140892,108032
140846,108092
140853,108091
140864,108034
140843,108030
140799,108035
140762,107993
140801,108032
140790,108033
140795,107994
140719,108011
140694,107984
140797,108030
140735,107987
140769,108022
140665,107969
140730,108011
140786,108009
140802,107994
140764,107995
140762,108008
140754,108043
140825,108049
140837,108038
140841,108011
140807,108022
140840,108039
140892,108048
140980,108046
140907,108051
140910,108068
140965,108066
140989,108075
141051,108102
141034,108090
140977,108071
141073,108113
141109,108124
141151,108134
141134,108135
141143,108118
141219,108163
141242,108166
141310,108196
141303,108164
141218,108166
141314,108196
141349,108195
141367,108181
141328,108189
141315,108194
141340,108179
141396,108190
141396,108196
141338,108202
141268,108153
141325,108196
141341,108194
141326,108194
141291,108171
141205,108151
141259,108115
141301,108146
141251,108161
141204,108116
141162,108091
141170,108124
141202,108104
141189,108126
141155,108092
141115,108064
141128,108118
141157,108107
141159,108108
141080,108072
141031,108030
141143,108105
141132,108090
141131,108089
141081,108067
141068,108033
141130,108119
141153,108095
141155,108067
141114,108062
141114,108077
141151,108094
141207,108104
141229,108088
141181,108098
141149,108052
141199,108135
141232,108113
141225,108092
141221,108093
141167,108094
141291,108119
141290,108126
141264,108123
141236,108108
141210,108084
141298,108131
141340,108126
141364,108149
141287,108127
141282,108097
141381,108163
141389,108161
141372,108138
141344,108114
141369,108154
141406,108148
141462,108164
141456,108164
141373,108132
141417,108148
141477,108171
141518,108203
141489,108199
141461,108154
141464,108185
141546,108164
141600,108213
141550,108213
141556,108189
141568,108196
141614,108220
141647,108197
141663,108253
141613,108220
141616,108222
141702,108239
141743,108298
141710,108223
141650,108249
141692,108244
141763,108262
141759,108271
141706,108199
141633,108210
141605,108193
141587,108173
141577,108192
141465,108150
141353,108106
141284,108049
141306,108098
141232,108016
141134,108020
141040,107960
140966,107955
140991,107974
140962,107918
140885,107939
140815,107885
140785,107883
140826,107900
140805,107896
140777,107859
140752,107846
140693,107874
140787,107840
140759,107879
140758,107846
140677,107836
140668,107824
140759,107852
140774,107861
140761,107841
140682,107852
140725,107845
140776,107902
140791,107858
140815,107891
140724,107849
140771,107887
140848,107903
140855,107893
140861,107874
140831,107879
140856,107913
140934,107920
140945,107927
140967,107897
140937,107891
140959,107932
140989,107943
141091,107974
141043,107967
141040,107935
141140,107993
141212,108008
141200,108023
141218,108001
141211,107989
141247,108019
141310,108010
141344,108041
141330,108048
141298,108039
141366,108054
141393,108065
141367,108079
141367,108072
141301,108033
141326,108031
141373,108012
141384,108034
141330,108029
141263,108002
141293,108015
141334,108047
141303,107979
141286,108000
141209,108001
141220,107998
141236,107989
141256,108008
141202,107956
141155,107969
141124,107948
141186,107975
141179,107943
141144,107922
141076,107922
141144,107954
141169,107967
141130,107924
141110,107941
141097,107910
141105,107929
141139,107930
141164,107950
141094,107955
141063,107899
141098,107951
141131,107922
141190,107938
141103,107951
141064,107919
141152,107918
141186,107959
141181,107935
141175,107925
141162,107968
141195,107929
141265,107946
141263,107951
141229,107954
141145,107945
141251,107970
141301,107966
141279,107990
141257,107934
141229,107958
141257,107976
141323,107968
141311,108000
141291,107980
141274,107946
141373,107980
141372,108005
141360,107958
141293,107985
141299,107976
141387,107968
141415,108024
141423,108007
141385,107983
141358,107996
141458,108025
141511,108047
141488,107992
141448,107978
141443,108026
141529,108050
141569,108036
141511,108038
141513,108019
141526,108054
141575,108028
141566,108056
141642,108033
141560,108064
141533,108017
141628,108052
141618,108059
141538,108055
141481,108008
141462,108036
141429,107998
141432,107990
141355,107954
141211,107914
141158,107865
141156,107874
141104,107878
140993,107782
140903,107762
140851,107752
140861,107732
140836,107743
140732,107706
140670,107655
140614,107657
140641,107674
140669,107667
140615,107663
140487,107628
140525,107610
140552,107635
140549,107629
140534,107623
140442,107623
140435,107574
140522,107630
140499,107625
140507,107611
140390,107580
140490,107626
140515,107631
140511,107590
140482,107606
140461,107578
140510,107660
140537,107632
140617,107615
140593,107646
140485,107618
140553,107613
140640,107650
140606,107644
140632,107644
140619,107661
140635,107646
140715,107662
140699,107710
140684,107669
140665,107635
140744,107706
140789,107708
140831,107729
140786,107715
140810,107695
140803,107750
140872,107714
140888,107762
140917,107768
140844,107720
140934,107793
140944,107755
141008,107766
140986,107765
140921,107754
141006,107787
141019,107813
141010,107748
141021,107807
140937,107770
140961,107752
141035,107759
140970,107781
140939,107726
140899,107731
140940,107714
140959,107742
140914,107717
140893,107710
140831,107685
140866,107728
140900,107721
140855,107703
140829,107697
140774,107672
140843,107720
140834,107691
140865,107688
140859,107657
140769,107686
140783,107656
140861,107683
140825,107704
140790,107667
140786,107672
140796,107695
140814,107673
140886,107667
140823,107699
140730,107657
140870,107692
140911,107717
140886,107675
140862,107672
140852,107670
140921,107705
140928,107728
140935,107685
140902,107687
140905,107723
140951,107703
140978,107728
140981,107688
140978,107719
140900,107735
140990,107701
141064,107752
141008,107714
141020,107722
140955,107720
141050,107731
141092,107742
141095,107743
141046,107722
141008,107741
141140,107755
141139,107771
141122,107742
141121,107752
141081,107754
141166,107791
141214,107826
141193,107745
141166,107777
141171,107768
141238,107821
141278,107799
141236,107779
141221,107775
141229,107793
141296,107794
141330,107842
141335,107828
141265,107844
141238,107766
141347,107829
141321,107809
141238,107794
141171,107758
141146,107733
141130,107742
141069,107740
141020,107685
140880,107628
140786,107623
140814,107616
140758,107554
140679,107575
140580,107492
140528,107487
140530,107478
140492,107493
140408,107445
140320,107403
140283,107414
140309,107402
140257,107378
140205,107367
140139,107363
140130,107356
140139,107343
140159,107351
140116,107362
140055,107319
140030,107332
140113,107344
140102,107355
140086,107320
140033,107315
140027,107315
140116,107361
140155,107340
140064,107326
140062,107320
140104,107328
140140,107349
140161,107348
140179,107359
140109,107338
140154,107336
140248,107395
140269,107364
140247,107360
140180,107383
140266,107354
140335,107404
140313,107423
140320,107390
140305,107393
140314,107407
140397,107420
140425,107425
140388,107422
140390,107416
140462,107450
140527,107445
140532,107482
140538,107485
140428,107455
140523,107442
140565,107464
140593,107498
140570,107472
140486,107443
140564,107472
140617,107497
140589,107476
140562,107499
140476,107442
140558,107431
140608,107468
140550,107480
140511,107465
140424,107409
140511,107433
140497,107434
140545,107407
140478,107400
140412,107387
140439,107409
140485,107428
140448,107403
140418,107364
140344,107376
140371,107361
140407,107377
140400,107377
140390,107387
140298,107371
140378,107387
140381,107383
140375,107397
140351,107345
140352,107371
140375,107370
140426,107379
140395,107364
140346,107369
140307,107330
140429,107407
140418,107395
140451,107401
140444,107360
140377,107394
140432,107401
140469,107386
140491,107392
140463,107414
140421,107352
140494,107416
140531,107399
140552,107408
140532,107424
140475,107399
140591,107406
140617,107445
140633,107433
140589,107433
140559,107422
140653,107442
140686,107472
140692,107447
140668,107440
140669,107440
140728,107511
140716,107483
140772,107487
140742,107486
140732,107467
140798,107497
140832,107511
140776,107474
140777,107461
140762,107488
140833,107509
140887,107544
140859,107491
140829,107475
140815,107542
140899,107513
140944,107513
140921,107508
140916,107528
140865,107545
140958,107516
140977,107562
140950,107525
140898,107518
140885,107532
140880,107510
140853,107457
140827,107483
140670,107425
140640,107413
140571,107403
140573,107357
140447,107348
140354,107253
140286,107286
140281,107263
140233,107234
140171,107228
140050,107203
140021,107154
140025,107185
139944,107134
139912,107101
139846,107118
139768,107063
139782,107088
139804,107085
139740,107043
139691,107035
139672,107064
139718,107063
139700,107068
139716,107043
139612,107057
139637,107031
139726,107075
139700,107036
139663,107049
139636,106998
139711,107075
139736,107071
139752,107040
139773,107055
139704,107032
139702,107076
139757,107075
139815,107067
139811,107087
139738,107064
139826,107076
139866,107094
139896,107098
139860,107116
139784,107060
139906,107112
139902,107115
139952,107116
139917,107132
139923,107116
139961,107151
139998,107142
140028,107170
140038,107127
139956,107122
140081,107173
140089,107182
140097,107135
140086,107172
140014,107148
140092,107140
140118,107166
140114,107163
140094,107137
140045,107111
140082,107144
140099,107131
140081,107160
140009,107123
139984,107087
140044,107144
140038,107141
140047,107121
139996,107073
139926,107061
139951,107081
139980,107069
139989,107083
139896,107069
139827,107022
139928,107080
139874,107079
139875,107044
139867,107041
139846,107007
139887,107074
139872,107070
139891,107039
139812,107054
139809,107011
139874,107069
139880,107071
139906,107017
139871,107064
139795,107026
139849,107061
139870,107034
139937,107044
139851,107033
139835,106998
139905,107045
139937,107060
139921,107065
139886,107029
139903,107049
139925,107064
139944,107058
139976,107034
139891,107041
139908,107008
139944,107081
140001,107062
140005,107078
139993,107062
139915,107079
140010,107053
140090,107081
140029,107106
140013,107081
140014,107093
140046,107074
140089,107073
140106,107119
140048,107080
140022,107080
140086,107114
140109,107102
140128,107123
140072,107096
140104,107086
140156,107086
140179,107123
140167,107092
140129,107081
140122,107128
140198,107116
140232,107115
140222,107133
140194,107136
140145,107100
140258,107120
140289,107145
140202,107104
140189,107095
140156,107094
140245,107117
140192,107123
140126,107084
140032,107028
140028,107034
140017,107032
140014,107020
139880,106978
139804,106930
139736,106963
139730,106949
139699,106896
139646,106909
139525,106851
139476,106842
139473,106853
139450,106783
139388,106778
139295,106758
139223,106751
139274,106752
139201,106740
139185,106741
139082,106656
139138,106688
139156,106728
139145,106703
139101,106664
139028,106656
139064,106666
139129,106701
139149,106686
139079,106665
139057,106633
139058,106695
139103,106679
139135,106656
139139,106687
139103,106671
139111,106655
139174,106704
139199,106712
139165,106692
139130,106667
139212,106705
139260,106721
139274,106748
139228,106715
139228,106686
139279,106766
139357,106744
139355,106756
139369,106765
139310,106767
139403,106762
139464,106785
139418,106784
139439,106778
139403,106776
139449,106761
139509,106785
139540,106813
139487,106760
139456,106765
139462,106779
139537,106772
139518,106808
139475,106744
139380,106728
139471,106766
139453,106786
139504,106745
139432,106786
139370,106708
139384,106736
139449,106718
139441,106745
139399,106743
139299,106684
139357,106723
139387,106738
139354,106724
139348,106701
139232,106687
139296,106675
139356,106718
139332,106656
139286,106661
139230,106662
139237,106655
139292,106665
139270,106690
139256,106645
139215,106627
139255,106694
139234,106682
139276,106651
139257,106656
139215,106639
139265,106657
139276,106682
139282,106641
139262,106656
139195,106632
139318,106692
139322,106665
139315,106661
139237,106643
139259,106645
139324,106647
139356,106718
139314,106659
139312,106666
139294,106610
139399,106687
139398,106689
139404,106690
139369,106686
139328,106677
139380,106677
139417,106667
139442,106702
139385,106673
139359,106694
139416,106686
139493,106679
139431,106732
139432,106690
139438,106693
139504,106704
139527,106734
139485,106709
139497,106679
139467,106686
139548,106723
139598,106728
139574,106762
139517,106707
139566,106703
139598,106770
139624,106741
139590,106744
139589,106738
139594,106711
139627,106756
139679,106747
139651,106723
139625,106750
139581,106722
139612,106730
139624,106738
139585,106706
139487,106662
139438,106671
139411,106648
139391,106627
139326,106623
139219,106590
139114,106546
139129,106536
139112,106506
138982,106481
138902,106440
138855,106415
138835,106446
138770,106405
138718,106382
138601,106356
138604,106301
138588,106330
138576,106329
138504,106333
138390,106267
138437,106264
138454,106306
138446,106251
138418,106242
138300,106249
138309,106202
138392,106247
138347,106263
138337,106206
138290,106200
138341,106232
138360,106263
138415,106228
138376,106256
138335,106210
138374,106262
138419,106291
138474,106237
138432,106264
138417,106241
138447,106292
138506,106289
138568,106314
138547,106294
138509,106293
138518,106285
138612,106315
138611,106324
138640,106342
138594,106298
138615,106324
138684,106373
138721,106332
138715,106321
138688,106320
138724,106367
138759,106358
138793,106353
138806,106376
138719,106365
138764,106348
138789,106347
138845,106412
138776,106347
138764,106354
138749,106349
138798,106328
138800,106369
138746,106351
138679,106300
138725,106299
138753,106322
138727,106350
138703,106331
138598,106317
138663,106300
138717,106302
138689,106315
138615,106291
138579,106241
138617,106304
138619,106319
138632,106290
138593,106271
138541,106233
138592,106268
138623,106295
138615,106252
138560,106254
138505,106257
138547,106239
138634,106271
138600,106294
138587,106221
138539,106243
138569,106240
138622,106257
138611,106308
138596,106251
138559,106248
138634,106255
138626,106266
138683,106286
138617,106263
138605,106256
138658,106295
138676,106253
138683,106282
138691,106266
138634,106231
138713,106305
138743,106300
138709,106308
138682,106283
138663,106267
138739,106280
138831,106327
138791,106300
138751,106294
138713,106293
138811,106279
138864,106332
138808,106361
138790,106282
138805,106309
138861,106358
138919,106343
138890,106343
138802,106331
138832,106305
138879,106356
138960,106358
138900,106345
138883,106306
138920,106349
138982,106343
139041,106387
138979,106335
138953,106318
138964,106388
139007,106372
139043,106358
139006,106383
138991,106348
139010,106346
139074,106382
139052,106402
139068,106364
138984,106338
138961,106347
138996,106329
139010,106335
138881,106259
138776,106272
138761,106245
138737,106256
138659,106211
138591,106196
138449,106158
138398,106089
138370,106112
138310,106101
138170,106043
138044,105982
138015,106000
137967,105986
137914,105930
137770,105875
137675,105835
137648,105867
137612,105847
137578,105793
137488,105805
137392,105744
137394,105764
137389,105749
137402,105735
137304,105687
137261,105712
137263,105720
137309,105702
137288,105725
137219,105706
137226,105661
137218,105737
137219,105698
137296,105699
137251,105707
137171,105675
137220,105689
137267,105671
137298,105667
137295,105685
137197,105703
137255,105659
137290,105705
137329,105702
137283,105720
137193,105675
137298,105712
137317,105737
137363,105736
137328,105694
137280,105688
137317,105726
137433,105728
137402,105764
137372,105752
137354,105715
137408,105766
137437,105774
137478,105719
137466,105749
137421,105730
137451,105767
137459,105775
137513,105747
137485,105761
137385,105725
137441,105776
137467,105740
137482,105742
137461,105727
137400,105744
137437,105711
137463,105777
137454,105711
137427,105695
137345,105675
137372,105720
137389,105704
137370,105666
137322,105678
137269,105671
137321,105661
137333,105683
137322,105688
137253,105676
137215,105623
137301,105642
137316,105670
137265,105672
137264,105635
137200,105653
137231,105669
137257,105641
137265,105677
137204,105637
137184,105592
137237,105644
137291,105666
137280,105651
137211,105660
137207,105655
137258,105660
137316,105656
137311,105673
137278,105657
137210,105671
137305,105681
137363,105662
137296,105704
137279,105663
137298,105648
137368,105695
137393,105696
137412,105669
137340,105674
137313,105674
137372,105683
137474,105693
137398,105739
137390,105679
137381,105723
137496,105734
137468,105766
137495,105687
137445,105714
137429,105725
137528,105734
137525,105729
137556,105735
137507,105756
137482,105726
137586,105770
137598,105750
137600,105759
137575,105754
137565,105784
137624,105783
137648,105800
137655,105761
137604,105781
137630,105808
137644,105803
137722,105788
137724,105822
137635,105792
137693,105795
137742,105846
137758,105800
137735,105837
137727,105808
137719,105810
137774,105802
137823,105848
137746,105814
137680,105755
137727,105805
137729,105803
137710,105785
137641,105745
137509,105745
137492,105682
137493,105715
137406,105689
137352,105627
137192,105620
137113,105552
137134,105561
137010,105548
136906,105518
136783,105452
136689,105450
136684,105407
136670,105432
136537,105342
136427,105327
136361,105304
136390,105315
136331,105300
136271,105264
136192,105213
136187,105265
136186,105238
136179,105190
136149,105216
136060,105208
136050,105184
136114,105227
136113,105211
136069,105179
136051,105174
136046,105220
136102,105207
136151,105207
136081,105220
136047,105173
136106,105230
136113,105219
136136,105218
136154,105210
136084,105222
136095,105243
136164,105217
136153,105258
136115,105247
136120,105226
136160,105279
136180,105248
136256,105249
136195,105273
136181,105245
136240,105308
136249,105287
136297,105276
136286,105302
136245,105266
136328,105289
136347,105324
136377,105331
136334,105303
136315,105281
136365,105326
136410,105314
136359,105349
136374,105343
136304,105325
136361,105314
136428,105336
136377,105355
136382,105335
136297,105317
136354,105343
136379,105300
136357,105343
136329,105293
136321,105291
136327,105340
136335,105297
136364,105326
136288,105309
136243,105281
136325,105281
136292,105325
136311,105270
136278,105293
136208,105292
136243,105304
136282,105277
136270,105279
136257,105250
136174,105269
136263,105294
136278,105276
136287,105261
136278,105293
136203,105281
136246,105274
136336,105281
136282,105309
136313,105282
136265,105276
136321,105319
136385,105319
136379,105300
136342,105332
136322,105319
136362,105326
136431,105334
136423,105357
136399,105322
136409,105335
136468,105373
136470,105392
136458,105366
136479,105372
136483,105378
136523,105390
136559,105400
136581,105389
136498,105377
136514,105376
136581,105422
136615,105416
136632,105417
136584,105414
136638,105436
136648,105469
136681,105463
136723,105439
136657,105435
136705,105448
136745,105478
136736,105463
136736,105466
136723,105433
136710,105438
136800,105467
136825,105512
136821,105487
136770,105477
136786,105480
136870,105504
136872,105512
136890,105531
136822,105521
136820,105499
136877,105514
136940,105544
136925,105539
136825,105501
136901,105515
136932,105559
136971,105515
136987,105551
136909,105536
136937,105505
137018,105549
137029,105546
137029,105545
136980,105581
136991,105520
137076,105586
137121,105585
137039,105580
137000,105559
137043,105572
137086,105561
137082,105551
137082,105591
136949,105546
137023,105542
137004,105552
136986,105516
136884,105512
136736,105455
136727,105482
136695,105433
136657,105438
136526,105382
136468,105313
136408,105361
136384,105316
136336,105254
136280,105269
136085,105233
136108,105212
136087,105215
136040,105167
135955,105182
135867,105124
135856,105149
135877,105128
135845,105136
135755,105104
135731,105070
135732,105086
135771,105102
135759,105107
135746,105090
135679,105043
135726,105097
135783,105075
135799,105123
135732,105107
135720,105061
135781,105086
135856,105124
135836,105094
135826,105103
135752,105118
135862,105117
135874,105139
135910,105126
135851,105128
135853,105084
135868,105144
135938,105167
135930,105164
135931,105109
135931,105161
135965,105167
136025,105171
136041,105198
136040,105172
136000,105177
136077,105219
136084,105222
136145,105202
136136,105243
136062,105199
136207,105235
136214,105272
136185,105212
136201,105224
136144,105242
136194,105251
136234,105280
136244,105263
136182,105250
136130,105206
136240,105272
136202,105249
136238,105246
136220,105255
136118,105259
136202,105248
136238,105280
136260,105241
136191,105247
136127,105241
136183,105233
136221,105236
136187,105257
136112,105217
136148,105194
136179,105236
136212,105277
136156,105210
136115,105226
136123,105197
136209,105262
136225,105237
136170,105264
136131,105186
136142,105206
136227,105233
136249,105254
136181,105273
136153,105256
136163,105228
136255,105289
136272,105233
136231,105297
136183,105269
136246,105272
136292,105323
136299,105293
136303,105304
136241,105268
136265,105294
136318,105310
136367,105276
136378,105314
136297,105298
136337,105298
136425,105332
136422,105360
136413,105320
136411,105309
136391,105304
136487,105359
136505,105379
136494,105358
136433,105306
136452,105360
136580,105365
136585,105361
136578,105390
136481,105389
136554,105349
136645,105410
136674,105420
136609,105373
136594,105372
136583,105411
136658,105385
136700,105434
136694,105427
136622,105408
136685,105399
136749,105434
136726,105449
136716,105435
136718,105426
136753,105467
136791,105445
136845,105470
136799,105479
136733,105443
136812,105465
136852,105512
136845,105449
136900,105485
136786,105479
136859,105455
136920,105531
136927,105509
136920,105522
136829,105463
136908,105531
136971,105560
136954,105540
136918,105509
136878,105474
136888,105523
136945,105487
136917,105527
136890,105481
136769,105430
136766,105442
136801,105461
136732,105421
136674,105419
136538,105341
136584,105366
136537,105374
136462,105316
136421,105295
136322,105264
136297,105307
136287,105259
136290,105263
136187,105241
136118,105190
136186,105219
136155,105244
136158,105182
136140,105207
136003,105208
136088,105200
136087,105214
136122,105191
136085,105205
136001,105150
136067,105200
136090,105193
136135,105197
136101,105192
136023,105161
136131,105196
136177,105248
136169,105208
136139,105220
136126,105207
136225,105212
136238,105259
136231,105197
136214,105230
136196,105222
136261,105262
136335,105292
136304,105261
136297,105248
136277,105240
136365,105276
136392,105298
136411,105288
136406,105319
136346,105246
136443,105321
136451,105338
136452,105324
136463,105326
136422,105334
136518,105333
136562,105361
136543,105311
136519,105325
136543,105332
136575,105371
136592,105351
136596,105397
136530,105345
136526,105356
136594,105353
136630,105372
136592,105365
136554,105353
136519,105328
136573,105335
136641,105369
136562,105389
136518,105319
136543,105358
136586,105355
136643,105355
136580,105368
136540,105354
136491,105348
136590,105368
136617,105342
136577,105359
136544,105346
136555,105345
136608,105354
136637,105388
136616,105333
136564,105353
136609,105354
136655,105379
136639,105374
136621,105369
136613,105336
136596,105359
136669,105380
136688,105414
136644,105378
136641,105367
136683,105372
136725,105414
136728,105397
136737,105424
136665,105414
136750,105410
136798,105444
136808,105450
136751,105443
136712,105378
136800,105448
136852,105428
136879,105449
136807,105450
136809,105405
136834,105472
136865,105456
136938,105477
136890,105456
136890,105433
136914,105504
136942,105484
136983,105489
136990,105496
136868,105458
136982,105494
137040,105495
137067,105470
137041,105525
136973,105516
137005,105497
137067,105565
137075,105509
137106,105540
137014,105526
137085,105516
137154,105548
137156,105531
137134,105531
137109,105549
137143,105537
137176,105585
137218,105539
137203,105569
137119,105571
137213,105545
137269,105611
137285,105566
137247,105593
137178,105587
137276,105573
137287,105608
137338,105629
137283,105585
137261,105569
137318,105631
137310,105593
137352,105603
137341,105642
137254,105590
137325,105644
137305,105599
137310,105583
137273,105579
137171,105532
137226,105553
137199,105572
137111,105525
137037,105466
136974,105473
136984,105455
136986,105478
136913,105449
136812,105435
136727,105354
136767,105421
136698,105385
136682,105376
136632,105344
136515,105325
136617,105372
136579,105322
136571,105328
136496,105295
136478,105271
136461,105310
136524,105352
136513,105291
136456,105300
136440,105258
136493,105295
136516,105308
136492,105308
136500,105271
136451,105300
136509,105312
136545,105324
136545,105321
136514,105305
136504,105323
136561,105338
136636,105323
136646,105323
136564,105341
136550,105309
136648,105355
136672,105366
136668,105347
136609,105336
136635,105337
136726,105373
136706,105381
136734,105367
136709,105373
136698,105353
136787,105420
136846,105415
136803,105403
136775,105400
136803,105411
136880,105457
136878,105452
136867,105419
136829,105386
136858,105442
136913,105440
136932,105433
136931,105442
136874,105407
136882,105437
136920,105420
136981,105459
136904,105400
136898,105428
136865,105397
136959,105446
136989,105432
136887,105445
136854,105397
136878,105411
136943,105468
136921,105423
136921,105451
136836,105393
136881,105407
136906,105443
136917,105383
136887,105401
136830,105415
136841,105367
136904,105399
136906,105432
136891,105444
136824,105406
136840,105416
136915,105446
136949,105384
136932,105421
136871,105419
136919,105396
136947,105446
137015,105431
136974,105407
136920,105440
136944,105427
137050,105448
137045,105456
137002,105460
137019,105448
136993,105484
137065,105469
137147,105500
137127,105511
137031,105489
137079,105463
137200,105502
137171,105535
137146,105522
137153,105529
137176,105535
137267,105541
137214,105565
137217,105514
137215,105530
137243,105491
137285,105545
137310,105582
137260,105556
137249,105506
137284,105582
137320,105585
137357,105556
137372,105594
137264,105578
137360,105578
137432,105607
137446,105569
137420,105583
137331,105589
137398,105592
137529,105602
137483,105632
137458,105602
137434,105576
137493,105620
137505,105578
137571,105640
137487,105623
137469,105601
137551,105622
137565,105684
137577,105607
137597,105647
137512,105649
137574,105642
137586,105657
137615,105641
137569,105641
137592,105619
137593,105665
137684,105676
137639,105696
137616,105650
137602,105660
137613,105656
137630,105673
137636,105639
137570,105633
137509,105601
137542,105621
137498,105643
137476,105594
137390,105561
137245,105542
137267,105518
137268,105490
137180,105523
137079,105450
136998,105414
137059,105422
137032,105412
136929,105405
136865,105352
136796,105331
136858,105383
136802,105364
136799,105336
136730,105337
136645,105283
136732,105332
136783,105318
136745,105334
136681,105316
136649,105267
136747,105346
136758,105340
136693,105315
136701,105278
136668,105289
136757,105336
136726,105360
136741,105311
136748,105337
136758,105294
136806,105364
136817,105375
136845,105356
136783,105346
136783,105328
136881,105375
136882,105358
136909,105366
136848,105388
136890,105344
136974,105404
136954,105430
136956,105431
136936,105364
136953,105412
136990,105406
137056,105392
136995,105392
136997,105382
137013,105436
137062,105448
137145,105426
137061,105462
137061,105405
137070,105428
137129,105463
137164,105435
137167,105460
137109,105433
137130,105437
137176,105470
137171,105476
137182,105440
137124,105451
137131,105434
137204,105486
137189,105437
137184,105460
137120,105446
137151,105443
137167,105464
137175,105434
137119,105469
137052,105395
137120,105436
137136,105439
137112,105414
137090,105409
137067,105431
137055,105405
137112,105411
137100,105432
137118,105441
137047,105386
137089,105435
137083,105443
137127,105415
137097,105442
137041,105403
137089,105421
137127,105451
137137,105417
137130,105447
137069,105393
137116,105441
137153,105434
137167,105454
137159,105467
137094,105405
137152,105446
137222,105439
137188,105450
137218,105436
137165,105452
137203,105450
137229,105491
137235,105483
137233,105462
137219,105468
137249,105505
137284,105468
137321,105499
137309,105501
137251,105482
137319,105513
137355,105503
137390,105514
137385,105511
137333,105495
137355,105540
137411,105527
137423,105544
137407,105512
137350,105503
137434,105520
137511,105571
137482,105532
137473,105516
137423,105540
137482,105557
137533,105548
137547,105574
137482,105555
137445,105510
137533,105596
137529,105569
137558,105574
137536,105552
137497,105570
137567,105574
137595,105582
137623,105586
137570,105588
137553,105559
137630,105601
137636,105589
137655,105588
137654,105638
137563,105551
137688,105600
137718,105619
137678,105646
137668,105587
137653,105618
137719,105637
137716,105617
137750,105622
137692,105629
137602,105580
137652,105603
137712,105631
137603,105591
137529,105533
137509,105551
137511,105545
137460,105524
137426,105523
137324,105456
137271,105462
137220,105480
137234,105469
137161,105380
137053,105396
137015,105347
137024,105387
136949,105328
136979,105311
136854,105302
136844,105305
136859,105319
136866,105282
136836,105286
136723,105263
136736,105243
136832,105282
136792,105321
136828,105278
136757,105262
136738,105278
136788,105285
136827,105269
136826,105273
136810,105247
136782,105280
136854,105282
136866,105305
136819,105279
136835,105292
136801,105304
136864,105286
136929,105332
136920,105331
136871,105302
136908,105332
136907,105344
136964,105318
136962,105338
136876,105292
136938,105303
137050,105364
137021,105359
137025,105326
136976,105358
137012,105356
137087,105393
137122,105356
137114,105386
137056,105347
137074,105397
137161,105390
137207,105380
137160,105409
137137,105405
137134,105370
137205,105381
137237,105426
137184,105392
137123,105393
137135,105378
137194,105391
137220,105388
137174,105377
137120,105352
137131,105378
137122,105390
137181,105363
137155,105381
137043,105330
137114,105368
137121,105400
137152,105340
137113,105378
137013,105301
137078,105384
137124,105351
137129,105357
137105,105344
137007,105344
137084,105330
137091,105349
137119,105375
137109,105345
136988,105317
137073,105337
137098,105362
137118,105346
137085,105365
137055,105312
137080,105341
137159,105377
137143,105368
137146,105348
137045,105325
137148,105343
137189,105346
137186,105390
137177,105338
137091,105359
137196,105385
137206,105368
137247,105382
137180,105386
137109,105366
137212,105385
137270,105403
137241,105392
137242,105360
137184,105377
137278,105417
137279,105419
137322,105406
137291,105403
137219,105381
137343,105434
137366,105431
137336,105423
137300,105378
137314,105434
137356,105441
137399,105447
137412,105454
137380,105440
137335,105401
137378,105436
137448,105480
137447,105471
137400,105430
137384,105444
137470,105466
137448,105480
137527,105469
137482,105463
137458,105481
137526,105505
137529,105503
137558,105471
137529,105468
137498,105471
137571,105511
137582,105524
137559,105517
137541,105461
137521,105493
137582,105500
137634,105524
137585,105550
137499,105456
137506,105467
137527,105510
137519,105464
137411,105442
137352,105391
137285,105404
137331,105418
137236,105395
137213,105351
137113,105353
137074,105263
137074,105310
137030,105301
136961,105259
136908,105256
136821,105205
136914,105239
136907,105236
136826,105238
136706,105196
136695,105191
136718,105190
136770,105184
136724,105194
136638,105161
136674,105161
136662,105164
136714,105191
136702,105182
136590,105142
136655,105148
136699,105172
136750,105186
136708,105207
136634,105170
136714,105176
136776,105205
136785,105212
136759,105196
136744,105176
136718,105215
136828,105216
136852,105212
136819,105221
136793,105204
136807,105180
136907,105221
136888,105223
136912,105220
136844,105228
136848,105252
136990,105262
137010,105262
136971,105267
136914,105256
136993,105267
137035,105276
137090,105296
137008,105288
137018,105248
137029,105307
137108,105298
137097,105293
137045,105320
137045,105286
137064,105285
137110,105298
137157,105319
137115,105306
137038,105301
137063,105301
137124,105282
137146,105331
137084,105292
137037,105282
137052,105279
137098,105299
137082,105303
137041,105286
136980,105232
137010,105237
137065,105273
137050,105287
137023,105247
136984,105234
137027,105277
137029,105262
137039,105307
137007,105239
136982,105223
136990,105278
137050,105259
137074,105282
137025,105272
136928,105246
137000,105235
137062,105246
137057,105265
137049,105242
136980,105222
137014,105273
137118,105259
137129,105286
137066,105271
137029,105263
137057,105250
137144,105271
137094,105297
137111,105252
137066,105274
137133,105305
137128,105296
137181,105297
137160,105306
137082,105306
137138,105327
137183,105315
137236,105318
137190,105319
137129,105300
137235,105314
137226,105342
137289,105357
137211,105316
137219,105339
137268,105349
137307,105364
137324,105385
137288,105354
137242,105341
137311,105370
137403,105366
137376,105380
137353,105366
137303,105353
137420,105396
137438,105416
137442,105373
137415,105384
137370,105345
137459,105398
137449,105438
137454,105399
137467,105374
137416,105428
137481,105410
137547,105446
137523,105412
137507,105404
137462,105403
137577,105432
137570,105460
137560,105447
137497,105410
137473,105395
137506,105420
137477,105399
137428,105364
137361,105355
137284,105310
137315,105340
137247,105356
137154,105258
137067,105233
136987,105215
137010,105217
136971,105241
136853,105173
136778,105116
136690,105097
136739,105111
136698,105113
136664,105079
136517,105082
136494,105019
136564,105054
136516,105054
136487,105040
136435,105006
136360,105032
136426,105011
136421,105033
136391,104994
136368,104987
136301,104970
136401,104978
136427,105027
136378,104977
136349,104999
136337,104983
136440,105009
136415,105036
136416,105005
136337,104973
136405,105006
136472,105022
136499,105043
136477,105042
136421,105019
136450,105038
136533,105068
136573,105067
136513,105067
136494,105046
136550,105052
136606,105090
136624,105083
136639,105092
136604,105070
136624,105095
136734,105102
136733,105110
136736,105102
136673,105077
136736,105124
136805,105134
136806,105136
136816,105146
136728,105130
136767,105124
136869,105138
136804,105186
136820,105139
136778,105136
136772,105136
136846,105165
136802,105161
136795,105106
136756,105095
136817,105118
136827,105165
136794,105134
136786,105119
136726,105069
136763,105116
136776,105099
136785,105137
136710,105114
136626,105102
136695,105076
136766,105110
136723,105077
136708,105101
136647,105059
136708,105090
136721,105115
136738,105109
136701,105112
136625,105083
136670,105080
136717,105103
136711,105102
136721,105100
136644,105056
136719,105088
136758,105131
136757,105098
136748,105129
136663,105118
136710,105108
136795,105113
136764,105118
136751,105115
136737,105057
136802,105138
136836,105190
136811,105112
136814,105105
136774,105102
136848,105177
136878,105161
136894,105184
136834,105152
136825,105159
136875,105175
136955,105209
136941,105188
136943,105190
136876,105166
136992,105170
137023,105232
137018,105210
136988,105200
136962,105190
137061,105228
137064,105234
137061,105248
137033,105199
137047,105218
137146,105255
137128,105277
137148,105240
137121,105216
137094,105212
137175,105251
137216,105315
137221,105284
137161,105258
137125,105276
137209,105265
137232,105314
137238,105321
137239,105270
137222,105294
137318,105303
137326,105341
137330,105326
137252,105286
137287,105274
137371,105334
137345,105357
137318,105313
137265,105262
137179,105280
137220,105252
137231,105285
137121,105218
137028,105193
136985,105172
136998,105180
136912,105170
136806,105135
136726,105065
136648,105100
136670,105077
136600,105070
136559,105016
136423,104950
136383,104987
136350,104981
136324,104950
136235,104953
136207,104908
136153,104879
136236,104906
136162,104900
136141,104910
136068,104820
136026,104863
136078,104851
136085,104873
136069,104863
136018,104823
135990,104842
136080,104853
136054,104886
136041,104814
135996,104832
136049,104843
136067,104875
136099,104834
136074,104862
136024,104809
136063,104853
136138,104890
136129,104897
136087,104872
136035,104857
136104,104875
136149,104867
136207,104893
136154,104871
136099,104872
136165,104906
136235,104930
136279,104918
136266,104921
136230,104897
136272,104931
136343,104964
136369,104950
136318,104933
136294,104938
136387,104949
136366,104979
136407,104985
136372,104960
136304,104925
136387,104947
136441,104982
136391,104963
136392,104959
136332,104932
136382,104982
136391,104952
136428,104978
136364,104961
136278,104920
136340,104942
136379,104973
136343,104920
136358,104943
136251,104874
136359,104937
136327,104972
136336,104902
136304,104936
136256,104924
136274,104971
136305,104915
136282,104952
136282,104925
136185,104885
136254,104921
136258,104909
136302,104945
136246,104906
136190,104912
136257,104917
136326,104932
136262,104945
136268,104897
136233,104877
136293,104941
136295,104928
136351,104953
136297,104920
136247,104904
136325,104930
136369,104957
136358,104963
136339,104942
136305,104950
136363,104982
136421,104969
136439,104999
136373,104979
136382,104943
136511,104998
136490,105013
136482,105004
136488,105019
136428,104968
136512,105013
136577,105013
136550,105038
136491,105013
136474,104997
136570,105046
136591,105019
136641,105038
136591,105056
136537,105011
136634,105081
136644,105090
136641,105049
136638,105034
136592,105043
136690,105068
136701,105107
136727,105088
136646,105066
136681,105081
136751,105093
136802,105130
136790,105099
136751,105106
136716,105109
136794,105126
136853,105137
136845,105158
136805,105100
136815,105133
136890,105151
136876,105195
136863,105110
136869,105137
136803,105137
136826,105140
136841,105121
136794,105127
136670,105080
136648,105054
136652,105038
136629,105060
136537,104999
136392,104986
136366,104938
136328,104962
136277,104914
136223,104891
136075,104873
136026,104835
136071,104845
136016,104868
135917,104824
135844,104761
135847,104779
135855,104796
135800,104741
135802,104765
135698,104736
135686,104712
135766,104759
135717,104742
135683,104697
135611,104708
135622,104683
135713,104731
135664,104728
135674,104720
135628,104696
135697,104730
135761,104730
135709,104757
135696,104733
135704,104702
135705,104767
135780,104752
135780,104738
135779,104743
135756,104750
135788,104789
135822,104772
135848,104801
135853,104790
135829,104794
135849,104802
135896,104808
135983,104833
135943,104813
135928,104801
135984,104833
136045,104877
136042,104858
136052,104847
135985,104843
136028,104894
136105,104883
136097,104891
136082,104864
136061,104873
136068,104880
136112,104860
136084,104917
136038,104887
135986,104835
136024,104834
136098,104877
136029,104866
136034,104864
135928,104803
135994,104837
136028,104867
135995,104826
135977,104844
135921,104800
135943,104858
135950,104834
135971,104822
135912,104805
135856,104797
135906,104826
135894,104828
135905,104809
135889,104788
135812,104762
135901,104812
135845,104827
135851,104798
135858,104778
135820,104820
135866,104793
135940,104817
135897,104815
135907,104806
135823,104840
135900,104837
135950,104875
135966,104867
135922,104838
135929,104833
135961,104895
135986,104839
135986,104867
135973,104844
135901,104831
136006,104880
136043,104892
136003,104874
135971,104836
135994,104866
136046,104875
136071,104877
136088,104884
136064,104888
136054,104851
136118,104912
136155,104946
136106,104921
136086,104874
136108,104935
136193,104904
136175,104946
136229,104956
136145,104907
136162,104922
136248,104967
136269,104963
136278,104958
136202,104950
136243,104912
136293,104987
136287,104958
136287,104968
136263,104976
136226,104969
136296,104964
136376,105007
136322,105017
136304,104965
136295,104995
136357,104995
136393,105026
136341,104999
136336,104953
136310,104960
136390,105014
136356,104980
136320,104969
136237,104967
136182,104906
136173,104923
136201,104929
136061,104910
136011,104877
135912,104843
135941,104838
135853,104840
135772,104797
135648,104718
135656,104733
135588,104754
135550,104698
135432,104692
135385,104623
135335,104650
135297,104658
135297,104590
135226,104591
135113,104548
135119,104528
135138,104586
135078,104542
135082,104532
134975,104524
134983,104539
135051,104532
135051,104519
135004,104526
134925,104516
134996,104517
134996,104503
135016,104518
135039,104521
134926,104532
134970,104524
135047,104562
135091,104534
135051,104559
134985,104543
135021,104513
135086,104550
135099,104555
135094,104546
135066,104545
135113,104606
135158,104600
135178,104587
135196,104596
135124,104568
135174,104603
135231,104632
135309,104631
135281,104672
135197,104593
135297,104669
135374,104667
135379,104661
135351,104679
135285,104609
135354,104675
135407,104691
135367,104653
135389,104657
135299,104625
135393,104625
135378,104695
135394,104670
135373,104686
135316,104644
135347,104690
135354,104652
135341,104694
135315,104639
135246,104634
135292,104642
135373,104682
135301,104676
135284,104636
135260,104632
135297,104665
135345,104655
135306,104694
135259,104653
135194,104594
135296,104643
135279,104680
135302,104654
135281,104631
135231,104649
135325,104665
135349,104667
135339,104659
135349,104672
135276,104667
135366,104667
135377,104708
135404,104698
135369,104663
135376,104668
135418,104734
135439,104695
135468,104708
135391,104720
135392,104687
135485,104719
135534,104773
135490,104738
135512,104713
135489,104765
135564,104786
135643,104774
135596,104774
135563,104778
135576,104756
135665,104812
135646,104827
135662,104796
135690,104790
135623,104822
135720,104817
135790,104834
135791,104853
135705,104839
135761,104821
135819,104872
135821,104862
135859,104883
135837,104849
135832,104843
135861,104898
135937,104890
135907,104875
135932,104919
135881,104902
135967,104891
136043,104967
135996,104954
135965,104912
135965,104906
136090,104930
136048,104972
136035,104929
136047,104939
136022,104926
136067,104933
136071,104965
135999,104922
135917,104846
135883,104890
135899,104887
135830,104880
135718,104815
135659,104766
135580,104768
135550,104749
135458,104746
135412,104728
135309,104644
135178,104611
135220,104636
135132,104597
135061,104585
134907,104532
134868,104505
134884,104533
134821,104510
134760,104469
134685,104444
134633,104437
134644,104441
134654,104446
134575,104410
134535,104392
134549,104397
134564,104404
134568,104437
134549,104407
134446,104366
134521,104389
134574,104405
134583,104403
134547,104417
134470,104366
134548,104416
134574,104445
134594,104428
134613,104426
134510,104426
134578,104426
134606,104466
134644,104466
134662,104432
134602,104452
134638,104463
134711,104478
134678,104497
134715,104454
134684,104511
134764,104500
134830,104523
134839,104556
134823,104535
134793,104509
134895,104560
134877,104549
134972,104566
134965,104567
134877,104545
134949,104594
134977,104573
134976,104613
134941,104559
134903,104560
134954,104567
135037,104616
135020,104588
134998,104580
134862,104554
134951,104565
134998,104585
134991,104553
134954,104583
134860,104523
134950,104548
134958,104615
134949,104570
134916,104543
134832,104554
134890,104584
134905,104567
134933,104595
134880,104535
134839,104540
134884,104575
134898,104539
134866,104562
134867,104528
134828,104550
134876,104576
134872,104521
134931,104591
134878,104562
134825,104543
134941,104578
134952,104581
134940,104572
134897,104559
134887,104550
134974,104596
134987,104589
135017,104601
134957,104576
134947,104559
135034,104628
135077,104631
135058,104636
135027,104617
135033,104630
135109,104644
135108,104656
135135,104666
135110,104632
135081,104637
135183,104664
135192,104679
135230,104693
135202,104648
135166,104651
135273,104688
135268,104682
135316,104723
135298,104696
135244,104668
135373,104746
135386,104738
135390,104747
135367,104714
135333,104704
135438,104779
135475,104776
135452,104774
135407,104761
135434,104766
135525,104787
135535,104783
135549,104781
135506,104765
135511,104773
135592,104814
135596,104834
135593,104826
135599,104804
135571,104812
135652,104837
135659,104821
135629,104818
135566,104788
135566,104811
135558,104795
135546,104817
135482,104760
135364,104704
135277,104708
135295,104673
135232,104679
135123,104632
134996,104576
134942,104573
134885,104564
134829,104539
134748,104494
134609,104447
134531,104425
134537,104438
134455,104392
134399,104373
134279,104311
134229,104312
134241,104340
134193,104319
134119,104279
134048,104245
134032,104267
134059,104276
134055,104257
133988,104237
133939,104216
133958,104264
133993,104231
134025,104263
133982,104247
133914,104218
133943,104225
134037,104241
134026,104273
134032,104254
133978,104237
133997,104247
134062,104289
134069,104290
134054,104274
134025,104251
134046,104273
134093,104304
134120,104303
134118,104302
134071,104287
134114,104300
134183,104341
134225,104333
134196,104329
134184,104310
134204,104364
134286,104393
134333,104369
134300,104369
134292,104375
134373,104389
134354,104418
134413,104414
134415,104418
134309,104367
134422,104429
134456,104442
134441,104415
134425,104419
134356,104401
134412,104424
134451,104417
134416,104418
134421,104423
134354,104386
134373,104421
134418,104402
134439,104407
134403,104411
134303,104379
134345,104396
134387,104425
134373,104418
134329,104365
134296,104335
134277,104370
134359,104404
134355,104380
134279,104357
134294,104371
134337,104387
134328,104389
134318,104391
134310,104369
134264,104345
134332,104408
134336,104386
134380,104416
134331,104400
134310,104366
134356,104394
134412,104436
134422,104384
134369,104391
134365,104408
134457,104427
134431,104435
134478,104457
134425,104441
134422,104436
134499,104442
134542,104467
134539,104477
134528,104450
134498,104461
134572,104500
134628,104503
134622,104512
134624,104485
134596,104482
134672,104532
134722,104556
134700,104531
134687,104531
134703,104527
134765,104569
134766,104555
134812,104568
134792,104541
134766,104540
134839,104582
134871,104594
134870,104586
134852,104577
134831,104566
134911,104596
134920,104602
134955,104628
134894,104583
134899,104593
135005,104631
135017,104654
134982,104642
134986,104627
134959,104612
135056,104635
135059,104653
135084,104645
135025,104619
135030,104646
135131,104668
135103,104672
135140,104681
135116,104653
135082,104644
135162,104700
135181,104692
135154,104684
135116,104659
135136,104663
135128,104678
135176,104687
135085,104659
135031,104632
134954,104593
134991,104612
134940,104595
134823,104573
134687,104514
134647,104491
134629,104495
134552,104442
134445,104437
134275,104346
134260,104370
134205,104354
134138,104313
134041,104277
133933,104220
133875,104231
133854,104215
133831,104216
133719,104175
133632,104112
133612,104118
133642,104185
133615,104123
133573,104128
133478,104098
133505,104113
133554,104125
133531,104141
133497,104118
133470,104072
133533,104091
133530,104118
133583,104121
133536,104118
133462,104090
133540,104113
133592,104149
133599,104153
133555,104159
133551,104088
133611,104139
133663,104190
133685,104165
133681,104187
133644,104174
133723,104204
133741,104216
133805,104247
133804,104210
133815,104223
133870,104287
133908,104262
133950,104298
133952,104272
133875,104227
133956,104304
134010,104285
134019,104294
134031,104294
133925,104291
134021,104302
134085,104310
134065,104333
134095,104341
134032,104285
134087,104328
134072,104347
134116,104301
134066,104310
133978,104285
134081,104338
134063,104343
134040,104342
134028,104278
133942,104297
133987,104327
134012,104284
134005,104321
133912,104281
133864,104270
133918,104293
133978,104302
133964,104283
133897,104261
133889,104245
133950,104264
133934,104263
133947,104290
133918,104268
133855,104219
133928,104290
133930,104269
133938,104310
133928,104264
133876,104256
133949,104299
133981,104285
133948,104287
133938,104271
133950,104272
133976,104309
134037,104319
134016,104297
134007,104284
133931,104291
134039,104355
134093,104319
134108,104344
134036,104316
134079,104310
134157,104330
134150,104400
134175,104368
134160,104345
134154,104376
134217,104415
134246,104349
134251,104391
134220,104373
134199,104379
134301,104410
134340,104397
134293,104412
134285,104380
134275,104434
134341,104424
134390,104444
134400,104466
134334,104409
134402,104474
134489,104452
134472,104472
134500,104462
134479,104455
134440,104470
134546,104524
134594,104481
134581,104495
134529,104502
134527,104499
134638,104536
134633,104530
134599,104539
134611,104499
134614,104494
134662,104537
134744,104575
134665,104578
134659,104501
134689,104523
134700,104565
134763,104561
134707,104547
134652,104537
134617,104539
134640,104518
134622,104544
134512,104490
134443,104422
134403,104437
134385,104462
134355,104400
134231,104400
134142,104322
134049,104348
134009,104284
133961,104325
133838,104234
133726,104192
133703,104195
133666,104212
133594,104144
133559,104126
133407,104112
133403,104086
133429,104085
133394,104088
133362,104091
133252,104002
133258,104045
133320,104067
133287,104056
133256,104025
133253,104022
133280,104088
133275,104071
133335,104091
133283,104060
133276,104034
133323,104080
133355,104095
133350,104113
133363,104065
133315,104055
133357,104092
133429,104092
133479,104128
133451,104137
133397,104113
133461,104138
133580,104173
133611,104176
133565,104187
133602,104156
133647,104188
133672,104242
133717,104250
133706,104235
133692,104223
133742,104223
133850,104271
133845,104231
133842,104262
133760,104218
133850,104254
133916,104298
133900,104281
133861,104266
133805,104256
133814,104278
133905,104280
133896,104295
133847,104234
133771,104251
133791,104257
133826,104284
133781,104241
133787,104207
133741,104233
133760,104250
133748,104256
133732,104233
133717,104183
133647,104220
133686,104194
133719,104184
133706,104210
133675,104201
133614,104142
133688,104207
133670,104203
133681,104192
133587,104206
133602,104171
133617,104195
133655,104210
133653,104199
133642,104178
133591,104166
133690,104205
133686,104196
133677,104209
133675,104204
133621,104156
133744,104224
133773,104230
133763,104246
133708,104219
133693,104223
133752,104232
133794,104225
133811,104267
133726,104218
133771,104223
133844,104256
133900,104298
133850,104278
133836,104227
133823,104266
133936,104277
133980,104305
133971,104326
133917,104260
133905,104296
133994,104312
134017,104354
134028,104309
134020,104297
134022,104293
134109,104351
134127,104347
134144,104354
134095,104362
134114,104372
134177,104380
134243,104422
134182,104400
134152,104351
134168,104384
134278,104450
134342,104403
134306,104422
134249,104413
134307,104400
134347,104460
134371,104475
134353,104446
134358,104424
134381,104424
134404,104457
134492,104474
134461,104491
134371,104442
134432,104464
134487,104470
134447,104481
134407,104449
134380,104455
134334,104430
134297,104448
134283,104389
134187,104358
134055,104346
133992,104291
133937,104306
133911,104264
133790,104234
133618,104169
133528,104131
133538,104147
133421,104125
133294,104034
133172,104031
133118,103973
133070,103969
133001,103965
132858,103925
132767,103845
132748,103860
132697,103869
132651,103817
132648,103836
132505,103812
132513,103793
132572,103831
132557,103788
132530,103784
132476,103772
132482,103789
132531,103806
132567,103817
132551,103780
132467,103770
132564,103822
132622,103848
132579,103830
132612,103852
132554,103812
132627,103842
132664,103854
132718,103875
132682,103852
132638,103842
132737,103878
132753,103892
132795,103920
132804,103913
132772,103905
132889,103935
132928,103953
132973,103957
132924,104001
132949,103935
133017,103984
133020,103998
133106,104022
133089,104034
133079,104016
133109,104028
133212,104048
133209,104053
133154,104037
133176,104022
133210,104046
133261,104099
133208,104061
133199,104021
133152,104035
133184,104055
133231,104091
133220,104044
133263,104059
133178,104044
133225,104054
133245,104036
133256,104056
133215,104050
133153,103974
133213,104030
133230,104047
133203,104072
133135,104007
133144,104035
133165,104029
133191,104033
133140,104044
133160,104017
133082,103965
133207,104042
133215,104020
133204,104076
133178,104016
133127,104009
133230,104054
133249,104039
133233,104057
133213,104055
133180,104030
133280,104071
133289,104078
133326,104094
133258,104089
133240,104053
133321,104108
133342,104136
133312,104114
133346,104065
133326,104076
133416,104144
133396,104154
133440,104123
133415,104129
133436,104111
133472,104168
133535,104170
133554,104161
133513,104192
133565,104164
133610,104208
133680,104197
133647,104219
133619,104206
133645,104224
133684,104250
133757,104224
133762,104249
133717,104264
133687,104237
133820,104263
133835,104318
133821,104272
133858,104255
133843,104275
133929,104303
133938,104319
133941,104310
133925,104298
133929,104311
134038,104370
134032,104338
134039,104355
133994,104327
134060,104342
134077,104410
134091,104368
134141,104367
134111,104359
134087,104383
134151,104360
134219,104413
134167,104380
134104,104354
134157,104354
134189,104410
134174,104366
134132,104385
134048,104348
134021,104322
133983,104350
133929,104289
133854,104254
133710,104271
133614,104194
133619,104177
133557,104193
133406,104142
133287,104027
133239,104060
133175,104036
133086,104030
132931,103961
132868,103910
132832,103933
132776,103926
132712,103900
132605,103828
132536,103829
132512,103831
132511,103811
132501,103791
132462,103790
132374,103771
132367,103771
132441,103787
132408,103770
132381,103743
132349,103727
132380,103780
132427,103763
132412,103787
132446,103775
132408,103780
132430,103802
132499,103803
132519,103813
132501,103824
132464,103773
132575,103840
132591,103873
132625,103892
132594,103829
132587,103861
132668,103907
132715,103886
132779,103912
132705,103903
132704,103871
132791,103896
132851,103934
132843,103964
132838,103970
132834,103921
132936,103975
133001,104027
132983,104014
132996,103988
132980,103981
133054,104041
133113,104076
133082,104055
133126,103999
133072,104038
133123,104034
133150,104068
133144,104028
133162,104064
133084,104007
133174,104060
133192,104058
133175,104061
133101,104049
133083,104025
133122,104038
133110,104053
133139,104054
133075,104024
133013,104025
133032,104030
133086,104030
133062,104037
133040,103990
132977,103985
133080,104000
133047,104032
133055,104004
133016,103999
132965,103999
133054,104029
133059,104008
133040,104006
133061,104029
133004,103976
133028,104028
133104,104016
133095,104025
133025,104006
133001,104006
133106,104035
133106,104065
133083,104026
133118,104038
133114,104021
133132,104095
133192,104052
133200,104092
133224,104069
133179,104090
133237,104108
133330,104106
133305,104115
133256,104094
133245,104081
133336,104101
133381,104174
133371,104126
133348,104107
133367,104109
133456,104197
133483,104155
133477,104171
133505,104180
133465,104188
133539,104215
133592,104181
133591,104188
133535,104169
133578,104188
133632,104275
133690,104233
133677,104250
133647,104267
133631,104234
133716,104232
133784,104302
133753,104282
133720,104249
133720,104251
133834,104325
133850,104328
133894,104295
133785,104269
133861,104304
133919,104337
133956,104338
133920,104354
133916,104318
133902,104341
133993,104339
134027,104373
134031,104359
133973,104354
134020,104370
134035,104355
134054,104413
134052,104370
133989,104351
134025,104337
134055,104393
134058,104349
133974,104359
133873,104291
133884,104317
133815,104308
133774,104290
133657,104214
133522,104201
133442,104176
133436,104148
133348,104108
133234,104057
133129,104053
133048,104039
133014,103990
132937,103974
132806,103925
132698,103882
132696,103889
132597,103892
132538,103856
132506,103838
132394,103795
132408,103798
132385,103794
132353,103806
132332,103760
132239,103709
132307,103740
132310,103755
132306,103770
132262,103738
132232,103729
132255,103778
132294,103740
132324,103758
132310,103777
132231,103736
132288,103742
132377,103804
132390,103799
132389,103786
132286,103778
132381,103830
132426,103773
132482,103789
132463,103805
132443,103833
132499,103847
132602,103853
132636,103890
132604,103878
132608,103866
132660,103900
132782,103915
132789,103921
132798,103921
132757,103929
132834,103960
132918,103976
132932,103983
132890,103999
132854,103935
132951,103982
132979,104024
133002,104035
133007,103970
132976,103998
133027,104021
133047,104040
133076,104025
132974,104011
132987,104019
133045,104028
133024,104031
133056,104035
132972,104007
132899,103957
132986,104022
132989,104009
132927,103999
132884,103975
132853,103936
132868,103961
132880,103963
132872,103958
132827,103947
132783,103927
132825,103962
132858,103943
132841,103958
132790,103926
132777,103925
132841,103960
132851,103908
132849,103966
132816,103937
132801,103930
132822,103999
132872,103947
132844,103951
132804,103954
132801,103917
132898,103991
132886,103990
132931,103977
132882,103972
132860,103977
132938,103961
132941,104031
132967,103999
132937,103976
132924,103986
133009,104005
133018,104014
133047,104007
132987,104007
133022,103993
133094,104025
133113,104072
133146,104063
133094,104019
133137,104036
133157,104090
133217,104088
133215,104103
133167,104052
133173,104054
133276,104122
133290,104104
133288,104108
133217,104111
133271,104084
133334,104147
133355,104115
133388,104122
133336,104125
133327,104137
133455,104143
133439,104183
133469,104172
133419,104159
133439,104181
133485,104170
133545,104220
133566,104185
133498,104181
133531,104203
133592,104253
133641,104213
133606,104250
133565,104204
133617,104249
133664,104222
133703,104223
133691,104234
133599,104214
133603,104230
133691,104246
133654,104217
133570,104234
133501,104141
133493,104190
133421,104132
133323,104155
133272,104092
133099,104036
133085,104015
133042,104012
132963,103996
132808,103930
132701,103875
132633,103863
132606,103864
132519,103864
132368,103783
132286,103761
132247,103720
132179,103710
132172,103701
132059,103686
131955,103598
131935,103631
131943,103669
131923,103640
131872,103568
131769,103600
131795,103597
131812,103602
131793,103594
131814,103560
131742,103543
131751,103585
131773,103572
131839,103557
131808,103578
131741,103556
131841,103601
131816,103603
131843,103582
131865,103619
131790,103569
131883,103600
131890,103599
131958,103627
131921,103654
131892,103591
131940,103639
131997,103680
132016,103671
132081,103653
132012,103642
132105,103697
132144,103682
132160,103730
132178,103693
132191,103720
132242,103704
132305,103795
132307,103773
132316,103754
132273,103747
132326,103741
132389,103832
132377,103811
132356,103775
132315,103773
132388,103760
132449,103836
132423,103809
132417,103791
132330,103761
132387,103792
132406,103794
132404,103783
132327,103775
132284,103761
132333,103785
132359,103747
132311,103764
132287,103712
132219,103723
132285,103737
132292,103756
132219,103735
132214,103681
132161,103689
132223,103727
132215,103746
132211,103699
132120,103690
132098,103713
132203,103701
132221,103751
132165,103734
132159,103701
132122,103711
132225,103716
132225,103761
132210,103740
132223,103701
132189,103728
132222,103755
132288,103764
132275,103752
132267,103748
132282,103773
132360,103780
132372,103802
132412,103783
132379,103799
132373,103780
132473,103792
132517,103823
132537,103858
132515,103836
132547,103841
132615,103884
132670,103898
132702,103908
132648,103913
132673,103892
132776,103955
132804,103920
132828,103946
132814,103914
132841,103946
132916,103953
132946,103983
132937,103963
132903,103952
132906,103989
133032,104034
133035,104037
133005,103992
133047,104043
133073,104079
133119,104091
133186,104096
133158,104062
133159,104092
133188,104078
133307,104109
133320,104118
133326,104116
133278,104113
133312,104119
133408,104175
133423,104192
133426,104176
133443,104168
133417,104185
133524,104188
133564,104231
133528,104220
133492,104216
133540,104220
133605,104248
133613,104240
133571,104225
133468,104193
133484,104160
133458,104184
133457,104174
133338,104154
133206,104080
133182,104092
133101,104085
133040,104040
132961,103989
132813,103954
132735,103959
132714,103899
132624,103872
132512,103855
132356,103798
132292,103771
132282,103762
132204,103737
132145,103729
131984,103678
132008,103682
132003,103660
131981,103659
131903,103637
131831,103612
131828,103622
131883,103662
131844,103640
131860,103609
131754,103615
131807,103613
131853,103637
131873,103618
131884,103671
131789,103602
131885,103633
131957,103663
131990,103653
131943,103683
131891,103647
132007,103658
132054,103754
132083,103746
132071,103716
132087,103689
132111,103724
132228,103770
132229,103776
132210,103793
132208,103769
132246,103814
132343,103813
132382,103828
132348,103832
132319,103816
132459,103852
132515,103911
132504,103871
132574,103867
132543,103855
132662,103961
132726,103949
132697,103965
132709,103896
132712,103958
132755,103964
132798,104019
132758,103975
132790,103939
132769,103964
132811,103952
132819,103978
132833,103990
132807,103966
132747,103968
132785,103972
132830,103970
132781,103985
132772,103954
132704,103952
132767,103968
132816,103954
132779,103960
132729,103925
132691,103932
132749,103976
132732,103972
132712,103923
132733,103940
132681,103910
132687,103942
132742,103984
132709,103941
132738,103937
132685,103927
132737,103947
132789,103970
132774,103936
132789,103977
132731,103963
132806,103957
132849,104019
132863,103975
132872,103989
132868,104015
132948,104003
132962,104045
132957,104017
132975,104039
132957,104023
133046,104070
133050,104091
133073,104048
133063,104050
133083,104085
133152,104126
133186,104100
133222,104126
133155,104089
133177,104108
133299,104153
133306,104158
133366,104190
133257,104143
133305,104147
133388,104212
133507,104238
133464,104228
133420,104185
133449,104179
133570,104286
133580,104235
133568,104253
133541,104238
133543,104231
133698,104295
133692,104327
133705,104272
133682,104286
133716,104282
133814,104364
133829,104355
