11111,11111
0,0
78754,79217
93163,94772
93156,94760
93171,94745
93185,94749
93184,94787
93167,94709
93128,94778
93165,94728
93177,94713
93141,94759
93176,94732
93138,94749
93138,94737
93152,94723
93164,94765
93140,94703
93120,94766
93139,94738
93166,94748
93179,94794
93177,94729
93180,94784
93212,94751
93251,94786
93267,94789
93276,94806
93266,94790
93328,94838
93344,94814
93366,94857
93408,94834
93405,94880
93444,94887
93509,94884
93491,94922
93512,94908
93523,94961
93554,94917
93612,94960
93637,95014
93638,94945
93707,94983
93686,94971
93743,94993
93786,95042
93797,95005
93788,95039
93847,95047
93855,95094
93876,95102
93923,95084
93900,95109
93922,95069
94001,95132
93993,95123
93996,95132
94009,95162
94058,95104
94059,95157
94096,95187
94107,95217
94154,95176
94161,95201
94185,95190
94262,95252
94271,95264
94314,95265
94339,95233
94343,95240
94417,95311
94401,95287
94466,95334
94485,95338
94504,95337
94570,95359
94603,95353
94581,95393
94615,95367
94641,95437
94651,95414
94669,95387
94676,95429
94713,95402
94741,95446
94728,95445
94731,95413
94739,95459
94755,95397
94756,95472
94778,95439
94751,95478
94776,95454
94796,95445
94816,95488
94844,95444
94893,95473
94877,95452
94855,95500
94898,95485
94882,95476
94923,95506
94848,95477
94894,95474
94873,95488
94891,95506
94878,95478
94844,95437
94860,95464
94890,95506
94882,95471
94910,95460
94869,95483
94896,95443
94912,95467
94961,95499
94956,95502
94927,95469
94967,95510
94976,95483
94986,95525
95006,95527
94982,95512
94958,95500
93722,94943
93574,94877
93586,94928
94042,95119
94066,95120
94093,95132
94303,95256
94265,95227
94275,95242
94277,95229
94252,95180
94261,95224
94312,95232
94314,95195
94324,95273
94333,95218
94380,95252
94390,95278
94420,95264
94426,95293
94463,95274
94470,95293
94476,95318
94494,95321
94488,95317
94516,95337
94522,95327
94525,95354
94538,95323
94536,95354
94502,95357
94559,95347
94561,95368
94607,95375
94560,95333
94600,95329
94593,95379
94642,95338
94610,95364
94634,95357
94670,95373
94674,95419
94693,95384
94679,95401
94727,95400
94713,95378
94759,95470
94757,95440
94750,95439
94805,95430
94808,95440
94823,95468
94837,95480
94821,95462
94860,95463
94858,95439
94880,95484
94887,95470
94872,95458
94903,95491
94864,95499
94898,95503
94937,95517
94943,95538
94930,95456
94951,95525
94993,95510
94990,95537
94995,95506
94980,95546
95028,95527
95033,95520
95052,95527
95052,95569
95057,95537
95076,95564
95106,95548
95097,95575
95132,95587
95085,95558
95123,95591
95114,95577
95157,95593
95143,95587
95111,95590
95175,95631
95182,95595
95193,95632
95197,95578
95204,95606
95223,95645
95217,95622
95277,95652
95267,95620
95244,95621
95264,95657
95310,95638
95304,95671
95302,95655
95321,95665
95334,95681
95396,95693
95369,95704
95402,95715
95428,95701
95403,95755
95489,95711
95478,95745
95475,95735
95497,95735
95504,95727
95562,95772
95509,95716
95510,95750
95453,95722
95440,95720
95377,95655
95353,95678
95256,95601
95147,95578
95058,95521
93846,95005
93809,94967
93801,94962
93799,94972
93871,95032
93829,94983
93812,95007
93854,95009
93889,95017
93923,95003
93915,95064
93985,95076
93930,95037
94020,95085
94034,95096
94091,95129
94105,95102
94106,95134
94181,95127
94191,95160
94240,95191
94232,95214
94234,95173
94268,95208
94355,95238
94339,95235
94385,95260
94414,95281
94461,95285
94513,95335
94551,95329
94572,95344
94578,95352
94649,95378
94704,95393
94680,95405
94758,95459
94729,95423
94763,95475
94826,95487
94878,95486
94845,95452
94855,95506
94860,95514
94877,95500
94928,95511
94874,95499
94903,95517
94884,95466
94956,95534
94930,95512
94946,95481
94900,95530
94971,95515
94941,95525
94936,95525
94945,95544
94943,95496
94934,95512
94961,95547
94977,95492
94952,95510
94957,95538
94987,95521
94971,95544
94937,95538
94973,95504
94924,95525
94985,95505
94963,95531
94987,95510
94948,95506
94982,95527
94967,95516
95004,95539
94999,95539
94978,95546
94981,95507
94958,95509
94996,95569
95017,95554
95003,95537
94978,95516
94997,95552
95036,95545
94999,95531
95002,95538
95008,95524
94980,95507
95039,95586
95018,95509
95027,95547
94973,95520
94995,95512
95075,95576
95028,95506
95024,95572
95021,95540
95050,95565
95040,95586
95072,95569
95055,95522
95104,95584
95099,95599
95083,95590
95099,95582
95120,95576
95062,95528
95092,95587
95121,95556
95083,95621
95087,95588
95120,95561
95158,95614
95107,95562
95105,95534
95094,95550
95108,95562
95181,95589
95129,95575
95147,95594
95132,95579
95155,95585
95136,95587
95194,95587
95163,95574
95168,95632
95207,95559
95200,95576
95200,95649
95254,95637
95236,95615
95219,95613
95238,95627
95283,95658
95310,95651
95281,95659
95286,95630
95321,95648
95328,95668
95340,95646
95382,95672
95336,95602
95358,95686
95396,95660
95401,95665
95416,95704
95411,95692
95408,95670
95478,95724
95441,95675
95468,95694
95416,95681
95455,95734
95479,95684
95475,95725
95502,95722
95484,95703
95507,95725
95526,95723
95549,95784
95604,95755
95558,95768
95627,95774
95640,95774
95635,95768
95697,95779
95640,95813
95719,95841
95746,95864
95760,95844
95739,95843
95792,95841
95805,95841
95819,95895
95818,95860
95768,95834
95748,95842
95730,95808
95678,95813
95636,95767
95555,95724
95415,95692
95395,95698
95324,95602
95182,95582
95136,95530
95029,95485
94973,95439
94878,95455
94810,95366
94706,95333
94609,95294
94556,95287
94521,95274
94444,95257
94396,95172
94296,95188
94318,95169
94260,95147
94227,95132
94183,95102
94148,95113
94185,95129
94150,95101
94161,95085
94156,95093
94149,95093
94130,95099
94142,95146
94140,95098
94169,95108
94150,95131
94228,95101
94192,95173
94250,95144
94239,95155
94225,95162
94331,95203
94340,95173
94340,95202
94419,95226
94377,95225
94447,95248
94467,95266
94486,95266
94478,95245
94540,95303
94585,95309
94585,95324
94592,95323
94626,95342
94648,95336
94719,95375
94793,95438
94809,95426
94881,95464
94890,95476
94999,95536
95063,95565
95120,95595
95188,95622
95222,95641
95296,95697
95377,95705
95378,95722
95415,95744
95420,95744
95451,95746
95478,95763
95475,95759
95495,95771
95479,95761
95554,95780
95513,95782
95530,95814
95555,95768
95485,95784
95542,95793
95585,95772
95533,95748
95540,95768
95531,95752
95569,95814
95561,95779
95569,95752
95537,95776
95587,95757
95556,95820
95607,95774
95596,95779
95557,95805
95566,95748
95603,95833
95598,95767
95590,95808
95607,95786
95601,95820
95640,95790
95614,95832
95637,95842
95627,95834
95625,95801
95635,95822
95669,95853
95677,95821
95653,95836
95627,95845
95687,95833
95666,95856
95679,95854
95709,95841
95692,95815
95728,95895
95707,95862
95705,95872
95714,95869
95685,95868
95684,95865
95738,95920
95710,95884
95680,95877
95646,95815
95676,95892
95632,95833
95627,95841
95638,95844
95587,95815
95572,95831
95535,95789
95496,95809
95507,95770
95469,95789
95449,95759
95438,95787
95439,95731
95396,95724
95390,95706
95388,95780
95411,95718
95401,95703
95374,95719
95373,95700
95432,95742
95435,95778
95436,95739
95429,95745
95402,95728
95462,95756
95477,95761
95500,95773
95478,95758
95505,95763
95548,95782
95554,95803
95544,95782
95537,95796
95517,95771
95588,95819
95573,95807
95571,95833
95572,95795
95555,95769
95568,95780
95575,95815
95573,95793
95599,95806
95558,95767
95578,95794
95605,95829
95573,95793
95566,95770
95590,95817
95590,95783
95628,95778
95593,95821
95623,95816
95632,95800
95641,95802
95655,95851
95669,95843
95670,95809
95639,95793
95676,95874
95717,95832
95715,95826
95710,95849
95725,95814
95697,95852
95759,95838
95759,95825
95735,95831
95714,95827
95784,95855
95741,95826
95762,95867
95756,95855
95734,95841
95817,95871
95824,95858
95806,95877
95835,95876
95820,95864
95886,95909
95924,95905
95908,95910
95891,95888
95941,95916
95925,95901
95963,95970
95965,95953
95970,95933
95980,95936
95988,95986
96029,95950
96010,95941
96027,95953
95943,95879
95972,95952
95932,95866
95881,95858
95748,95827
95649,95732
95632,95775
95535,95670
95438,95642
95327,95578
95190,95530
95126,95512
95017,95471
94942,95420
94832,95401
94768,95356
94684,95331
94613,95314
94519,95203
94497,95238
94385,95144
94338,95156
94262,95098
94214,95099
94161,95107
94105,95071
94097,95043
94033,95045
94016,94980
93970,94974
93948,95012
94000,95020
93993,95035
93965,95012
93980,94964
93976,95029
93994,95012
93992,95030
94034,94996
94014,95057
94043,95017
94090,95040
94112,95081
94130,95032
94101,95109
94160,95061
94167,95093
94185,95129
94181,95118
94258,95101
94194,95124
94242,95101
94260,95138
94272,95165
94274,95156
94290,95107
94287,95168
94341,95179
94319,95138
94301,95144
94339,95170
94396,95165
94376,95184
94404,95167
94398,95203
94406,95175
94447,95221
94483,95223
94439,95241
94497,95225
94466,95196
94500,95242
94477,95234
94510,95240
94459,95182
94492,95257
94492,95225
94528,95228
94516,95264
94509,95245
94489,95214
94493,95266
94536,95249
94539,95255
94533,95242
94496,95225
94560,95238
94528,95226
94535,95248
94482,95256
94491,95224
94536,95279
94556,95226
94524,95281
94534,95230
94526,95218
94537,95245
94532,95220
94567,95282
94535,95203
94549,95270
94582,95283
94552,95269
94585,95279
94591,95239
94560,95280
94648,95288
94687,95304
94643,95293
94659,95280
94669,95295
94676,95357
94722,95353
94687,95323
94769,95349
94737,95321
94791,95380
94791,95340
94793,95383
94837,95374
94793,95399
94882,95393
94889,95373
94904,95438
94892,95396
94931,95394
94955,95423
94985,95450
94991,95425
94942,95495
94980,95441
95039,95492
95029,95459
95060,95478
95042,95469
95085,95498
95091,95487
95119,95481
95139,95509
95140,95495
95144,95547
95178,95496
95206,95545
95206,95547
95192,95537
95225,95523
95218,95555
95271,95579
95260,95554
95259,95560
95253,95555
95228,95597
95300,95571
95272,95551
95310,95571
95301,95565
95308,95600
95341,95583
95318,95600
95278,95562
95301,95555
95303,95581
95347,95564
95292,95622
95324,95542
95264,95561
95321,95566
95313,95603
95338,95585
95308,95544
95324,95610
95322,95552
95341,95577
95327,95593
95317,95562
95318,95605
95327,95571
95315,95587
95301,95579
95332,95597
95289,95590
95380,95621
95342,95554
95307,95616
95279,95588
95273,95570
95316,95579
95339,95586
95270,95583
95311,95595
95271,95558
95295,95598
95287,95572
95268,95556
95253,95580
95281,95519
95328,95566
95309,95535
95276,95548
95306,95563
95285,95598
95317,95542
95341,95605
95351,95602
95388,95614
95365,95568
95387,95620
95430,95618
95419,95600
95456,95641
95414,95624
95485,95645
95447,95646
95493,95626
95468,95633
95506,95632
95508,95672
95519,95687
95531,95628
95481,95655
95519,95632
95566,95668
95573,95679
95624,95718
95615,95644
95596,95700
95647,95721
95683,95700
95670,95719
95725,95714
95690,95751
95744,95740
95750,95756
95748,95748
95756,95750
95767,95741
95804,95809
95840,95775
95845,95784
95801,95771
95829,95788
95825,95793
95854,95827
95820,95764
95821,95768
95734,95729
95721,95695
95636,95691
95541,95620
95409,95593
95351,95546
95253,95504
95163,95453
95026,95416
94967,95389
94843,95288
94778,95306
94657,95262
94619,95199
94518,95137
94432,95141
94376,95067
94295,95054
94184,95054
94158,95015
94054,94976
94053,94922
94002,94943
93962,94923
93923,94858
93865,94866
93885,94833
93833,94875
93860,94835
93816,94837
93808,94831
93800,94873
93812,94844
93827,94900
93833,94861
93817,94867
93878,94895
93884,94905
93875,94906
93867,94881
93924,94924
93917,94893
93953,94914
93991,94932
93933,94913
94027,94947
94026,94958
94034,94966
94056,94976
94051,94978
94020,94963
94126,95026
94121,94980
94133,94989
94100,94996
94117,94992
94132,94995
94137,94999
94142,95007
94159,95021
94144,95012
94199,95033
94180,95045
94210,95050
94193,95055
94258,95057
94271,95081
94294,95087
94278,95067
94296,95069
94289,95091
94343,95098
94342,95083
94320,95109
94333,95084
94326,95101
94366,95102
94325,95108
94354,95095
94340,95092
94353,95076
94330,95080
94325,95099
94318,95082
94279,95073
94315,95076
94323,95070
94331,95093
94314,95080
94273,95062
94273,95069
94304,95082
94305,95068
94266,95067
94286,95082
94270,95082
94283,95093
94265,95041
94297,95109
94306,95064
94290,95084
94317,95079
94352,95113
94326,95050
94314,95078
94331,95067
94393,95126
94369,95095
94375,95133
94403,95127
94391,95100
94377,95127
94434,95146
94439,95151
94449,95117
94440,95138
94470,95147
94513,95153
94489,95144
94487,95147
94532,95162
94566,95214
94587,95183
94575,95236
94624,95209
94616,95216
94636,95268
94680,95210
94659,95283
94674,95252
94707,95262
94724,95244
94784,95306
94739,95253
94747,95280
94803,95307
94846,95289
94856,95333
94861,95296
94863,95308
94848,95325
94899,95344
94918,95354
94945,95352
94935,95350
94950,95355
94967,95372
94961,95401
94995,95356
94978,95371
94995,95368
95013,95398
95057,95404
95023,95357
95038,95420
95054,95407
95124,95403
95094,95465
95136,95406
95067,95398
95124,95444
95142,95449
95159,95446
95145,95436
95127,95455
95137,95426
95166,95460
95192,95483
95165,95424
95171,95451
95193,95449
95206,95485
95250,95471
95263,95457
95249,95452
95202,95471
95253,95480
95301,95510
95281,95477
95282,95470
95289,95490
95280,95526
95334,95505
95314,95474
95346,95514
95333,95500
95406,95550
95371,95539
95349,95542
95359,95522
95420,95538
95424,95554
95436,95554
95414,95580
95452,95586
95456,95548
95493,95574
95496,95568
95472,95605
95482,95550
95485,95599
95560,95630
95546,95612
95577,95610
95514,95632
95591,95614
95589,95603
95610,95650
95604,95606
95607,95633
95654,95642
95639,95673
95711,95652
95656,95636
95691,95674
95718,95679
95725,95672
95735,95664
95743,95723
95762,95683
95794,95705
95783,95726
95836,95740
95843,95749
95859,95742
95857,95735
95908,95765
95927,95782
95973,95803
95913,95771
95984,95800
96011,95792
96016,95800
96010,95811
96026,95786
96051,95825
96032,95787
95933,95800
95911,95743
95794,95681
95727,95681
95638,95613
95489,95529
95420,95544
95271,95450
95234,95429
95131,95354
95003,95305
94942,95239
94827,95245
94744,95204
94673,95194
94621,95149
94549,95126
94424,95032
94411,95062
94350,94998
94307,95021
94243,94943
94226,94952
94146,94910
94130,94958
94100,94912
94101,94933
94084,94890
94073,94928
94076,94922
94062,94923
94093,94914
94043,94907
94037,94893
94092,94924
94049,94871
94094,94955
94090,94899
94127,94941
94158,94970
94121,94914
94174,94988
94181,94922
94177,94980
94229,95000
94220,94969
94206,95009
94239,94965
94248,94991
94298,94992
94269,95008
94314,95029
94306,95003
94307,95024
94284,95025
94325,95036
94346,95060
94330,95022
94352,95002
94360,95062
94364,95012
94350,95051
94355,95030
94354,95065
94449,95072
94376,95067
94418,95087
94419,95065
94420,95073
94431,95105
94376,95040
94387,95091
94387,95011
94355,95036
94372,95047
94358,95043
94287,95014
94275,94993
94278,95002
94246,94999
94255,94960
94212,94938
94194,94985
94209,94926
94132,94959
94173,94932
94128,94918
94071,94882
94121,94947
94122,94916
94076,94948
94066,94929
94086,94913
94090,94933
94060,94882
94062,94922
94077,94890
94025,94885
94053,94912
94080,94891
94001,94898
94017,94912
94001,94867
94032,94889
94044,94906
94007,94880
94064,94904
94029,94852
94017,94920
94074,94892
94065,94917
94057,94874
94073,94923
94140,94881
94105,94938
94108,94910
94109,94952
94140,94915
94118,94954
94171,94984
94162,94941
94176,94931
94162,94952
94184,94976
94224,94951
94222,95004
94256,94986
94231,94992
94281,95008
94267,94997
94323,95012
94302,95010
94318,95024
94336,94993
94369,95017
94372,95064
94348,95001
94404,95070
94389,95021
94421,95088
94416,95065
94394,95024
94439,95077
94462,95056
94452,95074
94452,95072
94458,95061
94423,95097
94497,95090
94480,95074
94494,95093
94495,95108
94493,95086
94514,95116
94558,95101
94521,95078
94586,95145
94582,95107
94595,95110
94627,95156
94624,95140
94609,95154
94649,95118
94677,95174
94665,95178
94694,95171
94673,95146
94702,95175
94711,95165
94694,95184
94724,95184
94705,95175
94749,95188
94767,95173
94767,95239
94768,95229
94812,95216
94748,95194
94828,95226
94800,95259
94834,95229
94820,95239
94835,95218
94856,95274
94859,95233
94878,95286
94897,95259
94865,95241
94884,95260
94908,95285
94910,95261
94908,95287
94927,95261
94983,95317
94951,95291
94971,95304
94947,95251
94977,95312
94985,95297
94972,95320
94967,95322
94977,95327
94972,95304
95020,95335
95007,95295
95000,95314
95016,95325
95042,95343
95054,95288
95016,95356
95022,95321
95027,95338
95018,95303
95050,95333
95031,95328
95091,95355
95106,95333
95042,95315
95082,95330
95137,95377
95126,95355
95158,95388
95166,95328
95215,95351
95215,95418
95270,95410
95263,95402
95222,95391
95287,95412
95314,95437
95340,95399
95253,95429
95267,95386
95203,95349
95145,95369
95093,95345
95032,95295
94873,95190
94789,95216
94734,95115
94619,95087
94520,95042
94409,94972
94312,94971
94246,94898
94099,94856
94050,94830
93950,94757
93895,94742
93816,94721
93720,94692
93662,94635
93586,94604
93535,94607
93494,94579
93423,94524
93367,94549
93320,94478
93320,94496
93281,94487
93254,94475
93208,94459
93170,94445
93168,94440
93174,94472
93165,94478
93160,94464
93149,94446
93166,94451
93192,94456
93177,94451
93170,94445
93161,94470
93215,94471
93176,94489
93215,94489
93191,94478
93199,94467
93228,94482
93219,94480
93215,94478
93240,94489
93215,94474
93225,94461
93232,94481
93223,94463
93201,94506
93230,94438
93238,94471
93229,94482
93225,94463
93254,94506
93218,94420
93202,94500
93276,94509
93268,94521
93255,94469
93228,94521
93301,94536
93301,94501
93323,94502
93331,94514
93291,94522
93332,94563
93359,94572
93319,94504
93325,94533
93286,94535
93325,94521
93302,94554
93322,94511
93294,94502
93296,94515
93300,94548
93322,94498
93269,94466
93293,94494
93230,94464
93256,94489
93259,94495
93266,94472
93241,94499
93239,94488
93229,94454
93245,94489
93215,94461
93262,94462
93186,94462
93229,94473
93248,94501
93244,94470
93245,94521
93244,94471
93229,94478
93272,94499
93238,94482
93279,94485
93236,94472
93256,94477
93328,94534
93315,94476
93268,94530
93264,94512
93319,94518
93339,94533
93323,94503
93357,94562
93347,94496
93404,94567
93420,94581
93461,94542
93459,94572
93433,94566
93449,94582
93507,94616
93509,94587
93506,94619
93541,94611
93565,94622
93615,94675
93607,94672
93611,94651
93629,94645
93621,94667
93688,94682
93654,94670
93652,94687
93678,94676
93728,94739
93723,94683
93727,94741
93810,94703
93763,94732
93787,94750
93823,94755
93841,94763
93853,94779
93838,94752
93879,94773
93925,94809
93898,94743
93934,94791
93888,94742
93947,94836
93949,94801
93961,94806
93992,94832
93945,94772
93978,94828
94019,94818
94000,94791
94000,94810
93993,94837
94031,94848
94072,94838
94028,94825
94060,94841
94069,94833
94087,94820
94126,94881
94107,94850
94103,94870
94081,94881
94158,94889
94139,94876
94158,94872
94182,94919
94187,94871
94183,94911
94212,94930
94180,94886
94229,94928
94230,94876
94222,94929
94246,94926
94234,94906
94269,94968
94239,94895
94238,94958
94278,94939
94283,94953
94253,94964
94273,94967
94346,94952
94306,95000
94356,94980
94360,94979
94369,94971
94379,94990
94444,94992
94379,95038
94426,94993
94430,94979
94481,95024
94472,95010
94490,95067
94477,95001
94510,95073
94539,95061
94555,95077
94534,95052
94557,95078
94548,95037
94576,95089
94564,95081
94591,95085
94624,95111
94611,95077
94594,95069
94634,95122
94651,95107
94659,95116
94611,95100
94674,95115
94739,95142
94719,95114
94727,95089
94698,95173
94771,95161
94829,95199
94805,95182
94858,95203
94879,95183
94897,95218
94934,95244
94909,95213
94936,95250
94948,95233
94939,95249
94993,95266
95024,95291
94986,95240
94963,95281
95012,95278
95014,95275
95022,95240
95008,95267
94941,95238
94928,95230
94915,95222
94820,95173
94772,95138
94691,95107
94570,95029
94476,95015
94382,94936
94293,94861
94147,94803
94106,94807
93993,94720
93898,94747
93812,94658
93737,94589
93638,94603
93567,94534
93479,94548
93413,94464
93319,94464
93275,94441
93238,94445
93168,94362
93114,94366
93040,94311
93036,94350
93007,94309
92958,94309
92972,94255
92897,94254
92933,94314
92904,94280
92898,94275
92873,94291
92889,94244
92891,94307
92921,94304
92886,94256
92910,94316
92887,94267
92974,94348
92961,94316
92938,94293
92970,94330
92953,94338
93033,94358
93026,94370
93006,94380
93025,94353
93060,94370
93050,94391
93070,94396
93089,94395
93049,94352
93074,94398
93103,94383
93130,94401
93053,94386
93126,94408
93096,94371
93121,94451
93162,94415
93152,94417
93162,94434
93142,94410
93166,94464
93258,94490
93232,94463
93220,94471
93228,94464
93303,94506
93284,94457
93253,94538
93246,94476
93253,94502
93297,94497
93314,94481
93281,94473
93288,94496
93262,94470
93273,94482
93307,94489
93273,94501
93286,94464
93233,94422
93274,94457
93314,94505
93253,94455
93260,94494
93246,94442
93212,94503
93215,94457
93221,94442
93201,94463
93216,94424
93195,94476
93214,94469
93177,94441
93190,94425
93164,94413
93171,94465
93186,94472
93158,94393
93193,94431
93140,94399
93190,94439
93215,94429
93203,94453
93184,94409
93212,94448
93223,94473
93257,94485
93281,94440
93238,94480
93283,94483
93299,94471
93312,94481
93335,94542
93337,94471
93314,94497
93390,94536
93397,94554
93414,94544
93409,94531
93415,94555
93475,94543
93464,94578
93497,94566
93462,94558
93490,94566
93532,94589
93554,94582
93596,94643
93611,94640
93627,94614
93657,94659
93654,94634
93683,94674
93646,94624
93650,94656
93698,94681
93703,94645
93749,94702
93710,94658
93710,94703
93749,94695
93783,94696
93754,94729
93795,94704
93787,94700
93813,94722
93857,94752
93850,94720
93817,94719
93896,94760
93879,94729
93871,94808
93892,94789
93895,94729
93914,94754
93941,94767
93944,94790
93991,94772
93989,94781
93998,94806
93998,94799
94015,94784
94001,94831
94048,94802
94033,94809
94022,94823
94090,94852
94043,94786
94040,94850
94032,94806
94094,94834
94088,94852
94100,94849
94104,94800
94079,94835
94151,94851
94149,94892
94153,94854
94133,94814
94166,94876
94160,94854
94158,94895
94203,94872
94165,94884
94148,94878
94209,94904
94210,94860
94217,94899
94201,94872
94210,94886
94201,94906
94205,94920
94257,94890
94207,94887
94245,94902
94268,94926
94283,94935
94267,94924
94274,94896
94262,94921
94313,94923
94330,94949
94327,94949
94329,94941
94336,94914
94368,94975
94371,94972
94378,94942
94356,94962
94385,94967
94418,94981
94416,94975
94442,94980
94389,94982
94439,94982
94447,94999
94487,95014
94465,95020
94486,94997
94490,95026
94528,95037
94546,95041
94547,95054
94566,95058
94572,95052
94604,95062
94597,95104
94607,95034
94580,95074
94606,95075
94626,95080
94628,95114
94665,95076
94618,95078
94655,95075
94635,95092
94611,95062
94629,95060
94527,94981
94473,94989
94385,94940
94323,94926
94221,94834
94081,94788
93994,94761
93907,94729
93816,94658
93726,94614
93617,94534
93518,94532
93466,94480
93345,94458
93318,94411
93180,94367
93057,94321
93003,94317
92962,94282
92841,94242
92846,94251
92730,94196
92674,94173
92668,94175
92580,94098
92547,94118
92522,94097
92514,94088
92497,94114
92485,94086
92459,94037
92472,94056
92452,94087
92483,94112
92488,94124
92463,94036
92481,94103
92481,94091
92529,94127
92466,94117
92478,94106
92489,94099
92524,94137
92563,94149
92524,94143
92539,94145
92546,94124
92601,94127
92572,94203
92600,94124
92543,94151
92577,94149
92612,94161
92579,94131
92623,94186
92627,94129
92593,94154
92640,94178
92635,94184
92647,94196
92652,94165
92660,94175
92709,94231
92703,94193
92700,94255
92726,94235
92710,94241
92780,94248
92798,94296
92770,94264
92806,94282
92814,94265
92827,94318
92855,94268
92805,94306
92803,94288
92810,94276
92850,94290
92847,94300
92811,94249
92784,94245
92811,94271
92806,94265
92836,94296
92837,94295
92807,94231
92833,94290
92843,94265
92827,94288
92826,94246
92829,94268
92792,94278
92866,94303
92843,94277
92837,94283
92805,94264
92813,94298
92852,94275
92816,94267
92843,94289
92817,94239
92816,94267
92807,94295
92839,94262
92806,94293
92785,94278
92834,94299
92842,94283
92836,94289
92808,94301
92851,94292
92826,94253
92866,94294
92893,94321
92866,94275
92894,94342
92942,94302
92977,94351
92998,94357
93016,94387
93023,94334
93055,94379
93098,94370
93123,94419
93091,94394
93072,94390
93158,94405
93152,94412
93141,94469
93162,94438
93153,94432
93178,94470
93231,94458
93201,94484
93227,94443
93250,94466
93242,94511
93297,94509
93290,94492
93302,94484
93318,94510
93336,94520
93370,94476
93380,94542
93348,94505
93376,94536
93347,94498
93366,94534
93381,94527
93402,94543
93418,94543
93380,94553
93449,94580
93432,94562
93454,94585
93412,94536
93447,94566
93480,94551
93467,94581
93451,94549
93415,94573
93477,94587
93498,94602
93509,94550
93470,94592
93479,94570
93489,94566
93482,94582
93537,94583
93518,94558
93528,94598
93532,94591
93539,94597
93560,94631
93588,94577
93531,94569
93596,94624
93579,94606
93621,94628
93605,94586
93600,94601
93597,94606
93615,94675
93650,94640
93641,94619
93609,94600
93657,94663
93682,94640
93640,94643
93642,94671
93637,94647
93669,94658
93723,94669
93670,94652
93698,94690
93649,94636
93692,94655
93716,94689
93700,94645
93687,94684
93710,94663
93744,94694
93743,94684
93727,94687
93797,94680
93764,94662
93774,94713
93851,94729
93812,94717
93794,94695
93791,94729
93825,94694
93834,94704
93885,94750
93876,94747
93847,94731
93873,94758
93918,94780
93921,94738
93924,94766
93931,94771
93947,94778
93995,94817
93995,94764
93971,94830
93996,94802
94017,94824
94062,94793
94020,94851
94048,94841
94045,94824
94079,94813
94115,94849
94123,94849
94111,94825
94119,94888
94151,94857
94174,94881
94165,94885
94182,94886
94152,94859
94209,94876
94172,94853
94153,94870
94109,94831
94074,94776
93963,94758
93908,94763
93830,94660
93751,94668
93612,94591
93522,94522
93420,94516
93350,94412
93247,94368
93130,94326
93062,94318
92965,94292
92847,94243
92784,94220
92665,94130
92656,94127
92577,94071
92487,94069
92426,94005
92336,94006
92287,93948
92213,93958
92202,93959
92125,93929
92104,93855
92042,93896
92079,93933
92039,93891
91968,93840
91976,93868
91967,93826
91974,93891
92009,93876
91984,93889
91948,93864
91961,93876
91955,93885
91992,93894
91961,93828
91931,93873
91996,93888
92008,93877
92010,93891
92023,93879
91998,93914
92047,93882
92073,93909
92065,93942
92118,93970
92066,93930
92110,93954
92127,93958
92144,93948
92118,93959
92182,93973
92148,93958
92156,93989
92180,93989
92207,94011
92182,93986
92216,94001
92254,94000
92233,94029
92250,94064
92228,94027
92247,94048
92331,94022
92287,94085
92319,94031
92325,94049
92328,94067
92359,94043
92342,94093
92378,94105
92354,94044
92328,94071
92385,94095
92369,94039
92347,94091
92336,94051
92367,94074
92353,94050
92364,94068
92310,94041
92304,94031
92357,94083
92348,94067
92320,94061
92255,94051
92296,94020
92263,94020
92331,94061
92269,94020
92263,94072
92234,94010
92266,94022
92256,94058
92251,94001
92255,94029
92254,94031
92307,94022
92264,94079
92311,94020
92280,94017
92295,94044
92312,94046
92343,94049
92307,94087
92355,94101
92349,94012
92370,94095
92389,94102
92414,94105
92424,94100
92405,94120
92467,94124
92490,94130
92514,94137
92526,94124
92522,94157
92530,94211
92599,94162
92588,94215
92642,94211
92643,94210
92661,94208
92680,94268
92732,94223
92709,94235
92718,94238
92767,94228
92756,94284
92806,94261
92785,94256
92771,94288
92839,94301
92885,94315
92847,94297
92850,94343
92888,94292
92908,94313
92946,94342
92939,94359
92965,94371
92943,94330
92989,94401
93033,94350
93041,94353
93051,94397
93041,94374
93061,94404
93096,94393
93082,94426
93097,94420
93091,94408
93117,94425
93155,94441
93152,94434
93157,94448
93128,94428
93190,94452
93189,94449
93215,94432
93182,94455
93174,94435
93218,94459
93235,94450
93241,94473
93220,94465
93210,94434
93225,94452
93289,94487
93255,94485
93247,94458
93274,94490
93278,94459
93307,94478
93280,94494
93320,94506
93293,94468
93344,94526
93336,94521
93362,94556
93347,94510
93354,94500
93359,94528
93394,94538
93421,94520
93382,94560
93374,94506
93354,94522
93432,94548
93352,94542
93404,94518
93418,94558
93435,94498
93437,94551
93446,94550
93431,94579
93440,94533
93482,94564
93467,94582
93503,94581
93521,94547
93455,94597
93541,94592
93515,94580
93552,94606
93553,94559
93538,94587
93556,94602
93579,94618
93571,94596
93648,94620
93597,94640
93629,94640
93639,94651
93643,94650
93700,94690
93671,94616
93681,94688
93742,94675
93736,94671
93781,94715
93773,94716
93804,94687
93825,94718
93829,94720
93809,94730
93848,94700
93843,94727
93871,94751
93878,94743
93844,94749
93859,94737
93890,94756
93942,94786
93913,94762
93910,94747
93926,94767
93929,94777
93954,94784
93968,94798
93966,94787
93914,94741
93915,94765
93874,94739
93841,94705
93757,94655
93675,94616
93590,94577
93502,94545
93393,94482
93311,94437
93206,94386
93109,94356
93011,94318
92923,94259
92833,94191
92727,94136
92655,94128
92556,94102
92496,94047
92425,94009
92287,93945
92255,93973
92199,93940
92112,93907
92074,93873
91966,93820
91960,93869
91953,93823
91869,93795
91831,93791
91794,93783
91785,93755
91755,93764
91754,93751
91754,93764
91697,93722
91699,93741
91737,93755
91703,93790
91724,93724
91727,93771
91751,93756
91730,93776
91754,93802
91762,93807
91763,93779
91778,93796
91839,93832
91823,93818
91871,93845
91817,93811
91862,93881
91927,93896
91922,93886
91893,93853
91964,93896
91988,93886
91956,93915
91949,93902
91987,93918
91969,93856
91987,93900
92025,93935
92014,93914
92027,93945
92026,93921
92093,93952
92091,93975
92076,93956
92130,93986
92154,93964
92176,93972
92178,94001
92169,94008
92226,94027
92176,94026
92190,94036
92241,94028
92208,93979
92253,94046
92198,93963
92226,94037
92225,94000
92246,94016
92194,93993
92244,94030
92243,94008
92227,94031
92227,93998
92225,94051
92202,93967
92204,93990
92215,94021
92214,94032
92205,93998
92163,93958
92182,94000
92208,93997
92174,94007
92165,94024
92185,94013
92212,94016
92171,94006
92194,93981
92201,94021
92173,93988
92237,94028
92242,94034
92241,94006
92264,94075
92260,93992
92290,94051
92287,94078
92282,94041
92348,94092
92324,94054
92380,94096
92393,94119
92368,94099
92434,94139
92433,94136
92467,94143
92506,94152
92490,94152
92548,94175
92518,94135
92558,94187
92588,94205
92578,94190
92618,94225
92627,94190
92662,94215
92684,94245
92697,94235
92665,94229
92713,94221
92768,94261
92768,94263
92764,94251
92792,94318
92817,94266
92819,94307
92850,94327
92852,94307
92825,94341
92858,94281
92874,94309
92907,94364
92968,94362
92945,94358
92941,94352
92964,94343
93008,94402
93033,94384
93044,94406
93029,94405
93040,94377
93089,94455
93111,94406
93102,94446
93087,94428
93109,94420
93161,94484
93154,94418
93129,94463
93150,94442
93160,94461
93186,94472
93154,94435
93154,94471
93178,94421
93190,94456
93183,94448
93180,94473
93195,94462
93170,94440
93236,94477
93252,94491
93234,94447
93252,94475
93197,94449
93283,94472
93257,94503
93284,94520
93300,94511
93276,94487
93363,94525
93338,94490
93323,94531
93352,94531
93363,94532
93358,94531
93407,94564
93382,94549
93422,94524
93403,94543
93427,94571
93429,94573
93430,94533
93425,94574
93444,94552
93464,94574
93462,94576
93463,94531
93492,94604
93481,94553
93496,94592
93491,94593
93529,94616
93540,94590
93498,94611
93561,94595
93568,94637
93599,94642
93569,94640
93566,94621
93612,94677
93643,94660
93643,94636
93654,94679
93679,94697
93675,94678
93708,94698
93742,94690
93718,94693
93757,94708
93759,94718
93821,94733
93793,94704
93857,94761
93814,94701
93889,94748
93893,94790
93891,94799
93929,94778
93870,94757
93946,94833
93947,94761
93925,94775
93886,94786
93841,94727
93831,94730
93758,94688
93662,94643
93581,94601
93454,94507
93404,94540
93308,94438
93174,94414
93098,94387
92988,94301
92898,94310
92844,94242
92704,94168
92655,94189
92557,94100
92478,94105
92405,94052
92342,94023
92228,93975
92147,93981
92146,93945
92083,93918
92009,93849
91986,93894
91933,93841
91880,93840
91868,93826
91827,93805
91840,93830
91810,93768
91784,93827
91813,93833
91778,93794
91768,93809
91751,93803
91760,93783
91789,93843
91807,93815
91835,93841
91783,93818
91812,93812
91821,93866
91869,93866
91822,93833
91827,93842
91870,93861
91875,93910
91856,93857
91922,93908
91920,93893
91898,93890
91911,93892
91927,93900
91911,93924
91932,93929
91952,93901
91962,93933
91965,93914
91983,93923
91984,93900
92002,93981
92029,93952
92007,93974
92065,93978
92069,93986
92088,93965
92105,94033
92136,93996
92147,94020
92119,94005
92201,94065
92192,94006
92170,94034
92192,94047
92149,93984
92169,94046
92209,94057
92180,94033
92200,94037
92162,94005
92152,94043
92202,94038
92153,94000
92155,94015
92151,94020
92150,93996
92140,94034
92149,94009
92175,93994
92122,93994
92184,93996
92164,94023
92154,93993
92149,93994
92126,94018
92200,94004
92162,94016
92155,94035
92132,94008
92137,93990
92129,94032
92169,94028
92129,94019
92173,94020
92144,94005
92185,94029
92190,94044
92200,94049
92188,94033
92194,94038
92203,94043
92231,94067
92220,94051
92268,94064
92253,94063
92316,94107
92328,94099
92324,94107
92320,94094
92345,94122
92372,94118
92375,94149
92393,94147
92379,94139
92408,94130
92414,94153
92428,94156
92463,94153
92475,94197
92458,94157
92477,94189
92503,94173
92528,94216
92514,94160
92532,94156
92551,94215
92563,94203
92576,94230
92576,94196
92574,94222
92601,94217
92603,94258
92634,94238
92619,94206
92641,94239
92662,94266
92709,94250
92665,94313
92716,94242
92686,94262
92724,94273
92773,94325
92747,94288
92725,94306
92732,94319
92786,94331
92818,94330
92819,94309
92833,94305
92835,94307
92845,94342
92864,94354
92822,94327
92854,94352
92841,94326
92855,94357
92924,94348
92851,94375
92882,94348
92861,94330
92856,94353
92901,94320
92887,94378
92875,94318
92866,94322
92852,94334
92883,94356
92855,94332
92872,94344
92864,94284
92837,94370
92892,94337
92895,94335
92879,94325
92833,94341
92907,94323
92883,94331
92870,94331
92910,94326
92831,94340
92932,94347
92907,94336
92898,94355
92916,94339
92911,94369
92964,94350
92936,94329
92953,94355
92938,94366
92941,94363
92988,94408
93011,94390
93017,94372
92985,94375
93061,94413
93063,94407
93049,94400
93085,94409
93051,94417
93081,94430
93103,94428
93152,94453
93115,94470
93192,94431
93123,94454
93204,94478
93204,94437
93217,94488
93204,94476
93219,94469
93266,94545
93313,94522
93278,94511
93319,94520
93350,94513
93350,94555
93383,94560
93374,94536
93423,94603
93405,94567
93494,94635
93500,94591
93451,94616
93501,94611
93445,94598
93473,94621
93483,94605
93430,94568
93371,94542
93254,94486
93260,94492
93168,94412
93047,94378
92978,94306
92815,94293
92771,94215
92639,94150
92539,94120
92431,94053
92310,94044
92274,93993
92151,93930
92088,93935
91970,93873
91868,93818
91772,93823
91738,93740
91610,93747
91598,93695
91498,93646
91459,93647
91403,93590
91373,93633
91319,93583
91239,93554
91210,93571
91204,93561
91192,93560
91179,93556
91122,93522
91161,93562
91149,93523
91165,93555
91154,93553
91137,93565
91194,93528
91153,93571
91189,93544
91177,93560
91183,93595
91264,93598
91258,93567
91294,93630
91298,93617
91309,93625
91336,93646
91323,93649
91370,93688
91388,93624
91386,93667
91399,93669
91403,93674
91397,93702
91463,93698
91414,93647
91447,93695
91485,93710
91498,93706
91502,93714
91527,93703
91543,93725
91566,93736
91575,93749
91581,93742
91611,93768
91662,93778
91652,93786
91683,93815
91684,93792
91686,93772
91693,93832
91742,93855
91730,93801
91756,93793
91749,93817
91773,93822
91793,93867
91763,93808
91762,93855
91772,93860
91826,93879
91806,93833
91811,93868
91791,93848
91787,93833
91822,93856
91823,93849
91794,93863
91801,93845
91752,93853
91820,93864
91795,93835
91805,93854
91806,93868
91796,93807
91797,93890
91839,93882
91808,93859
91836,93847
91839,93883
91872,93842
91845,93874
91903,93869
91906,93900
91885,93891
91924,93894
91924,93942
91965,93927
91926,93892
91961,93918
91988,93948
92007,93972
91992,93935
92040,93974
92027,93930
92073,93995
92044,93994
92098,94014
92146,93971
92097,94028
92182,94031
92161,94037
92182,94067
92176,93994
92202,94053
92243,94045
92244,94052
92260,94074
92264,94061
92266,94041
92296,94117
92354,94132
92346,94082
92379,94138
92364,94134
92405,94134
92421,94153
92405,94165
92462,94152
92437,94141
92463,94201
92496,94181
92491,94194
92538,94163
92503,94210
92533,94210
92534,94203
92527,94200
92514,94197
92581,94179
92561,94204
92564,94213
92557,94156
92527,94194
92537,94195
92553,94187
92525,94231
92545,94216
92500,94199
92512,94174
92548,94202
92502,94157
92506,94184
92498,94185
92490,94182
92477,94193
92495,94179
92453,94128
92475,94179
92456,94125
92457,94157
92433,94147
92445,94194
92431,94106
92417,94144
92436,94165
92431,94141
92440,94126
92378,94098
92435,94138
92408,94112
92429,94142
92403,94131
92427,94127
92393,94125
92454,94149
92433,94135
92464,94157
92432,94146
92467,94162
92467,94148
92513,94169
92486,94179
92494,94157
92494,94164
92518,94197
92535,94191
92534,94182
92530,94196
92577,94205
92598,94198
92617,94222
92601,94209
92627,94216
92620,94246
92683,94241
92662,94230
92704,94235
92688,94265
92711,94300
92750,94267
92776,94277
92790,94304
92742,94294
92801,94284
92810,94275
92821,94306
92856,94301
92822,94333
92840,94301
92852,94334
92908,94340
92887,94366
92891,94313
92868,94376
92927,94365
92919,94374
92909,94361
92934,94398
92956,94358
92952,94354
92962,94392
92955,94411
92992,94365
92979,94375
93007,94401
93030,94375
93029,94410
92982,94413
93019,94416
93032,94404
93034,94433
93057,94398
93021,94401
93053,94430
93055,94395
93089,94449
93077,94438
93034,94419
93094,94470
93122,94445
93099,94441
93108,94442
93108,94469
93150,94458
93147,94460
93177,94487
93150,94497
93206,94483
93161,94482
93176,94505
93172,94461
93094,94433
93067,94396
93008,94354
92923,94309
92820,94300
92728,94263
92620,94182
92476,94133
92432,94122
92297,94040
92179,94001
92058,93890
91918,93908
91879,93850
91768,93805
91690,93705
91579,93720
91512,93626
91411,93619
91339,93597
91260,93552
91176,93479
91137,93494
91044,93485
91036,93458
90980,93460
90900,93419
90904,93401
90863,93384
90830,93389
90811,93359
90749,93360
90780,93387
90792,93391
90754,93370
90764,93370
90716,93368
90763,93404
90785,93372
90777,93408
90760,93374
90787,93388
90783,93392
90830,93408
90858,93417
90866,93453
90890,93432
90905,93438
90924,93456
90917,93464
90962,93471
90950,93464
91006,93469
90996,93492
91033,93504
91036,93530
91049,93512
91071,93526
91104,93539
91117,93546
91102,93533
91097,93542
91119,93543
91140,93574
91180,93564
91167,93559
91178,93606
91191,93572
91242,93591
91247,93614
91272,93626
91241,93635
91292,93638
91305,93625
91324,93652
91305,93638
91288,93630
91360,93650
91323,93636
91360,93650
91340,93679
91332,93644
91354,93688
91385,93649
91338,93679
91372,93683
91349,93627
91314,93659
91370,93651
91352,93663
91369,93670
91357,93651
91354,93659
91408,93642
91330,93660
91343,93682
91342,93650
91367,93677
91385,93688
91394,93682
91386,93653
91354,93668
91381,93692
91437,93676
91419,93704
91451,93693
91405,93695
91443,93696
91457,93696
91449,93702
91464,93707
91490,93711
91487,93679
91526,93718
91515,93730
91581,93741
91572,93752
91618,93756
91598,93763
91642,93808
91676,93800
91634,93795
91702,93820
91716,93817
91765,93844
91776,93828
91768,93835
91767,93899
91846,93882
91862,93887
91849,93880
91909,93885
91902,93875
91963,93898
91991,93928
92007,93930
91956,93952
92038,93970
92071,93971
92093,94005
92106,94002
92111,93945
92099,94022
92150,94005
92184,94038
92180,94002
92192,94011
92223,94068
92233,94052
92270,94067
92259,94067
92286,94045
92320,94097
92320,94095
92343,94099
92357,94120
92322,94068
92351,94119
92363,94134
92401,94133
92408,94147
92381,94082
92387,94161
92445,94147
92452,94169
92458,94123
92441,94164
92485,94148
92474,94120
92510,94192
92553,94170
92514,94172
92502,94168
92547,94202
92550,94159
92548,94214
92555,94192
92583,94162
92619,94237
92633,94213
92592,94185
92622,94237
92656,94191
92661,94243
92691,94229
92648,94244
92707,94209
92713,94236
92722,94299
92780,94302
92739,94223
92777,94305
92802,94276
92813,94310
92831,94311
92819,94309
92858,94293
92868,94312
92897,94359
92910,94341
92916,94351
92919,94341
92887,94350
92992,94376
92951,94380
92972,94378
92986,94382
93003,94352
93034,94429
93031,94381
93036,94418
93060,94416
93096,94395
93104,94426
93123,94444
93096,94433
93135,94427
93143,94430
93185,94481
93187,94487
93174,94463
93179,94491
93241,94530
93240,94516
93260,94523
93269,94519
93229,94465
93283,94531
93343,94518
93322,94540
93321,94559
93321,94529
93351,94519
93396,94598
93420,94523
93410,94591
93393,94577
93427,94591
93491,94608
93480,94590
93468,94646
93494,94576
93484,94597
93550,94631
93603,94666
93567,94638
93552,94650
93594,94662
93616,94681
93625,94667
93584,94659
93578,94647
93559,94617
93488,94616
93461,94591
93351,94517
93264,94502
93203,94444
93068,94354
92985,94345
92893,94293
92773,94230
92642,94178
92607,94151
92461,94087
92361,94056
92234,93985
92173,93968
92133,93935
92033,93875
91904,93884
91830,93794
91781,93784
91696,93745
91623,93724
91569,93678
91484,93640
91465,93671
91431,93638
91383,93584
91351,93613
91296,93531
91249,93570
91278,93572
91262,93556
91235,93577
91200,93500
91199,93541
91273,93599
91229,93557
91231,93582
91225,93560
91262,93576
91246,93587
91297,93627
91289,93603
91301,93623
91305,93631
91332,93621
91364,93629
91322,93645
91344,93603
91376,93680
91390,93661
91407,93667
91376,93653
91398,93685
91415,93674
91442,93690
91396,93683
91444,93653
91399,93697
91461,93704
91480,93693
91453,93689
91484,93722
91471,93679
91493,93687
91521,93738
91528,93737
91531,93729
91502,93749
91570,93763
91626,93748
91584,93735
91599,93782
91610,93732
91607,93756
91607,93763
91633,93748
91612,93792
91611,93775
91635,93770
91620,93764
91615,93771
91624,93751
91641,93794
91655,93769
91639,93785
91635,93810
91669,93767
91612,93791
91674,93810
91665,93771
91636,93785
91625,93804
91637,93770
91664,93772
91643,93778
91646,93775
91643,93768
91635,93756
91670,93780
91621,93783
91673,93801
91675,93776
91633,93774
91688,93774
91715,93844
91727,93799
91700,93810
91736,93806
91764,93825
91774,93828
91738,93820
91790,93872
91813,93808
91809,93851
91831,93856
91831,93879
91877,93883
91833,93854
91908,93882
91888,93891
91947,93905
91939,93920
91965,93922
91979,93907
91973,93966
92025,93940
92034,93970
92057,93931
92064,93999
92128,93967
92116,93991
92122,94012
92137,93983
92164,94007
92157,93992
92158,94063
92215,94025
92161,94038
92187,94023
92244,94048
92197,94062
92265,94058
92216,94032
92261,94063
92263,94074
92283,94065
92297,94067
92230,94065
92321,94111
92352,94079
92308,94093
92366,94106
92345,94067
92353,94102
92379,94122
92400,94146
92400,94105
92368,94130
92378,94102
92393,94157
92441,94151
92411,94122
92415,94141
92413,94096
92413,94157
92463,94153
92418,94121
92453,94128
92459,94135
92470,94154
92456,94143
92469,94138
92416,94121
92458,94111
92485,94197
92486,94143
92486,94158
92482,94155
92470,94138
92515,94120
92517,94188
92541,94192
92483,94178
92554,94165
92572,94212
92550,94175
92569,94173
92563,94165
92604,94230
92612,94191
92612,94231
92632,94231
92611,94229
92659,94227
92687,94249
92651,94216
92701,94238
92653,94218
92716,94248
92686,94254
92701,94283
92708,94216
92706,94245
92729,94241
92688,94243
92717,94271
92714,94230
92711,94252
92756,94282
92755,94300
92741,94288
92790,94268
92750,94250
92753,94306
92795,94285
92775,94298
92795,94307
92790,94272
92811,94310
92825,94306
92846,94325
92841,94310
92800,94276
92842,94323
92828,94313
92859,94307
92817,94322
92833,94298
92861,94344
92874,94322
92865,94338
92869,94315
92867,94325
92875,94309
92882,94343
92875,94313
92890,94350
92889,94325
92914,94355
92915,94353
92914,94354
92876,94335
92859,94300
92832,94313
92807,94292
92721,94247
92663,94198
92571,94140
92478,94148
92411,94042
92274,94001
92163,93958
92043,93883
91953,93876
91864,93824
91750,93742
91639,93713
91496,93634
91432,93622
91312,93564
91225,93526
91108,93484
91013,93424
90969,93397
90898,93396
90804,93353
90716,93341
90669,93274
90602,93271
90587,93245
90493,93219
90477,93202
90391,93163
90387,93168
90382,93174
90363,93156
90342,93138
90318,93160
90350,93158
90355,93186
90349,93169
90357,93172
90343,93154
90385,93172
90416,93169
90408,93201
90400,93188
90392,93181
90398,93218
90460,93218
90431,93194
90456,93223
90407,93203
90473,93221
90469,93232
90481,93230
90461,93224
90479,93195
90461,93237
90505,93228
90482,93225
90487,93247
90484,93234
90506,93245
90476,93265
90522,93242
90514,93218
90497,93264
90583,93290
90570,93280
90615,93305
90645,93248
90617,93282
90658,93324
90657,93331
90713,93332
90689,93308
90682,93343
90717,93333
90728,93356
90715,93339
90691,93340
90684,93330
90732,93311
90719,93350
90693,93341
90682,93307
90673,93334
90698,93314
90685,93317
90671,93331
90654,93297
90650,93309
90670,93275
90695,93321
90691,93299
90679,93333
90673,93287
90671,93347
90716,93327
90687,93288
90714,93349
90709,93334
90734,93352
90752,93358
90718,93340
90717,93339
90758,93332
90732,93362
90784,93382
90736,93347
90777,93377
90793,93389
90822,93358
90808,93380
90814,93406
90843,93371
90842,93423
90907,93434
90929,93402
90937,93439
90956,93445
90884,93408
91002,93475
90975,93483
91023,93485
90997,93477
91037,93450
91075,93493
91066,93491
91098,93497
91078,93532
91115,93485
91112,93548
91159,93542
91153,93539
91190,93538
91137,93517
91239,93559
91213,93552
91241,93563
91266,93545
91274,93591
91289,93561
91261,93611
91332,93603
91339,93624
91326,93615
91381,93650
91417,93639
91416,93666
91430,93654
91427,93665
91476,93685
91485,93675
91490,93675
91523,93698
91511,93692
91534,93723
91565,93707
91587,93724
91574,93721
91565,93717
91615,93720
91610,93740
91641,93743
91651,93770
91621,93729
91667,93770
91686,93789
91651,93759
91685,93782
91670,93778
91717,93774
91751,93774
91724,93770
91733,93775
91730,93764
91765,93824
91807,93824
91798,93819
91801,93827
91789,93818
91840,93843
91811,93849
91823,93836
91822,93830
91819,93829
91842,93860
91904,93873
91908,93872
91876,93852
91909,93841
91934,93879
91957,93907
91933,93899
91976,93895
91941,93873
91995,93929
91991,93920
92020,93908
91997,93906
92004,93902
92046,93936
92050,93927
92035,93932
92051,93924
92040,93921
92087,93941
92101,93970
92075,93940
92097,93959
92083,93937
92164,93989
92152,93995
92174,94010
92183,94007
92161,93983
92206,94003
92207,94000
92186,94015
92233,94032
92210,93984
92244,94045
92261,94046
92236,94021
92253,94041
92243,94043
92295,94057
92293,94059
92300,94065
92319,94050
92319,94066
92330,94076
92373,94085
92349,94090
92399,94096
92376,94094
92431,94108
92430,94103
92442,94120
92453,94128
92450,94110
92494,94129
92477,94160
92519,94170
92489,94129
92461,94128
92519,94144
92511,94146
92513,94158
92484,94139
92478,94141
92491,94144
92475,94145
92444,94086
92362,94076
92289,94011
92224,94010
92136,93953
92035,93923
91958,93852
91814,93780
91754,93753
91600,93699
91525,93658
91409,93578
91281,93539
91213,93495
91101,93464
90996,93403
90891,93348
90792,93320
90698,93243
90603,93234
90517,93205
90420,93134
90350,93109
90296,93057
90211,93085
90139,93032
90100,93009
90034,92988
90006,93015
89981,92973
89959,92954
89941,92906
89873,92964
89939,92929
89911,92929
89885,92916
89921,92921
89910,92951
89930,92935
89942,92954
89937,92974
89992,92999
89957,92960
90019,92983
90022,93007
90023,92987
90045,93019
90033,92966
90064,93033
90073,93038
90075,93021
90079,93007
90040,93017
90126,93020
90084,93004
90096,93018
90061,93031
90084,93008
90066,92989
90095,93037
90102,93033
90074,92994
90078,93038
90135,93028
90130,93043
90133,93048
90156,93020
90133,93071
90201,93070
90214,93083
90216,93084
90232,93110
90221,93044
90257,93097
90280,93119
90259,93117
90302,93126
90271,93099
90304,93128
90303,93137
90301,93110
90299,93114
90341,93115
90308,93122
90337,93137
90317,93126
90297,93104
90344,93117
90319,93153
90328,93135
90308,93141
90315,93109
90289,93093
90324,93141
90308,93123
90326,93097
90304,93084
90279,93141
90362,93185
90326,93134
90338,93117
90344,93144
90309,93132
90356,93160
90402,93169
90379,93163
90399,93172
90371,93158
90433,93174
90448,93205
90459,93186
90440,93189
90468,93185
90498,93213
90517,93216
90523,93207
90553,93207
90539,93219
90573,93246
90617,93272
90605,93255
90618,93230
90631,93271
90663,93273
90688,93293
90685,93269
90713,93286
90723,93299
90755,93328
90784,93349
90766,93352
90824,93343
90785,93351
90845,93368
90874,93385
90882,93371
90876,93397
90892,93368
90919,93396
90944,93403
90931,93419
90960,93411
90964,93419
90993,93423
91006,93454
90997,93439
91000,93453
91009,93432
91013,93452
91074,93455
91070,93459
91056,93468
91066,93451
91098,93481
91113,93486
91108,93482
91142,93496
91145,93504
91163,93526
91198,93543
91171,93518
91201,93535
91176,93530
91227,93539
91221,93546
91240,93543
91242,93550
91243,93539
91264,93557
91284,93571
91265,93557
91301,93578
91282,93566
91312,93597
91319,93578
91323,93580
91315,93585
91321,93602
91361,93600
91366,93623
91355,93615
91384,93611
91378,93592
91431,93626
91421,93621
91422,93642
91415,93617
91402,93628
91462,93640
91477,93674
91476,93654
91464,93665
91460,93639
91509,93670
91490,93689
91507,93678
91492,93668
91535,93680
91559,93708
91541,93694
91541,93698
91563,93692
91562,93693
91585,93722
91604,93710
91602,93707
91614,93719
91613,93747
91624,93725
91661,93732
91620,93741
91642,93738
91650,93718
91665,93772
91682,93763
91682,93768
91695,93758
91713,93781
91732,93761
91772,93816
91756,93795
91772,93810
91782,93789
91823,93844
91825,93816
91841,93816
91770,93813
91840,93827
91861,93857
91906,93881
91911,93864
91911,93870
91926,93862
91935,93904
91974,93906
91954,93912
92003,93920
92000,93901
92033,93912
92063,93931
92091,93969
92032,93917
92076,93961
92114,93962
92098,93944
92082,93957
92100,93930
92035,93950
92010,93934
92028,93920
91935,93849
91836,93841
91756,93805
91698,93758
91637,93706
91504,93679
91433,93589
91283,93571
91208,93505
91125,93464
91032,93437
90901,93331
90779,93298
90712,93304
90626,93242
90517,93204
90464,93142
90329,93105
90242,93063
90189,93054
90088,93014
90044,92939
89939,92937
89899,92947
89876,92892
89843,92892
89801,92845
89773,92855
89761,92847
89744,92857
89742,92820
89717,92836
89691,92808
89720,92835
89706,92849
89703,92831
89697,92834
89703,92834
89724,92856
89751,92858
89751,92846
89752,92823
89741,92857
89774,92868
89789,92863
89788,92862
89768,92873
89775,92859
89831,92897
89828,92891
89843,92879
89848,92880
89832,92883
89871,92886
89874,92899
89873,92887
89865,92882
89866,92899
89898,92917
89900,92937
89906,92933
89926,92929
89930,92922
89974,92942
89996,92987
89996,92955
90005,92971
90034,92978
90078,93018
90089,93026
90107,93038
90122,93024
90151,93043
90193,93063
90203,93061
90204,93075
90188,93055
90207,93057
90228,93075
90255,93097
90243,93082
90280,93082
90251,93087
90298,93095
90286,93104
90290,93078
90315,93099
90300,93086
90329,93106
90343,93130
90326,93117
90337,93107
90362,93126
90362,93155
90390,93131
90380,93145
90375,93117
90375,93122
90390,93145
90416,93151
90393,93142
90419,93151
90424,93135
90449,93181
90443,93173
90474,93180
90486,93172
90517,93181
90527,93206
90549,93225
90568,93220
90571,93244
90589,93230
90636,93240
90633,93258
90645,93285
90682,93254
90674,93267
90690,93284
90743,93292
90763,93321
90739,93317
90802,93313
90821,93356
90847,93353
90824,93358
90868,93332
90872,93342
90911,93383
90959,93405
90958,93376
90943,93398
90971,93387
91014,93421
91027,93393
91009,93435
91072,93459
91069,93434
91123,93495
91130,93469
91119,93493
91139,93495
91150,93458
91158,93522
91208,93498
91217,93491
91215,93523
91239,93497
91271,93534
91246,93524
91245,93552
91266,93546
91271,93574
91295,93579
91297,93549
91316,93579
91296,93532
91319,93544
91377,93588
91358,93597
91372,93576
91345,93609
91366,93589
91388,93582
91417,93630
91419,93576
91366,93626
91399,93643
91384,93605
91438,93630
91402,93583
91423,93649
91439,93605
91430,93625
91437,93636
91464,93638
91429,93628
91446,93635
91462,93682
91514,93639
91492,93630
91485,93640
91476,93626
91542,93681
91546,93658
91546,93663
91521,93667
91557,93713
91604,93677
91588,93699
91611,93721
91588,93698
91579,93722
91600,93702
91663,93744
91652,93721
91647,93722
91650,93725
91685,93720
91694,93768
91669,93750
91711,93750
91693,93735
91751,93769
91763,93758
91751,93808
91734,93735
91717,93759
91778,93800
91753,93760
91793,93823
91777,93796
91818,93787
91817,93797
91830,93823
91827,93789
91813,93839
91820,93839
91859,93837
91853,93820
91841,93857
91875,93819
91842,93801
91903,93868
91907,93882
91890,93853
91919,93863
91946,93890
91971,93845
91973,93876
91976,93889
91964,93883
91959,93881
91929,93842
91930,93872
91854,93805
91761,93773
91715,93742
91595,93686
91542,93692
91432,93605
91321,93515
91177,93472
91120,93456
91006,93367
90892,93328
90751,93296
90642,93203
90581,93173
90446,93115
90355,93100
90231,93004
90130,93010
90066,92939
90006,92944
89901,92856
89809,92878
89769,92835
89720,92808
89680,92781
89639,92719
89575,92790
89596,92769
89563,92741
89555,92747
89523,92708
89518,92746
89538,92711
89534,92730
89566,92750
89550,92716
89545,92719
89580,92767
89593,92732
89604,92758
89614,92774
89582,92770
89581,92761
89665,92764
89621,92761
89639,92785
89626,92757
89613,92757
89627,92769
89633,92790
89644,92761
89596,92749
89609,92796
89629,92751
89630,92782
89632,92770
89623,92767
89637,92766
89646,92787
89653,92807
89631,92755
89680,92813
89648,92767
89728,92834
89719,92816
89748,92861
89711,92822
89767,92861
89791,92827
89793,92866
89827,92880
89781,92874
89819,92887
89819,92865
89805,92926
89825,92866
89867,92907
89849,92842
89836,92915
89878,92898
89864,92872
89863,92863
89917,92920
89878,92881
89898,92901
89902,92918
89891,92890
89908,92940
89909,92921
89933,92914
89936,92918
89891,92885
89960,92942
89911,92879
89906,92958
89894,92925
89935,92882
89936,92945
89954,92907
89969,92948
90009,92952
89979,92947
90041,92961
90021,92997
90066,93003
90048,92977
90105,93002
90134,93018
90196,93001
90166,92991
90181,93044
90205,93030
90199,93007
90240,93051
90219,93072
90241,93067
90281,93090
90311,93077
90313,93109
90305,93112
90305,93092
90272,93070
90314,93103
90372,93133
90379,93147
90393,93138
90402,93145
90413,93147
90483,93168
90462,93173
90493,93194
90496,93157
90506,93203
90550,93208
90593,93234
90569,93195
90550,93223
90596,93231
90636,93248
90641,93259
90648,93243
90619,93252
90658,93265
90682,93263
90693,93266
90677,93270
90693,93282
90713,93242
90693,93328
90740,93305
90746,93305
90739,93255
90748,93329
90770,93289
90757,93301
90788,93328
90769,93276
90803,93355
90835,93297
90800,93314
90796,93332
90817,93325
90800,93305
90808,93329
90794,93321
90827,93325
90811,93319
90835,93324
90823,93317
90839,93372
90869,93358
90846,93368
90880,93337
90888,93357
90879,93391
90904,93360
90911,93393
90958,93401
90943,93412
90976,93405
90945,93393
90957,93398
90945,93402
90994,93414
90971,93423
90975,93436
90976,93413
91011,93419
91011,93432
91034,93410
91011,93455
91029,93419
91029,93447
91061,93455
91054,93441
91090,93453
91049,93445
91121,93472
91117,93478
91127,93491
91128,93485
91151,93503
91147,93481
91165,93506
91179,93516
91174,93535
91160,93528
91235,93546
91199,93512
91224,93513
91222,93532
91245,93509
91221,93528
91240,93555
91249,93533
91248,93533
91257,93528
91288,93572
91275,93541
91292,93539
91287,93534
91330,93552
91292,93577
91352,93573
91337,93564
91316,93561
91352,93564
91372,93593
91346,93549
91355,93585
91366,93595
91350,93599
91361,93574
91406,93599
91396,93589
91397,93609
91381,93610
91452,93644
91456,93589
91475,93649
91470,93643
91461,93641
91482,93648
91540,93706
91541,93658
91520,93663
91514,93637
91465,93657
91450,93621
91396,93559
91295,93558
91214,93455
91166,93494
91062,93372
90941,93343
90823,93291
90718,93200
90596,93213
90503,93160
90370,93075
90234,93013
90110,92962
89985,92878
89897,92837
89781,92800
89657,92747
89568,92705
89453,92662
89427,92616
89317,92584
89261,92563
89204,92541
89121,92477
89109,92514
89072,92470
89006,92439
88999,92465
88966,92414
88915,92452
88912,92410
88903,92424
88879,92354
88832,92403
88837,92426
88814,92361
88810,92375
88742,92316
88736,92334
88755,92382
88723,92370
88726,92355
88722,92346
88756,92362
88782,92368
88787,92366
88810,92376
88791,92356
88794,92434
88869,92414
88881,92401
88832,92372
88856,92434
88842,92392
88858,92446
88899,92423
88884,92432
88869,92365
88847,92433
88903,92431
88878,92415
88897,92442
88882,92403
88956,92465
88983,92424
88998,92470
89006,92483
88982,92452
89062,92529
89100,92495
89123,92533
89138,92558
89106,92510
89182,92580
89168,92561
89248,92578
89192,92572
89224,92593
89234,92564
89260,92590
89266,92578
89259,92579
89245,92606
89236,92568
89245,92618
89240,92583
89235,92600
89251,92557
89240,92578
89247,92600
89221,92557
89225,92577
89224,92567
89232,92556
89224,92599
89251,92568
89226,92577
89242,92557
89256,92567
89248,92546
89263,92605
89250,92570
89225,92535
89260,92585
89239,92583
89284,92575
89236,92587
89251,92607
89286,92565
89283,92613
89322,92612
89319,92597
89331,92631
89376,92608
89404,92632
89444,92654
89454,92667
89492,92677
89549,92699
89553,92691
89599,92744
89624,92757
89645,92732
89665,92813
89765,92815
89747,92826
89740,92825
89767,92831
89841,92850
89823,92817
89848,92879
89876,92886
89877,92824
89912,92901
89925,92896
89926,92894
89957,92914
89922,92879
90000,92932
90006,92927
89994,92946
90009,92951
90036,92926
90090,92993
90119,92981
90141,92983
90160,92961
90116,93011
90206,92976
90214,93041
90226,93041
90226,93036
90257,93016
90262,93042
90272,93103
90326,93078
90303,93071
90316,93076
90376,93094
90388,93073
90368,93115
90406,93106
90362,93134
90439,93115
90458,93155
90441,93129
90476,93153
90460,93119
90501,93149
90511,93154
90493,93169
90556,93168
90484,93152
90556,93198
90563,93159
90558,93186
90573,93213
90561,93141
90555,93215
90585,93230
90595,93192
90618,93218
90595,93176
90567,93247
90628,93242
90615,93220
90611,93239
90636,93220
90631,93221
90645,93230
90643,93247
90668,93257
90633,93230
90672,93251
90717,93242
90657,93256
90664,93207
90669,93261
90686,93224
90684,93262
90689,93260
90685,93244
90704,93261
90686,93211
90681,93269
90703,93266
90683,93251
90639,93265
90694,93222
90667,93209
90678,93244
90693,93238
90631,93246
90692,93246
90709,93230
90650,93228
90674,93233
90667,93203
90657,93241
90706,93264
90698,93270
90689,93244
90688,93258
90726,93253
90730,93284
90753,93289
90792,93315
90772,93261
90816,93337
90823,93349
90854,93319
90803,93357
90836,93309
90876,93347
90910,93382
90912,93345
90901,93389
90913,93344
90944,93397
90952,93404
90966,93379
90961,93395
90966,93370
90966,93401
91004,93421
90988,93380
90991,93427
90994,93395
91040,93419
91056,93426
90989,93365
90992,93404
90924,93347
90900,93359
90890,93323
90763,93245
90681,93259
90567,93151
90469,93122
90416,93076
90271,93033
90150,92977
90025,92881
89914,92871
89802,92796
89696,92720
89591,92676
89447,92612
89382,92621
89280,92550
89196,92483
89099,92472
89017,92366
88945,92372
88858,92355
88799,92304
88720,92243
88689,92239
88619,92198
88555,92191
88465,92155
88393,92111
88337,92119
88272,92066
88202,92082
88118,92018
88049,92001
88051,92033
