11111,11111
0,0
78487,79021
91809,93656
91876,93704
91911,93721
91911,93708
91983,93725
91941,93719
91962,93774
91979,93728
91981,93776
92000,93719
91990,93708
91994,93749
92019,93747
91978,93751
92016,93721
91985,93745
92005,93728
92058,93757
92052,93769
92016,93767
92066,93721
92075,93822
92119,93817
92166,93804
92189,93804
92201,93803
92293,93862
92346,93928
92348,93911
92439,93936
92467,93951
92523,93972
92588,94009
92590,94036
92651,94026
92673,94032
92680,94039
92750,94058
92724,94075
92755,94073
92699,94088
92757,94070
92777,94104
92794,94100
92802,94109
92782,94061
92895,94168
92881,94142
92923,94126
92937,94121
92949,94152
92976,94194
93013,94172
93055,94201
93071,94187
93105,94180
93144,94263
93189,94243
93264,94305
93269,94278
93265,94262
93360,94335
93425,94339
93452,94340
93469,94361
93511,94373
93577,94445
93631,94412
93645,94475
93691,94427
93725,94486
93773,94507
93842,94523
93834,94532
93898,94560
93922,94570
93996,94573
94104,94631
94099,94652
94090,94635
94165,94623
94224,94715
94236,94707
94281,94705
94341,94744
94323,94739
94372,94746
94482,94803
94459,94829
94484,94811
94547,94844
94609,94844
94638,94891
94658,94882
94715,94925
94743,94923
94813,94939
94846,95012
94927,94991
94928,95044
94985,94997
95060,95075
95083,95110
95147,95121
95146,95097
95186,95119
95228,95171
95258,95191
95328,95209
95340,95195
95363,95221
95391,95232
95460,95235
95494,95286
95508,95270
95535,95297
95557,95328
95640,95318
95642,95366
95631,95342
95678,95388
95786,95414
95815,95464
96772,95879
94878,94945
94864,94959
95351,95202
95423,95230
95445,95229
95879,95427
95932,95444
95982,95442
95964,95470
96016,95499
96001,95451
95988,95434
96027,95483
96037,95504
95975,95446
96007,95464
95999,95451
96015,95491
96027,95482
96060,95457
96041,95472
96036,95459
96052,95492
96074,95475
96074,95495
96086,95471
96084,95493
96098,95466
96120,95515
96082,95501
96128,95490
96137,95526
96132,95479
96191,95534
96173,95529
96190,95552
96152,95480
96256,95601
96251,95566
96254,95578
96254,95575
96266,95543
96337,95642
96349,95628
96376,95609
96338,95641
96368,95607
96401,95656
96435,95630
96409,95613
96420,95651
96413,95626
96438,95642
96443,95683
96460,95642
96453,95653
96455,95641
96481,95659
96518,95692
96486,95692
96502,95657
96442,95665
96532,95713
96521,95707
96553,95696
96531,95693
96547,95698
96575,95695
96601,95742
96605,95754
96624,95738
96615,95750
96632,95755
96654,95764
96636,95758
96662,95772
96610,95751
96653,95711
96684,95802
96673,95808
96633,95742
96658,95750
96701,95771
96694,95797
96689,95741
96724,95774
96657,95780
96731,95784
96745,95799
96753,95783
96742,95810
96694,95736
96745,95849
96751,95818
96793,95817
96790,95809
96752,95785
96757,95852
96829,95850
96818,95854
96790,95819
96766,95794
96834,95859
96817,95856
96801,95864
96793,95818
96752,95826
96824,95878
96810,95863
96786,95801
96800,95839
96740,95843
96778,95835
96791,95823
96719,95836
96740,95811
96757,95801
96732,95825
96778,95856
96765,95847
96756,95793
96752,95816
96802,95799
96826,95854
96792,95837
96796,95829
96720,95842
96781,95830
96842,95873
96789,95872
96769,95820
96765,95830
96816,95892
96850,95870
96866,95896
96837,95850
96802,95885
96884,95897
96893,95922
96883,95916
96886,95860
96923,95915
96950,95923
96972,95935
96934,95952
96898,95884
96850,95888
96876,95850
96831,95851
96698,95792
96616,95734
96444,95670
96391,95628
96280,95601
96142,95507
95977,95448
95894,95407
95795,95328
95692,95283
95578,95276
95463,95168
95369,95158
95285,95144
95185,95062
95097,95030
94956,94962
94869,94949
94831,94937
94739,94875
94680,94854
94593,94793
94531,94778
94493,94751
94459,94746
94379,94717
94313,94712
94275,94664
94287,94706
94285,94699
94195,94658
94170,94673
94170,94615
94211,94702
94184,94662
94173,94667
94177,94653
94190,94668
94209,94649
94264,94697
94209,94673
94237,94665
94248,94695
94284,94686
94351,94758
94287,94721
94330,94717
94323,94747
94381,94746
94359,94781
94379,94772
94392,94775
94338,94753
94436,94820
94455,94793
94414,94800
94396,94751
94447,94806
94456,94821
94492,94825
94532,94830
94476,94807
94542,94859
94536,94828
94588,94875
94568,94872
94535,94843
94568,94850
94630,94863
94652,94912
94586,94840
94628,94872
94594,94870
94644,94872
94615,94901
94607,94829
94590,94855
94561,94864
94603,94880
94589,94843
94569,94861
94558,94809
94534,94850
94583,94839
94591,94853
94563,94813
94582,94813
94538,94831
94585,94832
94541,94828
94548,94828
94503,94789
94525,94818
94538,94817
94570,94821
94535,94837
94503,94797
94533,94816
94509,94840
94530,94802
94548,94839
94533,94818
94547,94794
94552,94829
94613,94850
94575,94810
94572,94812
94593,94831
94623,94846
94628,94854
94609,94859
94585,94830
94613,94859
94638,94872
94649,94862
94658,94882
94624,94872
94651,94864
94680,94919
94691,94876
94721,94895
94687,94870
94750,94947
94786,94958
94813,94940
94845,94979
94780,94950
94872,94966
94885,94987
94900,94947
94901,94996
94864,95010
94952,94985
94969,95026
94966,95002
94992,95045
94976,94984
95015,95010
95064,95052
95104,95051
95047,95057
95093,95036
95136,95106
95202,95113
95212,95091
95216,95148
95180,95076
95238,95157
95285,95154
95291,95136
95239,95167
95263,95104
95360,95187
95340,95176
95347,95179
95338,95211
95334,95151
95389,95174
95419,95201
95372,95230
95413,95182
95408,95194
95422,95211
95488,95223
95430,95250
95448,95210
95421,95212
95452,95193
95469,95237
95494,95218
95493,95261
95448,95221
95509,95261
95538,95262
95528,95265
95504,95250
95510,95253
95533,95236
95593,95287
95547,95277
95560,95243
95487,95253
95610,95236
95575,95295
95559,95250
95563,95259
95517,95242
95569,95236
95634,95287
95571,95293
95591,95275
95585,95258
95623,95312
95650,95302
95644,95297
95621,95293
95628,95263
95676,95336
95702,95326
95714,95307
95706,95330
95691,95286
95771,95337
95778,95354
95754,95363
95748,95333
95792,95312
95778,95400
95832,95362
95837,95404
95837,95411
95780,95337
95849,95411
95841,95391
95888,95394
95838,95355
95836,95366
95885,95413
95838,95439
95911,95409
95866,95396
95858,95375
95854,95404
95941,95414
95887,95419
95887,95380
95827,95376
95826,95413
95860,95396
95788,95357
95711,95294
95568,95212
95529,95215
95454,95158
95299,95111
95204,95040
95024,94956
94961,94945
94876,94874
94714,94835
94617,94745
94457,94681
94394,94652
94275,94605
94138,94553
94034,94477
93875,94422
93837,94400
93733,94379
93638,94300
93500,94271
93377,94201
93374,94178
93298,94178
93218,94140
93088,94094
93050,94027
93010,94067
93000,94039
92938,94016
92885,94024
92817,93928
92846,93990
92839,93976
92782,93963
92786,93959
92751,93978
92816,93975
92816,93996
92813,94013
92858,93981
92896,94044
92934,94032
92953,94093
92974,94059
92934,94031
92998,94066
93008,94072
93030,94129
93021,94095
93057,94091
92999,94108
93084,94142
93081,94116
93095,94105
93087,94100
93104,94106
93127,94109
93137,94142
93125,94128
93168,94157
93133,94152
93197,94183
93216,94193
93232,94205
93256,94177
93248,94224
93327,94227
93352,94259
93339,94260
93373,94215
93373,94273
93430,94250
93423,94274
93427,94253
93421,94294
93410,94236
93435,94311
93454,94283
93453,94264
93432,94248
93442,94290
93478,94270
93467,94306
93424,94287
93427,94241
93391,94243
93439,94285
93437,94284
93406,94261
93383,94257
93417,94268
93422,94266
93406,94290
93400,94271
93334,94221
93379,94253
93371,94223
93384,94266
93374,94225
93315,94242
93291,94221
93366,94269
93359,94236
93347,94255
93291,94212
93362,94209
93386,94252
93402,94280
93408,94249
93377,94278
93376,94221
93439,94310
93466,94291
93447,94297
93434,94283
93475,94307
93532,94320
93528,94338
93519,94323
93543,94298
93534,94354
93580,94361
93639,94386
93639,94344
93631,94383
93642,94379
93734,94396
93755,94423
93770,94426
93713,94418
93793,94434
93807,94464
93862,94450
93870,94498
93834,94469
93932,94484
93963,94516
93954,94547
93981,94523
93982,94500
93992,94530
94036,94532
94083,94586
94022,94556
94024,94523
94043,94574
94101,94591
94123,94582
94147,94609
94077,94581
94141,94562
94180,94625
94145,94618
94172,94651
94136,94572
94224,94646
94205,94658
94259,94673
94222,94650
94213,94609
94291,94679
94284,94659
94325,94697
94277,94676
94317,94647
94346,94696
94392,94707
94386,94717
94365,94694
94316,94694
94417,94686
94440,94754
94414,94719
94425,94725
94364,94728
94403,94751
94457,94740
94473,94768
94432,94737
94427,94699
94452,94772
94516,94777
94477,94781
94511,94772
94490,94768
94483,94732
94527,94802
94512,94790
94531,94795
94473,94770
94545,94794
94525,94779
94580,94790
94527,94808
94544,94777
94557,94796
94594,94802
94583,94816
94619,94790
94565,94791
94590,94816
94628,94860
94596,94837
94655,94844
94583,94837
94621,94869
94630,94867
94647,94828
94632,94864
94580,94784
94670,94854
94691,94870
94642,94858
94677,94830
94691,94853
94681,94829
94724,94898
94749,94876
94755,94869
94696,94852
94774,94891
94765,94930
94775,94899
94817,94909
94747,94883
94769,94909
94784,94897
94774,94889
94698,94850
94604,94784
94563,94757
94555,94743
94370,94714
94271,94620
94143,94575
94036,94488
93951,94504
93793,94429
93658,94306
93498,94257
93387,94217
93259,94154
93121,94118
92942,94012
92791,93908
92649,93924
92532,93844
92374,93768
92222,93705
92072,93611
91972,93600
91878,93543
91770,93527
91654,93475
91502,93399
91537,93438
91448,93416
91427,93364
91429,93399
91369,93351
91442,93389
91427,93418
91424,93362
91448,93404
91400,93383
91481,93437
91519,93434
91535,93448
91560,93467
91549,93416
91646,93494
91673,93512
91725,93487
91733,93524
91783,93525
91829,93588
91901,93581
91903,93607
91944,93625
91972,93613
92004,93665
92068,93669
92083,93677
92086,93680
92111,93682
92177,93746
92147,93745
92225,93722
92208,93724
92240,93737
92258,93808
92318,93834
92289,93826
92340,93795
92366,93832
92457,93832
92465,93883
92497,93876
92468,93896
92478,93836
92583,93925
92590,93939
92595,93924
92635,93912
92622,93938
92680,93934
92672,93985
92667,93957
92708,93937
92699,93974
92717,93957
92773,93999
92724,93974
92716,93975
92685,93960
92715,93957
92688,93994
92695,93979
92669,93951
92638,93936
92655,93969
92611,93960
92639,93912
92589,93950
92568,93892
92594,93958
92561,93924
92579,93880
92563,93888
92515,93900
92574,93918
92608,93939
92575,93884
92614,93922
92573,93932
92646,93938
92687,93954
92676,93970
92664,93973
92670,93934
92761,94009
92765,94003
92749,93986
92810,93997
92779,94001
92876,94062
92922,94118
92903,94022
92892,94088
92919,94055
92970,94089
93028,94146
93037,94130
93033,94142
93063,94110
93098,94173
93156,94201
93124,94158
93150,94164
93162,94204
93223,94236
93236,94280
93267,94273
93273,94208
93337,94253
93348,94309
93387,94289
93380,94301
93408,94308
93406,94301
93505,94335
93512,94377
93504,94341
93501,94347
93505,94348
93526,94378
93577,94392
93563,94371
93537,94352
93521,94341
93553,94361
93579,94401
93569,94398
93526,94354
93523,94382
93573,94394
93589,94427
93565,94384
93569,94384
93583,94390
93652,94421
93663,94415
93631,94404
93622,94404
93659,94415
93716,94454
93732,94427
93716,94476
93696,94424
93750,94450
93747,94443
93777,94464
93762,94454
93776,94470
93731,94507
93772,94472
93835,94522
93767,94459
93792,94470
93813,94504
93810,94533
93774,94489
93827,94522
93763,94470
93792,94470
93813,94526
93825,94492
93748,94508
93742,94463
93787,94460
93822,94484
93831,94503
93795,94438
93833,94473
93839,94501
93876,94568
93889,94514
93899,94572
93906,94520
93897,94536
93957,94580
93989,94577
93983,94553
93996,94566
93964,94593
94030,94586
94087,94653
94013,94593
94034,94604
94052,94622
94062,94609
94069,94643
94083,94646
94057,94604
94077,94636
94096,94648
94126,94625
94095,94672
94111,94630
94167,94675
94212,94678
94169,94673
94239,94709
94207,94663
94240,94667
94280,94743
94218,94702
94268,94683
94173,94661
94121,94664
94104,94615
94022,94577
93929,94514
93812,94442
93723,94447
93616,94402
93492,94344
93391,94256
93209,94180
93131,94168
92984,94094
92894,94006
92683,93961
92553,93897
92424,93865
92300,93763
92167,93744
92017,93648
91836,93583
91709,93553
91624,93484
91522,93477
91420,93389
91277,93377
91288,93376
91231,93396
91216,93345
91181,93307
91163,93303
91191,93355
91188,93341
91245,93359
91242,93374
91225,93323
91288,93362
91331,93377
91348,93399
91383,93415
91406,93393
91471,93476
91556,93489
91582,93512
91643,93545
91682,93549
91779,93568
91831,93636
91868,93637
91880,93651
91904,93639
91988,93686
92021,93696
92038,93715
92084,93752
92088,93715
92120,93755
92180,93813
92161,93809
92212,93800
92195,93788
92275,93814
92323,93841
92303,93858
92330,93834
92336,93867
92373,93875
92446,93905
92415,93941
92456,93896
92427,93902
92501,93908
92525,93949
92492,93934
92531,93991
92492,93927
92534,93979
92599,93966
92587,93998
92608,93953
92551,93973
92620,93988
92663,93990
92635,94046
92658,94022
92636,93988
92665,94040
92717,94040
92733,94025
92720,94022
92655,94008
92754,94051
92748,94095
92709,94047
92706,94068
92716,94015
92758,94104
92731,94065
92779,94075
92738,94069
92733,94064
92817,94074
92798,94119
92787,94044
92783,94093
92777,94076
92868,94100
92866,94142
92857,94081
92883,94116
92878,94103
92951,94147
92972,94163
93001,94152
93047,94185
93000,94204
93100,94233
93139,94279
93105,94233
93174,94242
93178,94282
93282,94286
93301,94330
93336,94344
93311,94339
93315,94301
93402,94392
93442,94394
93456,94382
93462,94374
93502,94433
93562,94419
93605,94461
93570,94451
93624,94460
93616,94429
93645,94465
93713,94481
93676,94530
93700,94507
93718,94490
93762,94522
93828,94550
93780,94583
93814,94576
93824,94537
93918,94615
93918,94613
93957,94645
93950,94617
93973,94579
94065,94680
94040,94675
94052,94664
94051,94650
94074,94675
94158,94694
94165,94750
94197,94691
94180,94702
94183,94733
94217,94755
94249,94743
94209,94771
94190,94705
94209,94723
94186,94735
94201,94739
94180,94694
94159,94717
94129,94693
94196,94718
94233,94743
94199,94743
94149,94719
94213,94675
94214,94755
94246,94751
94196,94749
94217,94726
94195,94710
94290,94751
94269,94795
94241,94752
94216,94733
94293,94761
94301,94776
94307,94773
94352,94761
94322,94792
94300,94726
94359,94803
94381,94808
94320,94761
94374,94774
94374,94789
94388,94794
94406,94812
94392,94831
94376,94784
94397,94788
94448,94814
94468,94849
94474,94831
94455,94844
94435,94822
94502,94862
94519,94847
94505,94850
94483,94846
94512,94859
94541,94856
94584,94907
94586,94883
94571,94866
94555,94893
94632,94895
94660,94930
94584,94893
94613,94890
94631,94919
94690,94955
94630,94975
94667,94924
94620,94936
94603,94929
94624,94912
94570,94890
94526,94879
94410,94823
94377,94738
94280,94735
94192,94720
94062,94626
93926,94562
93822,94494
93724,94487
93618,94417
93450,94354
93329,94273
93202,94212
93121,94192
92999,94165
92859,94084
92738,94023
92647,93998
92573,93993
92473,93904
92420,93878
92277,93804
92228,93788
92197,93765
92085,93772
91973,93676
91942,93650
91866,93610
91827,93616
91779,93634
91704,93572
91666,93546
91627,93555
91660,93564
91662,93588
91605,93564
91599,93522
91650,93600
91649,93579
91701,93577
91701,93605
91694,93574
91780,93655
91835,93634
91872,93690
91884,93707
91862,93688
91963,93691
92013,93757
91995,93731
92067,93799
92050,93744
92103,93804
92138,93793
92175,93828
92172,93794
92171,93813
92237,93862
92244,93881
92285,93905
92319,93865
92322,93897
92335,93882
92431,93938
92395,93952
92440,93966
92404,93935
92512,93957
92522,94016
92573,94019
92558,94035
92522,93986
92584,93998
92629,94013
92659,94039
92673,94047
92648,94056
92677,94072
92696,94053
92735,94075
92719,94060
92717,94061
92736,94082
92797,94114
92762,94075
92804,94120
92745,94112
92758,94109
92772,94113
92757,94090
92768,94061
92777,94106
92765,94054
92808,94122
92770,94092
92790,94086
92697,94079
92746,94038
92760,94112
92750,94110
92734,94049
92730,94059
92752,94059
92793,94122
92786,94118
92814,94119
92781,94097
92855,94117
92843,94156
92889,94124
92881,94171
92873,94112
92963,94177
93030,94203
92984,94196
93027,94186
93030,94205
93115,94245
93124,94255
93120,94294
93119,94260
93122,94213
93170,94303
93231,94295
93225,94334
93208,94287
93241,94257
93237,94354
93291,94319
93313,94331
93291,94338
93289,94333
93350,94327
93376,94363
93371,94362
93367,94382
93374,94357
93404,94401
93426,94387
93452,94426
93445,94396
93477,94404
93528,94445
93561,94465
93584,94439
93583,94494
93569,94438
93634,94530
93687,94511
93678,94499
93701,94529
93626,94480
93719,94539
93731,94544
93740,94567
93768,94560
93748,94522
93774,94590
93805,94548
93798,94560
93809,94582
93795,94557
93803,94545
93879,94588
93835,94619
93846,94583
93837,94558
93891,94628
93883,94618
93948,94626
93916,94608
93909,94628
93971,94652
94018,94634
93981,94684
93992,94622
94005,94644
94019,94621
94067,94679
94035,94702
94067,94682
94011,94653
94107,94659
94117,94692
94094,94731
94065,94695
94098,94660
94118,94760
94178,94729
94152,94730
94141,94745
94118,94677
94202,94765
94190,94732
94193,94754
94208,94753
94168,94717
94238,94789
94253,94771
94285,94779
94278,94778
94263,94763
94291,94790
94318,94838
94322,94777
94304,94822
94297,94756
94351,94840
94385,94824
94410,94844
94375,94839
94406,94824
94433,94849
94480,94847
94429,94897
94437,94869
94462,94874
94461,94890
94515,94926
94527,94874
94536,94889
94500,94907
94525,94882
94602,94918
94572,94932
94567,94895
94542,94918
94632,94941
94695,94982
94648,94941
94664,94971
94660,94942
94750,94985
94713,95016
94770,95014
94724,94980
94776,95007
94781,95029
94855,95058
94828,95031
94755,95018
94732,94953
94750,94977
94664,94963
94563,94924
94429,94814
94370,94780
94246,94753
94170,94692
94045,94641
93905,94529
93821,94533
93697,94442
93620,94447
93471,94363
93359,94306
93236,94242
93148,94229
93067,94207
92917,94112
92829,94078
92782,94025
92719,94030
92670,94034
92554,93967
92508,93917
92461,93926
92469,93949
92439,93923
92402,93908
92360,93872
92361,93860
92378,93906
92366,93896
92367,93871
92385,93883
92398,93909
92441,93935
92423,93916
92466,93923
92465,93936
92455,93951
92541,93973
92513,93961
92553,93993
92522,93981
92570,93982
92625,94017
92635,94027
92654,94030
92647,94032
92673,94036
92702,94051
92726,94072
92748,94071
92738,94043
92764,94082
92765,94124
92822,94115
92853,94114
92850,94152
92858,94090
92936,94171
92958,94150
92982,94198
93021,94178
93021,94205
93114,94242
93135,94246
93149,94247
93177,94268
93160,94250
93187,94284
93258,94335
93212,94299
93227,94278
93196,94258
93285,94323
93268,94327
93217,94282
93246,94266
93260,94329
93293,94308
93247,94316
93239,94289
93219,94248
93218,94274
93241,94300
93261,94284
93169,94266
93161,94265
93209,94263
93210,94293
93215,94282
93173,94247
93161,94224
93177,94244
93204,94304
93179,94264
93231,94258
93172,94239
93170,94224
93238,94285
93204,94304
93230,94264
93158,94251
93210,94284
93196,94296
93267,94262
93210,94310
93226,94269
93258,94292
93265,94311
93282,94302
93245,94288
93255,94277
93297,94329
93345,94338
93358,94329
93374,94361
93320,94333
93382,94361
93420,94364
93438,94388
93431,94350
93456,94354
93455,94395
93512,94403
93495,94423
93518,94435
93526,94379
93544,94455
93552,94415
93604,94453
93597,94429
93586,94419
93631,94456
93592,94484
93628,94438
93632,94477
93610,94441
93631,94469
93683,94495
93681,94478
93689,94519
93679,94453
93752,94533
93768,94536
93764,94516
93800,94516
93774,94532
93803,94520
93863,94562
93836,94597
93855,94530
93883,94550
93865,94591
93924,94610
93897,94601
93944,94611
93896,94609
93976,94593
93971,94643
93969,94618
93974,94638
93960,94595
94003,94654
94049,94626
94058,94672
94037,94639
93972,94596
94058,94649
94070,94666
94042,94650
94054,94646
94033,94653
94067,94632
94112,94675
94074,94697
94117,94642
94077,94664
94101,94649
94174,94704
94139,94688
94142,94730
94108,94643
94188,94733
94190,94700
94213,94689
94209,94749
94194,94691
94231,94744
94259,94740
94284,94778
94289,94733
94226,94764
94276,94752
94347,94752
94283,94788
94318,94751
94285,94730
94351,94758
94335,94810
94331,94761
94346,94789
94308,94753
94335,94795
94392,94809
94361,94792
94369,94763
94349,94788
94397,94798
94395,94819
94395,94790
94449,94800
94391,94794
94480,94822
94491,94858
94496,94864
94435,94863
94475,94810
94548,94889
94548,94872
94551,94896
94545,94890
94565,94888
94576,94900
94619,94887
94651,94945
94637,94905
94621,94879
94670,94927
94665,94950
94665,94904
94656,94942
94642,94909
94665,94901
94714,94954
94658,94904
94704,94945
94656,94899
94728,94951
94725,94972
94740,94956
94692,94957
94729,94888
94738,94995
94775,94972
94726,94972
94731,94975
94656,94886
94695,94936
94579,94899
94486,94844
94382,94760
94280,94695
94177,94668
94092,94585
93948,94589
93825,94494
93645,94408
93565,94355
93496,94310
93286,94268
93161,94163
93000,94138
92947,94085
92814,94028
92714,93982
92600,93934
92466,93834
92419,93861
92347,93841
92262,93763
92199,93734
92114,93730
92076,93690
92047,93667
91972,93680
91917,93639
91889,93605
91885,93633
91822,93622
91816,93625
91773,93578
91774,93586
91768,93574
91776,93574
91772,93593
91774,93590
91796,93584
91786,93607
91851,93649
91818,93600
91828,93585
91861,93622
91921,93627
91908,93661
91964,93647
91934,93679
91926,93651
91976,93684
92017,93705
92001,93695
92024,93687
92005,93714
92075,93712
92125,93755
92080,93748
92077,93743
92113,93731
92134,93787
92183,93767
92159,93816
92175,93788
92226,93803
92257,93820
92306,93872
92276,93801
92274,93850
92298,93810
92332,93848
92382,93875
92355,93829
92370,93849
92371,93844
92386,93896
92445,93916
92423,93877
92411,93893
92382,93850
92451,93894
92477,93921
92439,93888
92410,93908
92406,93843
92456,93921
92451,93885
92396,93884
92370,93830
92365,93902
92379,93864
92372,93862
92326,93840
92325,93838
92327,93810
92291,93826
92319,93802
92273,93844
92220,93820
92210,93779
92241,93822
92214,93798
92250,93816
92158,93786
92188,93759
92224,93798
92249,93808
92221,93778
92248,93792
92222,93818
92269,93837
92323,93857
92330,93833
92310,93819
92317,93788
92354,93877
92375,93911
92374,93875
92363,93856
92416,93851
92466,93908
92461,93912
92434,93924
92434,93887
92506,93897
92555,93959
92537,93966
92585,93955
92563,93958
92602,93956
92608,93965
92683,94008
92643,93993
92653,93968
92705,94032
92741,94045
92711,94084
92770,94024
92775,94043
92788,94063
92830,94086
92851,94109
92869,94079
92849,94066
92880,94128
92941,94115
92995,94145
92945,94144
92993,94124
92982,94126
93048,94186
93051,94188
93067,94180
93053,94185
93119,94185
93146,94240
93130,94219
93198,94248
93193,94204
93181,94228
93276,94282
93238,94296
93243,94262
93250,94288
93266,94302
93285,94305
93327,94321
93295,94297
93286,94257
93292,94338
93333,94334
93325,94347
93300,94290
93312,94280
93324,94320
93383,94310
93332,94327
93333,94307
93314,94280
93359,94338
93390,94312
93395,94358
93380,94328
93369,94316
93458,94361
93421,94388
93437,94342
93455,94369
93421,94337
93500,94386
93516,94405
93508,94406
93533,94399
93524,94401
93591,94407
93618,94466
93596,94448
93614,94411
93592,94436
93587,94444
93634,94475
93607,94438
93647,94429
93593,94445
93603,94410
93663,94465
93629,94452
93611,94446
93623,94408
93605,94473
93678,94460
93663,94475
93660,94463
93650,94448
93717,94501
93770,94505
93712,94473
93746,94501
93707,94466
93814,94547
93811,94542
93782,94541
93808,94515
93773,94504
93867,94540
93886,94565
93858,94551
93898,94540
93811,94571
93910,94578
93908,94573
93922,94560
93947,94590
93883,94589
94003,94588
94011,94638
94013,94629
94056,94645
93990,94619
94075,94649
94083,94661
94112,94673
94152,94671
94141,94687
94214,94708
94186,94722
94210,94716
94234,94720
94176,94683
94267,94727
94263,94751
94269,94735
94256,94721
94164,94687
94190,94695
94098,94671
94026,94624
93929,94557
93794,94506
93735,94466
93611,94426
93459,94339
93317,94248
93197,94169
93106,94134
92946,94116
92827,94036
92735,93950
92553,93909
92472,93827
92354,93812
92246,93764
92093,93673
92002,93610
91893,93587
91827,93558
91708,93503
91566,93470
91495,93389
91396,93361
91319,93329
91239,93308
91133,93291
91046,93213
91057,93266
91014,93236
90966,93177
90971,93202
90910,93221
90933,93204
90990,93245
90964,93217
90965,93206
90999,93230
91099,93254
91117,93298
91113,93308
91133,93325
91170,93276
91230,93365
91283,93359
91318,93379
91301,93364
91382,93385
91429,93401
91434,93448
91475,93437
91470,93451
91507,93465
91558,93459
91557,93486
91554,93502
91545,93481
91571,93480
91598,93493
91657,93545
91654,93551
91703,93545
91666,93586
91773,93587
91790,93635
91830,93601
91874,93648
91861,93643
91957,93670
91935,93672
91982,93692
92023,93664
92021,93733
92084,93748
92074,93728
92098,93731
92098,93749
92067,93693
92078,93775
92110,93753
92095,93762
92064,93713
92103,93740
92114,93733
92085,93770
92064,93750
92012,93714
92013,93716
92052,93761
92027,93710
91974,93693
91953,93662
91970,93694
91975,93690
91941,93651
91917,93663
91837,93614
91856,93629
91847,93636
91851,93640
91798,93605
91783,93608
91745,93587
91824,93593
91772,93636
91797,93575
91771,93578
91724,93598
91783,93644
91818,93607
91852,93644
91833,93597
91870,93635
91877,93626
91927,93635
91912,93694
91904,93627
91963,93674
92035,93751
92044,93733
92057,93754
92043,93723
92110,93739
92151,93777
92183,93787
92179,93804
92214,93797
92248,93836
92347,93848
92336,93852
92386,93861
92391,93892
92397,93890
92462,93947
92531,93925
92513,93926
92547,93934
92540,93971
92585,94000
92635,93975
92638,94020
92612,93985
92649,93986
92673,94009
92731,94040
92687,94037
92698,93998
92701,94013
92765,94069
92765,94069
92796,94072
92771,94083
92822,94059
92847,94114
92865,94086
92897,94122
92857,94106
92900,94095
92923,94166
92925,94145
92933,94129
92879,94116
92960,94131
92977,94174
92928,94160
92948,94132
92899,94130
92903,94133
92968,94114
92980,94166
92905,94124
92908,94126
92908,94139
92996,94150
92955,94189
92935,94128
92939,94135
92931,94125
92973,94139
92972,94174
92978,94136
92949,94135
92971,94141
93013,94169
93040,94204
93017,94193
93001,94193
93063,94165
93076,94237
93086,94180
93052,94192
93067,94173
93043,94208
93101,94209
93105,94232
93084,94192
93078,94194
93122,94247
93122,94210
93170,94249
93129,94257
93108,94225
93152,94255
93176,94228
93213,94292
93203,94221
93190,94261
93239,94257
93241,94299
93237,94276
93214,94282
93217,94276
93277,94289
93319,94334
93306,94353
93282,94325
93277,94251
93339,94359
93356,94359
93376,94359
93378,94334
93380,94331
93378,94377
93435,94385
93423,94382
93437,94357
93377,94345
93444,94401
93461,94374
93499,94423
93468,94377
93465,94402
93512,94390
93510,94418
93532,94408
93508,94439
93460,94375
93514,94387
93525,94405
93414,94414
93432,94338
93359,94333
93286,94270
93216,94279
93096,94187
93013,94154
92809,94091
92751,94012
92635,93977
92477,93889
92308,93785
92164,93735
92037,93694
91914,93621
91739,93552
91571,93479
91418,93401
91286,93334
91156,93289
90989,93204
90836,93146
90682,93087
90590,93057
90504,92980
90432,92999
90296,92923
90222,92869
90213,92860
90214,92861
90137,92851
90085,92838
90073,92761
90112,92849
90098,92824
90119,92803
90119,92848
90079,92808
90207,92857
90228,92875
90237,92883
90275,92867
90343,92913
90390,92902
90455,92994
90475,93013
90517,93014
90505,92995
90621,93058
90675,93117
90667,93087
90694,93099
90691,93112
90795,93121
90801,93160
90817,93169
90859,93153
90875,93194
90964,93194
90972,93248
90978,93232
91021,93225
91039,93254
91084,93296
91123,93305
91130,93304
91191,93317
91197,93362
91272,93350
91273,93387
91325,93420
91284,93395
91331,93381
91349,93449
91368,93422
91356,93451
91336,93398
91326,93404
91308,93424
91331,93388
91310,93436
91278,93392
91250,93364
91297,93400
91231,93415
91255,93379
91207,93373
91200,93331
91239,93399
91244,93377
91257,93358
91223,93372
91186,93344
91257,93381
91249,93365
91182,93362
91201,93357
91178,93289
91198,93384
91208,93325
91157,93356
91144,93336
91152,93297
91220,93379
91164,93390
91171,93336
91145,93341
91117,93330
91175,93331
91227,93391
91189,93347
91199,93362
91205,93355
91225,93349
91292,93393
91260,93420
91278,93372
91295,93384
91336,93429
91412,93474
91434,93465
91455,93477
91412,93435
91524,93506
91536,93532
91532,93514
91576,93505
91605,93560
91606,93553
91652,93597
91683,93582
91691,93587
91695,93569
91775,93662
91782,93652
91838,93632
91836,93653
91832,93679
91869,93667
91943,93698
91907,93694
91911,93694
91971,93712
92030,93730
92020,93748
92047,93762
92048,93738
92059,93754
92121,93781
92129,93827
92174,93815
92133,93834
92142,93769
92243,93848
92239,93879
92271,93854
92289,93879
92276,93859
92352,93910
92396,93906
92405,93915
92372,93875
92412,93934
92414,93922
92453,93938
92423,93967
92392,93918
92430,93933
92462,93958
92475,93967
92429,93962
92398,93939
92387,93923
92474,93940
92441,94003
92430,93920
92440,93951
92415,93914
92447,93949
92484,93990
92503,93962
92452,93972
92441,93947
92501,93989
92528,93962
92509,94015
92473,93968
92539,93988
92541,94027
92570,94023
92564,94000
92534,93994
92587,94003
92553,94050
92596,94022
92560,94052
92575,94016
92575,94032
92621,94044
92624,94036
92634,94025
92613,94008
92621,94022
92623,94046
92670,94072
92667,94051
92594,94046
92653,94037
92688,94084
92742,94096
92711,94082
92686,94045
92726,94089
92762,94117
92772,94118
92777,94099
92766,94089
92799,94111
92839,94149
92846,94143
92839,94132
92809,94122
92867,94129
92865,94164
92859,94156
92911,94161
92835,94115
92923,94181
92928,94183
92957,94184
92942,94201
92924,94188
92978,94167
92992,94223
92971,94196
93003,94226
92945,94198
93000,94218
93051,94246
93033,94259
93003,94232
92986,94190
92997,94240
92996,94208
92990,94209
92921,94168
92826,94114
92745,94089
92713,94048
92568,94033
92492,93923
92311,93852
92214,93828
92082,93781
91940,93677
91782,93590
91589,93522
91492,93473
91313,93387
91156,93291
90979,93252
90805,93170
90691,93127
90504,93052
90385,92972
90211,92881
90096,92818
90031,92823
89923,92812
89847,92725
89774,92694
89718,92669
89675,92666
89647,92665
89677,92616
89646,92620
89618,92588
89683,92614
89689,92660
89685,92606
89715,92666
89746,92662
89766,92678
89852,92694
89859,92755
89889,92763
89899,92734
89977,92759
90052,92807
90060,92839
90140,92836
90121,92838
90202,92892
90275,92934
90280,92913
90324,92972
90321,92930
90410,92999
90452,93030
90435,92981
90471,93022
90436,92988
90529,93026
90543,93059
90504,93077
90524,93062
90578,93024
90584,93107
90636,93110
90603,93112
90640,93103
90651,93122
90671,93104
90736,93154
90734,93161
90747,93155
90687,93132
90794,93180
90810,93206
90820,93179
90807,93209
90778,93197
90855,93188
90851,93246
90837,93184
90874,93225
90809,93179
90858,93248
90853,93230
90842,93209
90833,93164
90826,93209
90823,93199
90822,93209
90820,93191
90778,93213
90729,93130
90808,93192
90783,93175
90731,93179
90717,93159
90693,93111
90713,93165
90710,93146
90688,93164
90695,93149
90728,93116
90701,93135
90761,93163
90760,93193
90755,93160
90783,93144
90807,93233
90828,93196
90875,93182
90876,93218
90847,93220
90942,93238
90938,93276
90934,93298
90953,93247
90976,93246
91035,93305
91043,93310
91037,93339
91054,93301
91111,93299
91113,93324
91143,93355
91179,93384
91175,93373
91210,93364
91241,93410
91296,93394
91308,93434
91319,93414
91286,93421
91375,93471
91369,93488
91422,93460
91396,93486
91382,93455
91465,93527
91469,93509
91506,93531
91494,93512
91510,93485
91554,93561
91629,93596
91606,93554
91646,93579
91584,93518
91664,93587
91665,93592
91674,93603
91701,93616
91725,93592
91723,93653
91758,93648
91794,93631
91773,93663
91762,93613
91826,93659
91825,93694
91803,93686
91800,93648
91819,93644
91869,93698
91864,93701
91897,93693
91888,93707
91831,93685
91933,93721
91897,93754
91922,93705
91890,93721
91883,93689
91941,93755
91965,93754
91947,93762
91943,93730
91983,93740
92016,93756
91999,93761
92012,93772
91969,93756
92006,93742
92036,93786
92060,93796
92067,93755
92031,93765
92062,93741
92083,93823
92050,93796
92054,93788
92070,93770
92070,93776
92061,93802
92120,93793
92061,93829
92105,93816
92082,93790
92110,93831
92110,93805
92098,93839
92079,93793
92103,93787
92155,93826
92131,93815
92156,93855
92088,93821
92158,93792
92167,93840
92245,93879
92222,93834
92183,93861
92183,93818
92279,93895
92273,93889
92276,93900
92265,93865
92264,93867
92336,93932
92333,93958
92358,93952
92345,93924
92364,93901
92441,93984
92404,93967
92418,93953
92402,93938
92384,93947
92486,93980
92486,93976
92422,94006
92444,93941
92407,93940
92480,93986
92465,94003
92473,93969
92499,93985
92489,93969
92552,94035
92560,94024
92556,94045
92532,93974
92585,94045
92620,94030
92617,94080
92631,94051
92675,94040
92659,94062
92742,94086
92706,94131
92743,94105
92704,94090
92722,94104
92781,94123
92790,94094
92735,94126
92718,94104
92684,94054
92701,94078
92580,94042
92527,93953
92434,93917
92314,93842
92221,93829
92086,93794
91900,93674
91749,93555
91615,93556
91452,93439
91245,93381
91086,93278
90903,93207
90682,93100
90551,93059
90364,92957
90146,92872
89977,92775
89828,92754
89717,92644
89625,92608
89516,92555
89378,92487
89354,92503
89303,92488
89255,92417
89208,92455
89179,92409
89208,92426
89201,92414
89197,92414
89181,92401
89211,92372
89270,92461
89278,92457
89325,92468
89328,92474
89328,92440
89410,92525
89446,92538
89529,92543
89539,92567
89566,92589
89599,92629
89702,92660
89737,92676
89727,92651
89787,92674
89806,92692
89850,92698
89878,92743
89888,92752
89905,92732
89940,92737
90013,92761
89954,92832
89988,92817
89975,92789
90055,92805
90058,92828
90108,92833
90087,92864
90102,92819
90159,92830
90220,92899
90227,92941
90258,92936
90239,92911
90343,92956
90338,92974
90376,93008
90399,92962
90407,92954
90388,92976
90444,93011
90431,92999
90420,93010
90356,92957
90436,93005
90396,93010
90368,92975
90331,92976
90337,92954
90350,92951
90359,93004
90298,92946
90307,92971
90261,92900
90259,92921
90292,92936
90235,92949
90222,92923
90200,92893
90258,92913
90233,92931
90217,92922
90233,92888
90222,92924
90240,92927
90240,92949
90244,92938
90237,92915
90235,92903
90248,92894
90301,92950
90278,92948
90274,92964
90231,92880
90310,92964
90313,92948
90342,92946
90335,92958
90302,92931
90352,92979
90392,92979
90408,93013
90420,92973
90388,92989
90460,93015
90509,93057
90498,93026
90508,93071
90507,93028
90607,93081
90591,93080
90616,93061
90674,93110
90630,93123
90712,93128
90728,93152
90762,93121
90768,93158
90747,93196
90866,93184
90871,93241
90909,93243
90913,93199
90942,93224
90967,93243
91046,93289
91013,93298
91041,93273
91061,93286
91089,93319
91100,93318
91158,93366
91122,93322
91129,93309
91167,93329
91188,93367
91157,93349
91178,93356
91184,93352
91210,93400
91228,93400
91205,93368
91243,93394
91224,93366
91256,93408
91295,93412
91261,93393
91284,93415
91278,93394
91286,93427
91355,93433
91318,93430
91347,93438
91338,93415
91377,93459
91421,93475
91424,93484
91409,93477
91423,93473
91459,93489
91443,93519
91475,93535
91464,93484
91443,93510
91520,93520
91515,93541
91507,93523
91503,93489
91490,93517
91544,93522
91541,93554
91567,93541
91545,93568
91553,93511
91610,93588
91645,93582
91596,93538
91603,93546
91592,93551
91632,93574
91685,93581
91655,93630
91647,93584
91699,93604
91703,93628
91707,93639
91708,93648
91671,93596
91717,93618
91747,93611
91760,93668
91773,93640
91711,93626
91734,93658
91801,93656
91764,93690
91793,93699
91763,93685
91809,93650
91862,93708
91904,93719
91869,93703
91873,93710
91939,93711
92009,93769
92030,93757
92001,93798
92007,93760
92059,93769
92121,93821
92131,93818
92104,93861
92093,93800
92145,93811
92158,93872
92145,93824
92164,93835
92114,93827
92158,93806
92215,93865
92179,93880
92206,93864
92179,93812
92168,93828
92238,93877
92239,93917
92215,93845
92210,93840
92200,93871
92277,93894
92258,93896
92293,93926
92282,93874
92298,93903
92318,93930
92381,93934
92351,93960
92363,93924
92368,93929
92440,93974
92457,94000
92426,93940
92390,93964
92380,93954
92412,93951
92342,93950
92282,93858
92123,93824
92065,93721
91979,93751
91810,93655
91685,93601
91516,93488
91348,93432
91181,93348
90994,93247
90844,93217
90613,93084
90461,92988
90306,92932
90079,92851
89931,92785
89698,92673
89627,92613
89516,92590
89384,92543
89304,92450
89197,92429
89131,92347
89091,92403
89041,92363
89009,92331
89018,92289
88969,92332
89024,92321
88999,92377
89010,92341
89040,92322
89029,92336
89124,92379
89110,92369
89151,92399
89163,92390
89205,92401
89270,92444
89306,92498
89340,92472
89379,92474
89436,92516
89476,92553
89501,92581
89549,92555
89561,92596
89601,92589
89625,92630
89672,92649
89656,92638
89685,92631
89704,92682
89755,92686
89752,92710
89782,92697
89746,92656
89790,92718
89844,92746
89827,92723
89844,92738
89853,92719
89935,92754
89964,92797
89953,92788
89997,92845
90006,92817
90083,92832
90088,92862
90154,92869
90117,92905
90128,92850
90181,92923
90216,92926
90256,92922
90259,92955
90198,92884
90259,92947
90264,92945
90272,92984
90243,92914
90204,92910
90272,92908
90248,92960
90255,92929
90179,92943
90159,92863
90210,92912
90168,92922
90134,92882
90128,92896
90114,92824
90099,92865
90123,92863
90142,92915
90121,92843
90088,92830
90109,92878
90134,92862
90146,92900
90114,92876
90155,92873
90170,92856
90204,92923
90209,92942
90173,92904
90153,92873
90202,92917
90240,92919
90183,92929
90218,92913
90227,92929
90239,92908
90251,92980
90263,92980
90297,92952
90287,92939
90277,92931
90373,92982
90329,92993
90316,92981
90336,92955
90367,93026
90402,93021
90458,93040
90443,93027
90436,93014
90501,93029
90574,93075
90527,93107
90562,93063
90584,93063
90604,93065
90661,93124
90669,93130
90708,93145
90692,93076
90748,93154
90777,93191
90832,93221
90779,93206
90774,93157
90885,93254
90900,93235
90928,93258
90913,93242
90938,93248
90972,93296
91017,93281
91031,93283
91032,93301
91035,93301
91074,93293
91148,93365
91076,93330
91097,93359
91046,93305
91152,93359
91108,93383
91168,93393
91116,93358
91114,93325
91135,93362
91176,93369
91151,93353
91167,93383
91129,93307
91199,93407
91199,93405
91178,93394
91223,93370
91227,93378
91233,93391
91292,93439
91308,93433
91282,93391
91320,93436
91325,93452
91366,93483
91363,93479
91372,93487
91379,93442
91392,93488
91435,93515
91421,93472
91420,93510
91402,93495
91474,93511
91446,93518
91439,93516
91438,93482
91432,93506
91494,93498
91507,93556
91506,93524
91501,93531
91455,93482
91510,93515
91544,93567
91536,93572
91480,93530
91505,93508
91536,93547
91545,93565
91559,93555
91528,93577
91533,93509
91560,93565
91626,93615
91572,93579
91624,93589
91585,93563
91660,93583
91689,93666
91681,93590
91647,93630
91686,93603
91735,93672
91748,93649
91772,93693
91760,93639
91795,93640
91818,93692
91894,93735
91837,93685
91885,93685
91859,93717
91906,93717
91961,93760
91958,93728
91934,93767
91953,93688
91968,93755
91995,93766
91987,93770
91991,93780
92016,93728
92025,93809
92024,93767
92037,93808
92026,93763
92051,93776
92102,93834
92108,93863
92135,93815
92135,93844
92090,93828
92191,93862
92233,93917
92233,93863
92229,93899
92230,93908
92282,93907
92337,93940
92292,93881
92310,93894
92272,93864
92254,93891
92262,93894
92186,93860
92106,93787
92015,93727
91961,93707
91849,93665
91684,93630
91532,93497
91426,93425
91238,93394
91113,93300
90934,93200
90748,93156
90594,93064
90438,93008
90239,92928
90090,92852
89917,92744
89747,92659
89684,92664
89477,92589
89378,92539
89248,92446
89158,92426
89136,92411
89107,92371
89026,92336
88927,92324
88939,92284
88922,92294
88985,92291
88914,92298
88890,92256
88974,92306
88988,92291
89072,92361
89030,92355
89094,92380
89101,92345
89214,92415
89214,92458
89264,92418
89298,92481
89345,92489
89363,92501
89431,92519
89477,92573
89513,92562
89534,92567
89602,92619
89632,92608
89687,92681
89645,92639
89739,92637
89782,92700
89820,92730
89811,92721
89833,92710
89877,92746
89919,92774
89978,92809
89977,92822
89970,92761
90069,92873
90103,92851
90168,92894
90124,92913
90206,92874
90205,92947
90258,92939
90331,92974
90318,92951
90326,92963
90340,92994
90367,93038
90421,93022
90420,92997
90429,93006
90394,92960
90440,93024
90458,93036
90408,93008
90398,92964
90433,93017
90393,93000
90420,92996
90359,93012
90350,92990
90297,92951
90317,92970
90311,92948
90255,92952
90193,92915
90176,92911
90213,92929
90200,92893
90103,92875
90114,92852
90131,92867
90154,92891
90128,92877
90126,92878
90111,92854
90127,92880
90160,92892
90148,92893
90191,92915
90160,92881
90205,92925
90246,92944
90286,92957
90275,92971
90247,92918
90358,92988
90349,92982
90388,92980
90418,93020
90311,92974
90364,92983
90433,93025
90462,93020
90442,93030
90374,92976
90478,93049
90473,93066
90495,93060
90523,93061
90518,93028
90561,93100
90612,93130
90665,93097
90688,93157
90623,93116
90757,93148
90764,93183
90792,93226
90794,93181
90834,93212
90893,93190
90922,93280
90932,93256
90906,93261
90916,93204
90943,93272
90995,93288
90987,93260
90979,93292
90935,93209
90990,93309
90998,93312
91029,93307
91006,93286
91024,93304
91034,93277
91042,93305
91062,93326
91054,93318
91002,93309
91087,93293
91081,93346
91114,93344
91078,93306
91072,93300
91082,93338
91132,93357
91135,93355
91113,93343
91125,93322
91151,93341
91188,93394
91204,93370
91169,93358
91140,93327
91169,93366
91188,93388
91173,93381
91183,93371
91158,93368
91199,93391
91262,93394
91210,93392
91229,93392
91205,93362
91220,93372
91264,93415
91240,93385
91270,93413
91201,93397
91288,93425
91261,93418
91231,93423
91226,93390
91218,93384
91242,93381
91260,93421
91224,93361
91223,93418
91210,93352
91251,93395
91275,93423
91235,93406
91261,93379
91210,93375
91281,93444
91281,93424
91240,93407
91297,93420
91278,93444
91314,93425
91341,93470
91347,93451
91365,93486
91319,93418
91389,93487
91416,93490
91423,93530
91425,93468
91435,93506
91510,93499
91494,93543
91514,93549
91477,93524
91530,93496
91551,93529
91572,93562
91567,93549
91566,93564
91527,93540
91604,93553
91624,93611
91593,93540
91633,93547
91603,93559
91626,93587
91663,93577
91635,93601
91610,93570
91595,93595
91671,93618
91671,93608
91722,93643
91698,93615
91703,93584
91782,93645
91810,93656
91784,93674
91815,93654
91780,93675
91871,93699
91909,93696
91881,93707
91875,93685
91929,93712
91984,93723
92002,93777
91963,93742
91952,93757
91959,93724
92002,93749
91969,93778
92001,93778
91949,93750
91945,93726
91960,93735
91935,93731
91871,93686
91770,93652
91683,93559
91645,93541
91499,93471
91346,93444
91147,93315
91052,93244
90905,93187
90708,93126
90502,93003
90311,92890
90096,92790
89937,92725
89751,92648
89504,92551
89347,92444
89158,92383
89030,92354
88893,92241
88752,92217
88628,92131
88540,92084
88477,92025
88441,92015
88339,91964
88337,91963
88292,91950
88317,91972
88264,91951
88291,91958
88261,91912
88301,91932
88346,91961
88342,91977
88363,91975
88366,91947
88360,91958
88444,91987
88454,92015
88483,92032
88469,92009
88523,92055
88553,92078
88623,92086
88624,92104
88662,92111
88670,92112
88746,92178
88798,92148
88779,92224
88806,92192
88856,92228
88884,92235
88946,92258
88929,92249
88966,92239
88993,92251
89045,92314
89034,92303
89032,92291
88974,92318
89021,92278
89113,92330
89084,92346
89122,92353
89167,92387
89153,92343
89236,92431
89223,92437
89241,92437
89260,92378
89295,92473
89331,92438
89362,92463
89323,92490
89293,92443
89317,92416
89371,92467
89323,92466
89347,92471
89283,92430
89320,92431
89326,92442
89298,92421
89284,92452
89240,92415
89212,92387
89280,92430
89261,92394
89258,92411
89184,92421
89194,92379
89199,92408
89204,92385
89201,92390
89141,92374
89199,92369
89187,92422
89138,92387
89135,92394
89119,92319
89152,92388
89145,92366
89165,92361
89134,92338
89132,92347
89162,92377
89212,92383
89171,92430
89209,92384
89229,92381
89231,92433
89268,92439
89339,92445
89312,92480
89324,92409
89397,92485
89429,92517
89426,92485
89509,92512
89478,92552
89509,92523
89535,92561
89611,92589
89599,92605
89584,92514
89608,92596
89656,92596
89643,92612
89613,92593
89631,92567
89636,92589
89677,92618
89686,92634
89702,92625
89640,92585
89696,92609
89688,92654
89726,92640
89713,92638
89717,92659
89800,92670
89809,92712
89828,92695
89902,92697
89853,92738
89938,92719
89970,92763
90022,92814
90004,92799
90033,92775
90083,92824
90101,92830
90143,92819
90159,92851
90118,92841
90197,92848
90187,92911
90185,92880
90220,92870
90166,92876
90230,92853
90245,92907
90209,92887
90215,92883
90226,92867
90269,92920
90252,92923
90300,92911
90281,92933
90282,92892
90308,92922
90338,92967
90358,92926
90349,92963
90317,92918
90367,92980
90391,92982
90426,92984
90444,92967
90432,93008
90465,93011
90527,93040
90487,93044
90527,93025
90470,92988
90566,93051
90583,93074
90597,93032
90585,93052
90557,93052
90602,93082
90638,93103
90632,93092
90592,93096
90639,93025
90647,93101
90631,93084
90652,93098
90649,93070
90633,93064
90654,93071
90742,93133
90674,93095
90690,93106
90704,93072
90726,93106
90769,93141
90757,93131
90753,93161
90775,93158
90824,93191
90853,93191
90859,93219
90850,93161
90862,93160
90896,93232
90943,93247
90919,93215
90914,93208
90968,93239
90972,93247
90991,93245
91006,93260
91015,93248
90957,93220
91052,93258
91043,93331
91043,93244
91046,93293
91026,93239
91105,93303
91135,93317
91085,93316
91114,93266
91079,93275
91153,93336
91179,93338
91170,93326
91196,93349
91153,93311
91260,93366
91253,93394
91211,93364
91272,93349
91249,93393
91288,93363
91330,93406
91298,93424
91318,93437
91314,93375
91416,93468
91390,93465
91447,93448
91447,93465
91467,93456
91455,93518
91507,93491
91482,93503
91476,93489
91508,93469
91522,93516
91593,93522
91561,93574
91571,93518
91541,93517
91610,93575
91584,93540
91545,93516
91452,93471
91389,93398
91331,93379
91221,93348
91041,93275
90950,93158
90787,93132
90633,93017
90485,92977
90306,92866
90081,92793
89925,92655
89737,92651
89558,92523
89372,92441
89187,92355
88994,92266
88907,92241
88796,92172
88629,92092
88547,92024
88401,91951
88378,91971
88313,91936
88274,91913
88241,91885
88190,91871
88222,91890
88243,91901
88212,91870
88204,91869
88202,91866
88285,91911
88331,91930
88347,91955
88357,91950
88362,91927
88467,92011
88489,92025
88509,92015
88539,92040
88566,92011
88604,92047
88673,92104
88687,92127
88674,92069
88733,92127
88771,92166
88797,92171
88856,92180
88848,92156
88852,92199
88900,92220
88945,92216
88985,92241
88973,92251
88980,92203
89041,92274
89066,92293
89103,92308
89065,92298
89099,92306
89159,92342
89192,92363
89195,92353
89190,92377
89186,92369
89255,92368
89240,92407
89286,92401
89250,92388
89245,92367
89282,92396
89273,92395
89274,92389
89233,92382
89229,92360
89240,92398
89272,92407
89256,92388
89221,92361
89245,92370
89251,92382
89302,92409
89282,92399
89268,92360
89289,92364
89292,92393
89345,92392
89297,92404
89283,92411
89312,92393
89297,92427
89306,92424
89295,92407
89280,92391
89242,92381
89301,92418
89320,92414
89287,92402
89242,92383
89253,92373
89288,92420
89343,92444
89314,92433
89285,92405
89308,92408
89344,92412
89366,92439
89351,92438
89352,92435
89373,92448
89391,92456
89425,92484
89381,92467
89398,92442
89411,92440
89457,92504
89465,92482
89484,92493
89435,92467
89457,92489
89495,92502
89564,92553
89553,92504
89522,92523
89600,92537
89624,92572
89606,92534
89608,92570
89615,92552
89701,92562
89726,92626
89724,92606
89720,92623
89749,92620
89749,92609
89793,92609
89785,92689
89819,92660
89806,92646
89851,92666
89885,92707
89864,92669
89875,92676
89886,92658
89877,92680
89911,92692
89924,92728
89925,92697
89883,92664
89923,92711
89951,92707
89948,92775
89974,92732
89982,92699
89977,92736
90000,92752
90024,92768
90027,92776
89977,92743
90073,92772
90102,92810
90117,92815
90102,92814
90096,92764
90133,92811
90123,92826
90172,92849
90172,92807
90140,92804
90183,92826
90237,92877
90203,92839
90189,92846
90193,92845
90200,92835
90288,92910
90243,92860
90256,92876
90270,92883
90315,92852
90315,92930
90316,92893
90312,92901
90291,92891
90335,92883
90374,92920
90359,92954
90381,92943
90375,92925
90387,92951
90449,92991
90416,92955
90444,92954
90383,92956
90417,92933
90505,92993
90445,92986
90462,92965
90429,92940
90488,92956
90521,93021
90498,92952
90529,92995
90512,92973
90545,93027
90554,93024
90616,93052
90613,93033
90599,93032
90642,93060
90689,93074
90697,93109
90720,93098
90707,93088
90744,93126
90820,93168
90831,93142
90831,93156
90850,93152
90897,93162
90904,93185
90955,93196
90933,93209
90932,93201
91006,93222
91025,93256
91009,93232
91018,93261
91032,93233
91043,93272
91076,93288
91108,93310
91140,93282
91112,93257
91139,93304
91184,93315
91181,93310
91223,93360
91214,93289
91254,93364
91327,93386
91326,93345
91287,93380
91300,93372
91378,93402
91389,93427
91424,93427
91449,93447
91390,93402
91465,93449
91480,93491
91477,93474
91471,93450
91384,93405
91442,93424
91405,93400
91314,93365
91253,93300
91087,93216
91066,93213
90951,93157
90808,93109
90670,93042
90480,92947
90350,92872
90194,92800
90019,92707
89838,92626
89646,92530
89521,92484
89350,92406
89181,92341
89004,92228
88835,92170
88754,92108
88639,92059
88511,92017
88419,91965
88307,91907
88289,91879
88234,91889
88176,91847
88167,91827
88132,91784
88148,91819
88193,91859
88188,91822
88180,91851
88214,91836
88299,91872
88313,91909
88339,91912
88369,91905
88407,91904
88452,91968
88499,91996
88519,92002
88583,91993
88583,92013
88679,92047
88660,92062
88727,92099
88730,92086
88719,92059
88802,92139
88800,92151
88801,92133
88825,92138
88772,92123
88844,92163
88880,92160
88855,92155
88872,92175
88853,92161
88946,92213
88993,92203
88954,92231
88991,92216
89000,92202
89071,92252
89101,92282
89104,92279
89125,92290
89123,92265
89163,92334
89195,92333
89146,92298
89126,92282
89117,92278
89148,92279
89131,92299
89105,92261
89092,92270
89034,92261
89092,92274
89116,92279
89035,92245
89037,92254
89013,92229
88996,92261
88993,92237
88993,92228
88970,92239
88978,92173
88994,92235
88984,92209
88983,92229
88929,92236
88934,92164
88977,92225
88968,92248
88953,92205
88991,92211
88963,92220
88997,92235
89079,92271
89058,92252
89079,92244
89092,92277
89185,92315
89179,92334
89193,92334
89262,92364
89291,92360
89309,92389
89375,92442
89397,92431
89400,92431
89446,92410
89456,92456
89524,92497
89529,92487
89511,92475
89543,92495
89572,92521
89621,92537
89619,92530
89605,92530
89624,92520
89666,92565
89717,92612
89732,92606
89709,92583
89790,92594
89844,92645
89862,92680
89898,92664
89893,92671
89984,92698
90026,92723
90025,92750
90110,92754
90086,92766
90140,92776
90180,92820
90231,92841
90239,92843
90241,92825
90244,92813
90294,92853
90335,92880
90294,92871
90316,92828
90310,92841
90374,92909
90378,92887
90356,92899
90356,92874
90330,92875
90404,92928
90416,92906
90416,92956
90409,92924
90429,92897
90482,92927
90469,92960
90492,92959
90506,92951
90548,92961
90600,93025
90594,93015
90590,93009
90620,92986
90665,93033
90707,93065
90692,93056
90699,93054
90704,93042
90725,93079
90781,93076
90765,93108
90774,93102
90764,93070
90795,93079
90846,93128
90863,93154
90856,93116
90834,93109
90876,93120
90884,93142
90920,93177
90930,93153
90909,93135
90932,93144
90967,93155
90955,93170
90940,93166
90938,93173
90963,93181
90974,93186
90981,93176
90991,93188
90967,93174
91036,93194
91039,93221
91075,93251
91073,93234
91078,93218
91095,93250
91170,93267
91180,93260
91182,93258
91179,93260
91213,93283
91238,93302
91234,93340
91283,93311
91248,93336
91269,93280
91294,93337
91304,93326
91326,93342
91280,93325
91323,93357
91321,93345
91327,93387
91334,93361
91318,93308
91329,93377
91389,93385
91412,93367
91445,93404
91409,93380
91413,93422
91483,93440
91544,93458
91495,93449
91512,93447
91547,93440
91591,93466
91610,93513
91616,93495
91573,93481
91619,93490
91691,93524
91631,93502
91660,93504
91690,93533
91685,93523
91733,93554
91737,93576
91706,93535
91612,93493
91613,93442
91569,93485
91454,93375
91345,93341
91229,93261
91120,93248
91050,93172
90848,93110
90706,93037
90522,92928
90362,92870
90227,92780
90000,92705
89820,92575
89661,92505
89505,92443
89341,92376
89219,92344
88998,92239
88887,92120
88780,92103
88684,92051
88589,92030
88541,91974
88425,91952
88391,91921
88384,91922
88376,91876
88332,91884
88312,91835
88336,91909
88394,91921
88398,91933
88453,91937
88421,91932
88535,91979
88596,91995
88628,92039
88636,92027
88681,92037
88759,92074
88785,92116
88828,92165
88846,92127
88892,92125
88897,92152
88978,92203
88967,92198
89012,92190
88982,92214
89047,92232
89095,92272
89119,92252
89073,92278
89077,92206
89134,92273
89136,92291
89183,92282
89199,92280
89158,92290
89203,92303
89264,92343
89287,92366
89288,92349
89269,92347
89336,92357
89374,92422
89370,92372
89394,92393
89368,92359
89462,92411
89441,92453
89453,92418
89419,92434
89384,92425
89455,92410
89515,92483
89454,92393
89470,92432
89458,92413
89458,92457
89500,92467
89453,92416
89479,92442
89377,92394
89480,92442
89484,92448
89448,92451
89422,92437
89424,92385
89428,92426
89423,92391
89382,92408
89383,92367
89282,92374
89323,92360
89353,92396
89350,92344
89300,92381
89262,92362
89290,92353
89325,92360
89302,92380
89300,92381
89296,92338
89327,92397
89377,92376
89342,92398
89373,92389
89371,92362
89407,92431
89442,92440
89434,92410
89505,92445
89417,92396
89503,92437
89565,92493
89564,92476
89534,92489
89563,92434
89592,92521
89592,92508
89567,92513
89571,92506
89530,92435
89595,92484
89614,92529
89593,92477
89625,92525
89588,92469
89663,92535
89695,92549
89662,92561
89665,92504
89685,92509
89742,92581
89768,92621
89794,92579
89787,92614
89759,92541
89841,92603
89813,92618
89839,92587
89849,92641
89803,92585
89896,92631
89938,92680
89886,92666
89907,92622
89884,92659
89936,92665
89988,92694
89970,92680
89970,92674
89984,92711
90036,92716
90074,92719
90020,92736
90059,92720
90067,92683
90098,92744
90125,92767
90121,92736
90162,92771
90101,92733
90176,92775
90160,92818
90153,92758
90150,92778
90116,92746
90205,92800
90150,92816
90195,92753
90210,92816
90168,92733
90218,92804
90206,92808
90206,92800
90139,92806
90169,92757
90162,92776
90195,92777
90161,92813
90142,92770
90130,92740
90162,92776
90189,92808
90130,92794
90103,92710
90155,92778
90151,92770
90163,92801
90166,92762
90153,92782
90145,92747
90190,92807
90192,92850
90231,92785
90239,92819
90213,92774
90294,92831
90317,92870
90311,92830
90364,92860
90354,92825
90417,92902
90472,92918
90445,92900
90428,92916
90470,92906
90513,92932
90532,92932
90512,92922
90514,92938
90453,92890
90536,92959
90546,92956
90483,92957
90487,92907
90467,92888
90538,92943
90519,92982
90507,92922
90546,92940
90542,92947
90583,92980
90593,92986
90628,92968
90596,93007
90647,92978
90695,93032
90746,93057
90724,93062
90747,93050
90763,93047
90836,93096
90809,93086
90807,93095
90758,93012
90725,93056
90700,93007
90609,92974
90485,92930
90404,92831
90257,92757
90157,92726
89994,92685
89773,92566
89596,92456
89415,92397
89254,92280
89084,92195
88851,92126
88634,91999
88482,91904
88329,91865
88211,91822
88037,91708
87950,91638
87854,91563
87833,91604
87770,91558
87730,91529
87635,91522
87645,91499
87650,91514
87707,91540
87656,91490
87714,91482
87696,91524
87776,91567
87816,91558
87807,91590
87825,91542
87830,91580
87929,91646
87898,91617
87914,91601
87924,91605
87963,91648
87985,91672
88011,91711
88008,91653
88016,91661
88041,91693
88081,91737
88076,91711
88080,91718
88062,91714
88103,91717
88133,91747
88138,91734
88126,91743
88136,91741
88173,91753
88178,91774
88206,91794
88220,91810
88207,91772
88226,91790
88290,91844
88316,91849
88343,91849
88301,91830
88343,91851
88407,91911
88447,91901
88405,91897
88393,91851
88468,91882
88452,91909
88490,91909
88450,91903
88426,91911
88448,91903
88480,91900
88445,91904
88438,91859
88410,91909
88478,91893
88484,91934
88493,91938
88482,91912
88509,91909
88513,91903
88522,91934
88559,91948
88513,91950
88525,91901
88567,91929
88567,91994
88562,91929
88560,91924
88540,91935
88593,91955
88597,91963
88606,91971
88635,91952
88587,91953
88632,92007
88673,92013
88634,91986
88683,91992
88663,91991
88720,92009
88717,92055
88755,92011
88799,92063
88770,92033
88789,92084
88841,92104
88886,92105
88880,92116
88859,92040
88918,92119
88983,92149
88951,92156
88978,92135
88978,92144
89017,92158
89045,92194
89091,92201
89058,92219
89105,92151
89151,92239
89164,92248
89207,92269
89194,92262
89240,92239
89295,92285
89322,92357
89326,92297
89385,92311
89359,92361
89406,92370
89507,92429
89492,92388
89553,92403
89524,92400
89626,92480
89655,92480
89654,92494
89679,92483
89667,92501
89746,92528
89792,92542
89808,92551
89794,92546
89807,92534
89870,92569
89860,92581
89882,92593
89889,92613
89864,92536
89928,92631
89936,92624
89957,92623
89929,92629
89904,92619
89967,92646
90006,92654
89944,92645
89978,92613
89972,92646
90028,92660
90071,92654
90042,92699
90034,92654
90050,92650
90093,92677
90165,92733
90142,92706
90139,92745
90186,92688
90224,92755
90250,92795
90240,92760
90269,92760
90232,92756
90289,92789
90316,92815
90313,92783
90350,92822
90291,92763
90353,92807
90374,92871
90350,92805
90354,92805
90347,92836
90389,92840
90385,92837
90414,92821
90402,92864
90360,92794
90408,92846
90422,92854
90398,92846
90365,92784
90411,92844
90413,92846
90404,92874
90376,92825
90416,92818
90348,92839
90364,92826
90446,92850
90377,92865
90391,92829
90382,92861
90435,92864
90475,92889
90427,92867
90437,92833
90458,92895
90498,92863
90534,92869
90544,92908
90502,92921
90540,92918
90554,92913
90584,92942
90587,92931
90595,92910
90582,92923
90658,92972
90637,92955
90672,92960
90658,92993
90650,92917
90718,92992
90729,93025
90733,92978
90796,93022
90733,92969
90837,93054
90855,93056
90821,93053
90871,93058
90881,93046
90965,93111
90969,93095
91003,93130
90980,93152
91016,93114
91031,93150
91049,93145
90985,93120
90974,93109
90867,93044
90869,93050
90772,93036
90647,92936
90561,92832
90368,92782
90278,92741
90151,92648
89942,92574
89738,92502
89579,92394
89426,92321
89277,92265
89034,92188
88853,92025
88676,92006
88603,91961
88489,91893
88348,91787
88247,91789
88154,91665
88111,91697
88068,91648
87994,91620
87958,91563
87927,91593
87964,91596
87960,91577
87979,91607
87972,91604
87965,91614
88067,91655
88107,91677
88099,91698
88146,91643
88181,91703
88299,91770
88325,91800
88353,91793
88369,91770
88411,91834
88496,91888
88581,91887
88580,91930
88572,91869
88630,91958
88704,91960
88716,92004
88723,91963
88749,92005
88766,91956
88861,92036
88866,92041
88834,92036
88856,92037
88873,92021
88935,92080
88944,92071
89003,92123
88970,92094
88996,92126
89101,92171
89156,92173
89133,92205
89124,92142
89199,92218
89225,92248
89279,92323
89282,92245
89343,92265
89344,92264
89395,92337
89426,92345
89401,92311
89407,92302
89406,92322
89444,92305
89469,92348
89484,92350
89440,92353
89484,92323
89518,92377
89502,92369
89516,92362
89516,92335
89568,92364
89538,92421
89594,92390
89585,92384
89593,92386
89542,92393
89617,92373
89626,92464
89608,92420
89617,92381
89619,92413
89662,92428
89649,92457
89645,92460
89677,92414
89672,92413
89717,92471
89704,92441
89749,92500
89690,92438
89697,92456
89780,92508
89763,92498
89778,92471
89774,92509
89844,92520
89892,92532
89868,92541
89933,92582
89960,92520
89992,92581
90065,92657
90048,92646
90108,92620
90128,92666
90197,92672
90219,92712
90260,92716
90266,92735
90264,92726
90340,92721
90362,92788
90379,92772
90422,92810
90358,92779
90406,92828
90493,92835
90462,92844
90466,92825
90516,92859
90546,92854
90601,92896
90564,92882
90623,92907
90587,92859
90657,92934
90714,92928
90738,93005
90728,92949
