11111,11111
0,0
82403,82377
130667,108341
133001,108329
133023,108306
133061,108349
133057,108363
133057,108343
133093,108336
133118,108351
133091,108368
133069,108319
133042,108347
132979,108295
132954,108280
132843,108229
132741,108211
132678,108181
132585,108152
132492,108077
132455,108043
132394,108060
132369,108048
132500,108038
132524,108112
132561,108110
132636,108165
132728,108181
132906,108223
133032,108302
133143,108357
133233,108416
133359,108432
133480,108504
133560,108534
133686,108552
133667,108586
133719,108599
133749,108569
133731,108580
133613,108541
133516,108488
133429,108479
133307,108415
133134,108330
132932,108245
132657,108149
132450,108028
132260,107961
132014,107858
131789,107761
131543,107675
131423,107573
131301,107527
131162,107491
131050,107456
130933,107376
130895,107354
130917,107400
130871,107391
130849,107348
130853,107374
130878,107387
130961,107437
130982,107408
130999,107485
131001,107462
131110,107450
131113,107487
131155,107488
131170,107528
131143,107533
131286,107537
131314,107577
131343,107554
131383,107602
131350,107620
131454,107646
131475,107659
131495,107624
131520,107639
131525,107679
131557,107702
131605,107675
131615,107692
131660,107721
131681,107750
131733,107752
131868,107804
131893,107857
131941,107822
131985,107860
132103,107912
132163,107889
132194,107946
132213,107941
132179,107950
132261,107942
132279,107985
132269,107973
132297,107971
132224,107989
132220,107943
132222,107949
132182,107929
132165,107939
132105,107883
132183,107916
132144,107915
132115,107892
132095,107906
132023,107864
132041,107870
132037,107874
131953,107819
131929,107777
131853,107788
131776,107765
131740,107701
131688,107710
131539,107643
131455,107629
131451,107564
131380,107573
131330,107531
132398,107989
133450,108462
133482,108485
130809,107302
130602,107230
130436,107163
130020,106970
130106,107033
130166,107045
130259,107081
130320,107124
131126,107447
131123,107475
131120,107470
131119,107453
131133,107501
131116,107466
131125,107488
131098,107474
131125,107449
131073,107456
131032,107431
130936,107371
130847,107345
130824,107350
130746,107278
130676,107289
130586,107241
130475,107208
130380,107147
130323,107141
130230,107115
130155,107015
130071,106997
130012,107001
129985,106983
129917,106932
129874,106912
129872,106914
129875,106942
129954,106933
129960,106933
129966,106961
129982,106960
129977,106960
129997,106940
130013,106974
129986,106936
129926,106953
129910,106943
129929,106936
129924,106936
129963,106955
129997,106992
130093,106999
130205,107066
130344,107101
130449,107176
130521,107251
130651,107224
130769,107308
130829,107330
130858,107335
130906,107336
130909,107398
130917,107377
130919,107359
130895,107342
130895,107355
130877,107377
130924,107365
130921,107349
130896,107373
130918,107361
130971,107408
131019,107399
131046,107422
131076,107460
131165,107477
131251,107522
131284,107522
131317,107550
131305,107538
131325,107528
131413,107565
131382,107590
131319,107557
131259,107521
131211,107500
131187,107501
131149,107483
131103,107450
131046,107443
130982,107407
131092,107459
131089,107461
131168,107474
131208,107527
131298,107522
131465,107612
131585,107640
131674,107680
131692,107685
131766,107749
131792,107705
131738,107718
131697,107708
131532,107613
131408,107580
131285,107491
131070,107416
130844,107346
130566,107211
130352,107099
130168,107020
129894,106921
129683,106829
129425,106742
129249,106624
129141,106574
129023,106525
128923,106479
128770,106450
129023,106542
129155,106565
129230,106620
129328,106660
129390,106693
129448,106727
129586,106785
129662,106800
129714,106815
129808,106896
129848,106912
129886,106955
129985,106940
130004,106981
130083,106995
130149,107035
130168,107071
130261,107088
130296,107124
130388,107126
130418,107152
130520,107178
130584,107210
130626,107231
130651,107255
130662,107271
130698,107280
130704,107255
130687,107277
130688,107254
130668,107255
130644,107234
130635,107282
130600,107236
130598,107222
130542,107205
130621,107246
130618,107229
130629,107260
130635,107222
130615,107233
130650,107248
130665,107240
130623,107237
130618,107228
130548,107220
130552,107216
130545,107191
130510,107165
130449,107199
130366,107166
130396,107117
130340,107116
130247,107090
130257,107088
130214,107075
130239,107091
130237,107057
130273,107051
130250,107104
130253,107063
130381,107130
130436,107161
130525,107161
130572,107237
130578,107236
130721,107255
130864,107314
130904,107366
130961,107404
131062,107403
131160,107510
131245,107493
131348,107558
131432,107561
131440,107619
131591,107629
131645,107668
131704,107720
131720,107685
131734,107713
131776,107755
131792,107733
131785,107743
131755,107734
131731,107686
131735,107721
131781,107719
131717,107706
131714,107733
131700,107696
131818,107730
131792,107741
131831,107776
131845,107750
131902,107756
131947,107831
131983,107801
132054,107822
132068,107836
132115,107885
132148,107876
132233,107875
132213,107923
132216,107920
132252,107939
132285,107930
132311,107942
132297,107931
132291,107962
132339,107971
132418,108002
132401,107996
132421,107962
132450,107994
132439,107984
132414,107994
132402,107972
132333,107971
132255,107920
132213,107878
132113,107846
132019,107804
131837,107745
131631,107639
131496,107595
131305,107489
131112,107405
130849,107340
130640,107212
130428,107138
130275,107018
130032,106956
129870,106845
129673,106789
129451,106713
129394,106663
129196,106562
129057,106530
128911,106450
128820,106435
128794,106383
128707,106379
128728,106375
128663,106360
128700,106369
128825,106428
128851,106423
128943,106460
128961,106478
129130,106548
129219,106576
129347,106641
129432,106682
129542,106738
129626,106822
129799,106851
129838,106882
129894,106917
129957,106936
130065,106970
130111,106982
130177,107005
130209,107036
130245,107042
130329,107074
130415,107083
130453,107149
130472,107134
130520,107170
130596,107208
130693,107220
130777,107256
130808,107286
130865,107322
130961,107344
131062,107375
131045,107401
131136,107405
131166,107441
131246,107458
131315,107501
131385,107532
131433,107539
131453,107566
131470,107562
131532,107613
131544,107612
131470,107578
131470,107552
131464,107584
131429,107555
131350,107539
131324,107515
131180,107466
131202,107419
131115,107419
131020,107383
130916,107319
130864,107317
130789,107272
130780,107264
130777,107230
130776,107236
130703,107244
130719,107197
130771,107244
130719,107256
130803,107241
130799,107290
130803,107263
130858,107265
130880,107283
130943,107318
130883,107336
130921,107295
130999,107345
130985,107346
130985,107331
131040,107354
131067,107402
131106,107369
131164,107395
131188,107422
131176,107390
131250,107451
131264,107492
131251,107423
131291,107483
131306,107459
131325,107485
131353,107513
131421,107480
131427,107501
131460,107520
131532,107557
131573,107597
131574,107551
131626,107601
131676,107651
131716,107616
131767,107659
131798,107659
131749,107661
131747,107670
131794,107664
131777,107658
131762,107642
131761,107652
131751,107673
131777,107659
131765,107648
131797,107658
131779,107663
131789,107694
131854,107676
131854,107692
131900,107729
131905,107707
131953,107762
132008,107752
132041,107755
132081,107811
132124,107801
132180,107833
132231,107850
132264,107857
132333,107868
132343,107889
132340,107915
132368,107913
132430,107895
132425,107945
132401,107946
132399,107917
132448,107910
132453,107906
132386,107930
132382,107928
132357,107877
132381,107889
132338,107894
132266,107885
132196,107831
132160,107787
132061,107757
131915,107674
131799,107619
131604,107556
131451,107473
131270,107414
131054,107323
130870,107213
130611,107128
130402,107026
130221,106935
129957,106856
129739,106723
129518,106675
129347,106608
129200,106522
129006,106419
128923,106359
128769,106316
128698,106269
128635,106266
128597,106240
128523,106192
128522,106213
128524,106221
128650,106232
128708,106306
128795,106356
128819,106349
128903,106364
129038,106401
129096,106459
129139,106464
129171,106477
129227,106535
129271,106549
129329,106519
129288,106575
129292,106560
129311,106542
129342,106543
129345,106592
129317,106525
129291,106533
129307,106518
129325,106546
129276,106539
129326,106557
129317,106570
129346,106556
129424,106592
129427,106608
129494,106624
129459,106628
129560,106676
129622,106659
129693,106687
129744,106716
129825,106731
129847,106756
129954,106761
129967,106820
129972,106810
129983,106827
129993,106839
130070,106838
130078,106876
130045,106844
130050,106857
130073,106848
130130,106885
130177,106884
130206,106915
130279,106956
130329,106970
130418,106997
130486,107014
130518,107057
130504,107057
130610,107075
130616,107099
130576,107083
130616,107088
130518,107075
130578,107060
130615,107086
130563,107060
130539,107062
130560,107056
130575,107099
130636,107095
130693,107091
130722,107179
130830,107185
130988,107221
131071,107295
131120,107304
131242,107349
131293,107375
131351,107402
131462,107446
131520,107468
131537,107487
131541,107493
131610,107511
131662,107524
131695,107539
131739,107535
131755,107601
131802,107577
131869,107606
131844,107608
131902,107647
131928,107644
132026,107667
132022,107697
132032,107665
132053,107687
132072,107697
132035,107693
132091,107669
132117,107711
132126,107715
132083,107727
132183,107732
132213,107743
132254,107791
132284,107784
132308,107781
132388,107847
132412,107841
132420,107858
132440,107846
132471,107846
132575,107908
132604,107930
132665,107925
132669,107968
132684,107953
132775,107974
132819,108000
132788,107991
132833,108039
132812,108006
132930,108036
132901,108060
132914,108056
132861,108036
132853,108002
132819,108010
132758,107944
132713,107984
132588,107917
132531,107876
132488,107852
132442,107818
132312,107771
132256,107749
132159,107723
132080,107644
131908,107609
131699,107519
131490,107446
131167,107316
130897,107166
130570,107038
130182,106871
129737,106667
129400,106518
129024,106391
128681,106192
128324,106028
127978,105886
127748,105772
127535,105673
127424,105597
127394,105614
127354,105591
127392,105588
127538,105614
127637,105706
127720,105729
127851,105820
127932,105844
128096,105887
128176,105968
128206,105954
128254,105984
128318,106038
128375,106030
128416,106032
128420,106077
128426,106094
128506,106104
128587,106145
128623,106152
128732,106190
128797,106220
128934,106261
129069,106351
129196,106374
129320,106475
129452,106530
129670,106599
129836,106683
129944,106730
130128,106792
130245,106867
130334,106929
130515,107004
130581,107026
130697,107081
130729,107091
130817,107113
130922,107139
130949,107197
130987,107176
131046,107223
131129,107268
131176,107270
131264,107298
131293,107351
131343,107342
131398,107378
131461,107386
131421,107372
131400,107367
131349,107315
131358,107369
131320,107300
131238,107292
131144,107261
131087,107227
131071,107223
131037,107230
131005,107173
130970,107166
130974,107166
130956,107195
130985,107158
131013,107172
130998,107212
130982,107178
131030,107198
131017,107183
131060,107226
130976,107178
130973,107198
130973,107144
130929,107162
130877,107140
130841,107130
130792,107112
130814,107112
130812,107096
130815,107116
130828,107112
130831,107137
130848,107119
130908,107141
130971,107161
131053,107194
131129,107254
131212,107253
131303,107290
131416,107357
131455,107379
131481,107426
131573,107409
131659,107438
131655,107486
131672,107487
131656,107469
131719,107495
131689,107482
131706,107490
131686,107501
131671,107452
131659,107461
131696,107447
131675,107473
131651,107452
131703,107463
131747,107496
131801,107511
131835,107534
131859,107563
131867,107575
131986,107585
132026,107635
132094,107637
132155,107669
132221,107705
132286,107716
132371,107745
132482,107784
132532,107844
132614,107839
132677,107906
132742,107927
132781,107907
132852,107965
132866,107982
132941,107993
132983,108025
133022,108047
133023,108052
133074,108036
133144,108077
133159,108058
133204,108097
133178,108099
133126,108080
133187,108067
133173,108095
133132,108071
133116,108065
133025,108073
132978,107978
132927,107944
132812,107914
132628,107835
132532,107822
132387,107725
132146,107668
131969,107539
131717,107481
131480,107347
131332,107267
131102,107171
130868,107065
130652,107011
130487,106947
130328,106847
130176,106774
130005,106725
129823,106648
129725,106575
129645,106536
129546,106504
129495,106462
129403,106451
129365,106417
129400,106440
129333,106453
129367,106413
129409,106449
129413,106494
129497,106515
129598,106524
129607,106557
129692,106606
129796,106636
129859,106647
129846,106637
129910,106659
129890,106687
129922,106697
129956,106679
130009,106717
129989,106708
130024,106735
130081,106735
130127,106767
130145,106775
130235,106815
130279,106838
130346,106864
130461,106924
130588,106951
130713,107005
130798,107091
130905,107086
131025,107126
131054,107170
131117,107190
131111,107188
131147,107244
131180,107195
131178,107231
131147,107218
131124,107190
131184,107208
131175,107219
131171,107198
131182,107214
131192,107232
131170,107189
131191,107199
131230,107220
131202,107202
131199,107207
131170,107168
131129,107209
131068,107143
131068,107137
130943,107126
130912,107083
130846,107064
130750,107030
130713,107005
130629,106959
130609,106969
130594,106932
130634,106966
130617,106953
130599,106950
130677,106966
130731,106999
130745,107009
130795,107045
130804,107036
130864,107042
130862,107062
130930,107072
130947,107093
130902,107082
130981,107114
131019,107120
131012,107123
131062,107162
131055,107154
131127,107179
131177,107206
131195,107196
131260,107210
131277,107261
131352,107262
131412,107283
131463,107314
131514,107332
131555,107330
131591,107383
131624,107392
131668,107391
131710,107399
131633,107410
131714,107416
131715,107391
131679,107407
131686,107394
131668,107387
131676,107398
131717,107388
131698,107400
131679,107395
131690,107376
131673,107400
131725,107413
131721,107416
131742,107402
131714,107430
131690,107388
131650,107383
131599,107331
131564,107336
131454,107279
131420,107270
131359,107227
131283,107213
131265,107187
131270,107189
131245,107188
131286,107224
131319,107213
131347,107220
131410,107276
131493,107290
131541,107310
131667,107340
131725,107420
131801,107418
131903,107468
132017,107503
132084,107513
132152,107564
132134,107570
132202,107632
132199,107573
132194,107580
132117,107558
132073,107521
132002,107521
131877,107464
131732,107368
131576,107321
131393,107240
131211,107207
131027,107071
130844,107040
130641,106949
130443,106857
130284,106769
130085,106690
129948,106616
129792,106561
129672,106530
129638,106456
129551,106419
129525,106407
129502,106415
129474,106405
129512,106402
129541,106441
129552,106411
129592,106456
129598,106496
129674,106496
129750,106514
129773,106532
129807,106543
129862,106594
129955,106628
130020,106645
130124,106711
130183,106755
130308,106751
130433,106813
130541,106890
130607,106929
130734,106963
130807,107010
130968,107069
131055,107141
131131,107142
131218,107204
131281,107186
131369,107240
131461,107272
131495,107283
131538,107343
131549,107320
131631,107329
131667,107377
131686,107382
131680,107425
131761,107405
131817,107443
131787,107466
131847,107461
131810,107457
131906,107500
131907,107491
131983,107486
131997,107535
132016,107528
132094,107580
132115,107578
132208,107608
132174,107621
132220,107615
132216,107582
132238,107617
132199,107624
132165,107568
132134,107529
132158,107591
132118,107553
132123,107566
132119,107557
132097,107593
132123,107529
132184,107541
132147,107558
132169,107598
132214,107562
132233,107589
132190,107624
132175,107561
132165,107578
132121,107557
132129,107536
132125,107570
132096,107539
132093,107560
132055,107553
132083,107510
132120,107534
132084,107538
132150,107536
132134,107607
132211,107593
132278,107609
132345,107679
132362,107666
132400,107664
132477,107707
132502,107708
132573,107732
132550,107726
132592,107761
132575,107765
132617,107737
132632,107756
132583,107760
132658,107797
132617,107767
132647,107775
132587,107760
132570,107751
132608,107751
132585,107758
132623,107740
132625,107777
132573,107764
132585,107750
132625,107759
132567,107758
132549,107725
132540,107703
132525,107739
132488,107717
132486,107706
132498,107693
132524,107709
132491,107687
132555,107722
132548,107738
132599,107731
132608,107768
132691,107767
132698,107815
132728,107771
132766,107805
132801,107844
132834,107848
132830,107858
132863,107844
132967,107871
132910,107857
132975,107914
133047,107912
133071,107948
133135,107973
133197,107963
133262,107990
133343,108027
133428,108089
133478,108086
133531,108123
133559,108128
133602,108153
133655,108142
133642,108165
133542,108149
133532,108102
133472,108090
133300,108019
133182,107979
132966,107887
132751,107783
132521,107705
132252,107553
132002,107457
131753,107356
131503,107242
131311,107148
131074,107071
130840,106955
130687,106886
130484,106814
130355,106733
130237,106729
130058,106598
129972,106584
129881,106536
129765,106496
129595,106449
129533,106362
129477,106360
129360,106359
129329,106305
129258,106295
129247,106245
129251,106276
129253,106285
129353,106302
129433,106362
129557,106395
129668,106461
129780,106507
129932,106573
130125,106655
130254,106695
130324,106775
130480,106799
130631,106847
130710,106958
130808,106953
130912,106994
130991,107040
131071,107091
131137,107066
131238,107130
131267,107181
131376,107213
131442,107247
131501,107260
131588,107287
131634,107312
131756,107383
131819,107407
131850,107433
131891,107427
131966,107435
132004,107478
132061,107482
132056,107481
132067,107514
132053,107473
132107,107515
132073,107509
132055,107490
132045,107492
132041,107462
132029,107457
132023,107474
131943,107429
131896,107443
131881,107393
131864,107388
131851,107385
131791,107374
131743,107353
131722,107332
131730,107328
131707,107319
131601,107288
131588,107262
131555,107268
131504,107221
131475,107202
131399,107172
131356,107142
131331,107182
131274,107134
131280,107141
131236,107138
131249,107150
131221,107117
131283,107142
131316,107155
131376,107196
131426,107185
131436,107223
131501,107229
131584,107254
131661,107326
131724,107303
131788,107349
131860,107411
131917,107404
132017,107453
132068,107485
132127,107483
132173,107516
132282,107535
132250,107576
132300,107563
132414,107609
132416,107617
132470,107642
132464,107637
132513,107644
132519,107677
132523,107663
132520,107637
132459,107663
132469,107626
132432,107660
132423,107607
132437,107585
132379,107628
132391,107614
132422,107619
132476,107662
132479,107616
132487,107655
132520,107686
132593,107659
132665,107716
132735,107712
132822,107778
132850,107826
132886,107826
132943,107835
132937,107821
133023,107833
133037,107870
133032,107856
133119,107882
133115,107889
133129,107892
133168,107939
133150,107933
133222,107915
133234,107966
133218,107968
133257,107949
133229,107946
133299,107969
133317,107979
133331,107994
133296,107960
133287,107960
133224,107925
133191,107904
133089,107877
132932,107816
132780,107732
132629,107666
132396,107597
132132,107444
131950,107366
131712,107259
131479,107167
131258,107091
131014,107008
130821,106898
130643,106833
130522,106757
130365,106696
130240,106600
130065,106590
129985,106509
129920,106507
129816,106443
129689,106394
129644,106376
129597,106378
129521,106326
129463,106311
129436,106298
129368,106275
129437,106324
129430,106296
129483,106317
129525,106354
129637,106383
129692,106419
129861,106481
129951,106531
130021,106570
130166,106630
130257,106662
130402,106738
130490,106746
130555,106776
130636,106834
130697,106855
130762,106895
130794,106906
130898,106950
130965,106957
131076,107049
131172,107059
131238,107090
131314,107108
131413,107168
131435,107185
131520,107191
131557,107200
131545,107249
131493,107202
131557,107222
131485,107192
131407,107170
131312,107127
131190,107079
131064,107000
130947,106965
130780,106896
130592,106813
130446,106781
130309,106718
130210,106690
130137,106596
130073,106595
130008,106558
130028,106537
130007,106551
129956,106492
129982,106507
129927,106507
129894,106513
129928,106482
129842,106468
129795,106430
129758,106406
129736,106407
129703,106401
129605,106389
129568,106351
129577,106371
129582,106347
129558,106365
129582,106321
129586,106352
129627,106369
129695,106386
129721,106379
129794,106445
129831,106464
129934,106490
129996,106501
130119,106570
130153,106589
130238,106591
130348,106684
130403,106707
130507,106744
130597,106778
130623,106802
130636,106803
130728,106836
130785,106826
130789,106886
130776,106871
130864,106887
130903,106964
130946,106920
131002,106937
131065,107007
131089,107001
131193,107017
131274,107059
131329,107080
131410,107142
131457,107186
131572,107212
131650,107209
131724,107272
131745,107283
131811,107309
131877,107326
131953,107341
131968,107391
131966,107393
132028,107383
132016,107367
132053,107402
132023,107391
132043,107389
132012,107419
132054,107405
132110,107444
132143,107467
132207,107452
132221,107490
132323,107494
132415,107552
132448,107545
132493,107582
132512,107579
132565,107605
132521,107631
132547,107583
132498,107609
132531,107613
132549,107579
132576,107632
132521,107580
132467,107586
132407,107536
132358,107503
132228,107428
132116,107390
131911,107332
131702,107204
131505,107132
131213,107049
130960,106910
130713,106819
130450,106678
130196,106582
129966,106487
129754,106405
129538,106306
129371,106181
129237,106143
129062,106057
128955,106032
128868,105982
128787,105967
128735,105942
128671,105883
128678,105909
128655,105890
128634,105877
128699,105934
128679,105894
128744,105909
128800,105964
128855,105953
128951,106009
129032,106033
129141,106110
129198,106133
129345,106190
129463,106249
129584,106296
129657,106352
129701,106376
129831,106387
129881,106418
129980,106483
129986,106472
130028,106492
130048,106514
130097,106511
130113,106533
130159,106562
130117,106567
130177,106571
130203,106588
130193,106563
130262,106597
130295,106610
130322,106631
130427,106710
130506,106682
130617,106744
130694,106794
130753,106811
130898,106862
130950,106892
131026,106907
131050,106922
131136,106968
131221,106993
131205,107008
131258,107004
131276,107018
131290,107045
131341,107031
131386,107053
131349,107034
131432,107082
131436,107073
131464,107089
131507,107104
131562,107111
131557,107173
131550,107145
131653,107143
131613,107187
131619,107162
131523,107128
131571,107141
131528,107104
131428,107124
131363,107043
131353,107041
131361,107039
131384,107030
131320,107017
131376,107047
131401,107094
131442,107083
131508,107136
131569,107122
131618,107138
131684,107224
131735,107207
131810,107197
131825,107257
131811,107246
131844,107242
131886,107281
131866,107264
131887,107263
131921,107296
131909,107302
131934,107287
132005,107314
131985,107328
132016,107310
132015,107351
132052,107346
132056,107336
132098,107363
132077,107375
132077,107347
132115,107373
132080,107361
132141,107370
132184,107414
132168,107406
132191,107370
132246,107402
132268,107452
132275,107469
132326,107456
132419,107487
132432,107496
132496,107489
132534,107566
132512,107503
132571,107549
132591,107573
132618,107567
132612,107595
132622,107593
132719,107582
132749,107633
132753,107621
132772,107645
132840,107665
132887,107716
132904,107685
133032,107733
133040,107778
133146,107791
133208,107817
133227,107851
133248,107837
133272,107816
133254,107836
133255,107800
133204,107787
133101,107783
132922,107710
132806,107637
132670,107573
132467,107508
132244,107394
131973,107276
131777,107224
131519,107087
131262,106962
131005,106872
130783,106788
130543,106643
130341,106550
130105,106486
129953,106372
129757,106323
129620,106244
129510,106202
129349,106115
129294,106086
129185,106041
129154,106075
129145,106040
129135,106055
129155,106044
129203,106042
129264,106128
129337,106124
129392,106174
129467,106180
129550,106234
129619,106282
129698,106299
129788,106301
129873,106345
129924,106381
130004,106417
130129,106450
130211,106526
130293,106557
130354,106556
130432,106596
130494,106622
130519,106686
130627,106662
130672,106713
130743,106739
130866,106813
130904,106794
130998,106844
131123,106905
131215,106895
131317,106976
131365,107031
131491,107087
131526,107061
131607,107123
131684,107154
131775,107208
131816,107211
131887,107212
131945,107288
131951,107270
132045,107283
132062,107344
132094,107315
132193,107377
132204,107383
132239,107405
132255,107400
132285,107379
132282,107412
132275,107376
132310,107392
132289,107398
132229,107375
132214,107328
132149,107335
132123,107289
132089,107283
131993,107258
131938,107275
131905,107205
131864,107213
131817,107214
131748,107158
131743,107173
131720,107164
131766,107148
131768,107178
131735,107141
131825,107151
131800,107203
131833,107178
131895,107187
131876,107233
131909,107207
131976,107251
131975,107226
131971,107243
131992,107239
131955,107252
132025,107247
132000,107266
131985,107265
131997,107269
132022,107255
132072,107273
132043,107292
132083,107293
132110,107318
132146,107339
132195,107337
132279,107349
132234,107406
132247,107350
132309,107353
132316,107406
132258,107381
132297,107371
132315,107423
132325,107399
132330,107410
132364,107428
132407,107419
132480,107487
132530,107464
132601,107494
132641,107534
132715,107561
132804,107587
132871,107612
132922,107629
132971,107662
132988,107663
133040,107707
133082,107699
133086,107719
133129,107729
133121,107724
133150,107764
133192,107732
133173,107754
133256,107786
133283,107779
133329,107817
133415,107844
133478,107878
133486,107884
133583,107895
133641,107926
133657,107942
133682,107961
133725,107959
133669,107964
133640,107952
133571,107898
133560,107885
133411,107817
133223,107775
133055,107689
132872,107593
132684,107508
132424,107394
132194,107301
131905,107211
131682,107069
131465,106955
131232,106880
130985,106766
130772,106688
130576,106603
130392,106478
130189,106391
130029,106328
129825,106279
129685,106208
129595,106177
129461,106109
129407,106038
129314,106052
129308,106027
129321,106062
129299,106068
129346,106065
129415,106063
129517,106124
129562,106171
129606,106169
129672,106182
129811,106239
129868,106307
129937,106295
130064,106369
130101,106412
130166,106437
130239,106432
130343,106498
130410,106519
130407,106553
130481,106540
130580,106596
130694,106597
130747,106645
130772,106670
130856,106702
130902,106760
130990,106737
131024,106772
131130,106822
131192,106873
131289,106916
131402,106940
131501,106981
131592,107021
131728,107070
131879,107145
131930,107195
132039,107213
132120,107250
132251,107285
132369,107351
132422,107389
132510,107437
132564,107442
132646,107481
132735,107527
132850,107548
132846,107585
132918,107561
132991,107608
133005,107653
133022,107600
133055,107645
133022,107654
133029,107596
133053,107629
133003,107596
133005,107612
132938,107569
132936,107565
132923,107574
132912,107543
132862,107543
132837,107508
132838,107544
132793,107519
132788,107507
132772,107524
132766,107525
132749,107501
132767,107512
132746,107520
132784,107508
132765,107552
132818,107524
132877,107524
132872,107564
132895,107546
132899,107611
132956,107605
133023,107601
133039,107672
133046,107645
133105,107633
133126,107689
133171,107681
133199,107669
133206,107692
133203,107716
133239,107698
133242,107729
133278,107709
133304,107725
133281,107741
133318,107717
133372,107792
133410,107751
133432,107767
133467,107801
133526,107820
133593,107822
133602,107870
133608,107882
133670,107862
133730,107922
133724,107915
133711,107914
133732,107907
133743,107926
133769,107921
133848,107962
133824,107957
133806,107957
133830,107957
133920,107989
133916,107975
133950,107984
133994,108022
133979,108013
134033,108037
134032,108037
134095,108057
134073,108049
134093,108038
134074,108054
134046,108017
133998,108000
133882,107978
133845,107942
133801,107934
133623,107859
133502,107798
133338,107720
133166,107637
132972,107544
132767,107501
132513,107337
132216,107242
131928,107073
131726,107010
131370,106865
131093,106732
130841,106629
130567,106487
130348,106393
130100,106295
129941,106244
129760,106141
129667,106110
129521,106024
129436,106020
129360,105963
129237,105922
129199,105899
129204,105897
129160,105902
129169,105888
129195,105876
129210,105909
129214,105916
129244,105886
129263,105938
129320,105948
129377,106001
129421,105988
129510,106004
129555,106092
129573,106049
129644,106151
129704,106125
129799,106147
129871,106177
129914,106217
130037,106292
130111,106297
130218,106317
130297,106403
130352,106413
130447,106434
130572,106481
130664,106555
130729,106574
130806,106611
130931,106643
131045,106690
131109,106733
131179,106782
131264,106806
131328,106832
131402,106832
131443,106888
131435,106882
131438,106886
131495,106883
131532,106907
131474,106869
131440,106884
131387,106827
131379,106805
131329,106814
131344,106791
131311,106810
131241,106776
131281,106766
131341,106810
131320,106808
131340,106794
131377,106834
131385,106837
131394,106792
131377,106820
131353,106808
131368,106835
131331,106809
131286,106766
131276,106758
131212,106730
131189,106742
131169,106757
131115,106705
131110,106720
131108,106710
131125,106738
131195,106749
131207,106707
131251,106801
131280,106782
131359,106783
131393,106828
131500,106845
131558,106892
131628,106926
131639,106929
131724,106967
131810,107011
131830,107055
131855,107041
131941,107045
132002,107101
132007,107096
132086,107127
132094,107177
132163,107121
132206,107168
132244,107176
132251,107212
132317,107227
132310,107222
132389,107235
132426,107304
132457,107259
132504,107303
132481,107284
132557,107327
132595,107314
132620,107354
132605,107354
132624,107345
132681,107368
132665,107378
132652,107371
132670,107330
132675,107377
132707,107393
132700,107382
132688,107390
132713,107378
132787,107424
132822,107429
132866,107456
132898,107454
132982,107481
133037,107501
133106,107533
133123,107540
133171,107578
133173,107583
133221,107586
133234,107623
133182,107573
133161,107557
133061,107514
132939,107484
132827,107403
132678,107353
132434,107249
132211,107164
131975,107051
131742,106935
131492,106834
131182,106718
130878,106573
130651,106494
130453,106370
130177,106266
130035,106191
129844,106096
129720,106036
129623,105997
129516,105964
129458,105911
129390,105916
129354,105873
129363,105861
129331,105842
129333,105842
129290,105880
129315,105853
129366,105854
129400,105906
129426,105917
129415,105922
129494,105975
129532,105984
129638,106004
129664,106036
129713,106026
129779,106046
129906,106107
129970,106164
130063,106227
130107,106251
130247,106280
130330,106300
130421,106329
130493,106357
130541,106435
130587,106414
130642,106474
130679,106492
130771,106503
130732,106514
130786,106500
130885,106544
130900,106544
130945,106583
130970,106574
131031,106622
131069,106640
131161,106648
131193,106684
131193,106704
131293,106711
131293,106750
131317,106701
131375,106754
131362,106751
131385,106753
131399,106780
131367,106750
131355,106746
131401,106783
131393,106762
131371,106781
131351,106750
131331,106715
131359,106746
131327,106730
131323,106759
131340,106719
131332,106727
131280,106702
131315,106714
131278,106732
131249,106700
131211,106692
131189,106675
131208,106625
131183,106664
131133,106644
131076,106628
131069,106609
131054,106618
131039,106609
131037,106596
131035,106588
131037,106601
131073,106598
131102,106619
131187,106645
131198,106675
131244,106693
131346,106750
131381,106744
131430,106766
131503,106810
131546,106808
131566,106837
131655,106840
131641,106871
131696,106891
131737,106895
131720,106922
131740,106893
131763,106921
131786,106931
131780,106932
131812,106909
131860,106957
131849,106939
131862,106976
131841,106924
131911,106973
131931,106975
131944,106985
131973,107002
131966,107037
132055,107033
132111,107044
132164,107069
132188,107100
132195,107083
132251,107112
132263,107146
132285,107123
132347,107149
132311,107188
132366,107170
132393,107164
132454,107187
132424,107205
132517,107222
132518,107243
132578,107265
132583,107243
132644,107264
132659,107316
132730,107300
132778,107349
132788,107335
132872,107362
132844,107377
132914,107380
132893,107367
132829,107346
132738,107295
132601,107261
132480,107184
132278,107109
132067,107017
131820,106921
131571,106793
131259,106677
130998,106544
130732,106422
130426,106301
130183,106199
129913,106082
129744,105992
129579,105921
129395,105818
129269,105816
129189,105737
129116,105682
129039,105654
129020,105704
128980,105638
128997,105670
128971,105655
128981,105658
129018,105665
129013,105680
129063,105680
129089,105683
129124,105734
129121,105722
129158,105727
129236,105754
129270,105765
129331,105811
129392,105849
129516,105871
129618,105944
129696,105992
129798,106022
129901,106064
130014,106112
130122,106159
130221,106190
130284,106256
130322,106235
130418,106279
130555,106362
130555,106326
130632,106366
130618,106410
130713,106397
130820,106432
130847,106509
130901,106513
130974,106544
131012,106535
131081,106568
131089,106585
131144,106572
131130,106617
131164,106602
131151,106642
131147,106581
131145,106605
131115,106606
131126,106620
131048,106590
131068,106555
131046,106569
130964,106565
130994,106496
131017,106549
130985,106530
131038,106527
130988,106570
131019,106521
131078,106561
131090,106571
131046,106557
131063,106559
131079,106536
131094,106572
131060,106532
131006,106527
131021,106508
131023,106528
131005,106524
130991,106531
131037,106536
131039,106570
131091,106575
131179,106585
131262,106637
131269,106652
131341,106666
131420,106718
131452,106722
131533,106731
131552,106764
131551,106775
131621,106772
131650,106822
131653,106812
131636,106835
131629,106773
131676,106824
131665,106824
131649,106795
131696,106833
131688,106829
131701,106826
131769,106864
131778,106851
131802,106909
131865,106851
131945,106909
131980,106933
132022,106978
132078,106980
132122,107052
132184,107042
132239,107034
132278,107074
132290,107088
132289,107067
132338,107112
132352,107076
132359,107109
132350,107116
132321,107086
132333,107094
132340,107123
132343,107109
132319,107062
132343,107117
132379,107113
132463,107137
132497,107156
132512,107141
132591,107188
132615,107245
132636,107212
132734,107271
132724,107286
132788,107261
132826,107298
132805,107299
132856,107285
132822,107283
132817,107324
132813,107278
132781,107272
132688,107210
132620,107203
132472,107122
132282,107069
132112,106981
131887,106893
131598,106749
131352,106656
131137,106525
130856,106420
130609,106283
130323,106222
130083,106082
129879,105980
129659,105879
129441,105808
129276,105743
129118,105643
129056,105585
128906,105578
128818,105532
128727,105487
128704,105485
128699,105454
128775,105512
128741,105481
128791,105549
128900,105557
128940,105588
129045,105608
129154,105683
129188,105662
129311,105768
129434,105784
129517,105838
129618,105898
129676,105887
129815,105954
129876,106008
129921,105992
129998,106037
130045,106069
130099,106083
130135,106129
130209,106157
130241,106170
130270,106213
130333,106201
130440,106234
130530,106283
130586,106289
130637,106320
130736,106374
130860,106441
130889,106412
131007,106477
131062,106517
131111,106532
131154,106571
131200,106571
131214,106600
131236,106608
131293,106610
131314,106603
131254,106597
131226,106582
131270,106585
131193,106581
131211,106584
131127,106556
131121,106511
131080,106531
131045,106507
131043,106478
131042,106501
130992,106467
130948,106473
130907,106437
130919,106423
130896,106417
130832,106430
130830,106390
130797,106382
130825,106395
130767,106369
130787,106345
130731,106341
130751,106369
130762,106375
130765,106354
130783,106348
130786,106397
130860,106381
130859,106429
130883,106399
130935,106427
130924,106463
130987,106426
131036,106453
131067,106481
131068,106509
131098,106494
131151,106527
131142,106529
131157,106530
131132,106546
131119,106512
131194,106551
131210,106552
131213,106553
131230,106570
131258,106603
131323,106600
131440,106624
131468,106689
131513,106684
131637,106730
131656,106759
131759,106785
131770,106811
131835,106797
131919,106846
131953,106868
132012,106878
132026,106885
132004,106903
132001,106865
132016,106886
132026,106899
132012,106904
131951,106897
132004,106896
132006,106922
132022,106887
132015,106879
132005,106914
132045,106910
132091,106904
132146,106941
132165,106963
132167,106931
132290,107011
132328,107037
132395,107048
132431,107079
132484,107081
132582,107123
132609,107137
132678,107187
132719,107175
132756,107159
132769,107209
132754,107190
132771,107212
132693,107178
132614,107103
132514,107085
132396,107036
132200,106944
132032,106864
131813,106767
131563,106641
131333,106534
131064,106451
130781,106321
130534,106209
130317,106093
130109,106014
129875,105897
129713,105834
129518,105765
129364,105647
129238,105616
129076,105541
128992,105493
128914,105446
128826,105461
128811,105419
128796,105427
128791,105450
128794,105401
128842,105431
128869,105472
128933,105486
128970,105510
129005,105536
129037,105527
129132,105553
129203,105590
129254,105612
129325,105674
129413,105676
129452,105722
129535,105757
129653,105784
129696,105836
129805,105895
129959,105930
130019,105982
130146,106043
130266,106080
130345,106111
130472,106179
130593,106209
130621,106248
130726,106288
130774,106285
130895,106348
130925,106347
130954,106394
131009,106415
131051,106432
131127,106464
131144,106466
131185,106486
131164,106475
131198,106513
131258,106516
131249,106507
131275,106506
131318,106548
131334,106560
131341,106543
131315,106531
131375,106536
131305,106568
131301,106534
131349,106541
131349,106554
131303,106501
131310,106544
131259,106503
131256,106487
131202,106488
131155,106475
131119,106436
131098,106423
131079,106441
131045,106377
131001,106395
130998,106388
130949,106364
130959,106333
130929,106340
130934,106349
130934,106371
130917,106353
130967,106386
130941,106369
130935,106379
130977,106356
130979,106363
130985,106353
130987,106368
131010,106389
130976,106378
131046,106381
131068,106428
131094,106422
131146,106450
131149,106469
131222,106511
131247,106490
131311,106523
131393,106567
131426,106577
131475,106585
131575,106612
131623,106639
131660,106671
131667,106675
131738,106706
131727,106698
131765,106722
131818,106749
131810,106730
131847,106747
131865,106792
131892,106779
131872,106797
131893,106753
131954,106792
131955,106827
131974,106808
131987,106789
132031,106810
132065,106810
132089,106876
132123,106867
132148,106872
132202,106899
132243,106922
132253,106912
132301,106916
132306,106914
132323,106969
132344,106964
132362,106975
132366,106966
132387,106967
132406,106983
132397,106978
132425,106972
132426,106983
132479,107000
132396,106987
132490,107016
132455,107017
132494,106995
132457,106962
132442,106989
132415,106985
132345,106915
132247,106919
132136,106827
131965,106750
131831,106690
131598,106628
131377,106518
131118,106405
130910,106306
130589,106200
130360,106029
130141,105959
129866,105862
129618,105725
129435,105653
129294,105556
129093,105493
128920,105413
128825,105367
128748,105344
128672,105317
128593,105258
128561,105263
128531,105265
128552,105253
128564,105238
128552,105254
128615,105286
128669,105303
128724,105346
128776,105357
128878,105388
128917,105429
129032,105483
129127,105521
129231,105562
129307,105585
129403,105634
129446,105677
129591,105733
129645,105754
129741,105788
129781,105773
129881,105852
129947,105868
130004,105913
130091,105940
130117,105977
130220,106007
130287,106020
130337,106046
130408,106067
130494,106138
130591,106155
130673,106166
130742,106225
130832,106270
130840,106256
130920,106306
131017,106333
131060,106348
131081,106380
131021,106362
131062,106385
131079,106372
131055,106364
131072,106371
130992,106346
130972,106331
130970,106304
130911,106289
130871,106260
130783,106249
130727,106252
130662,106163
130600,106184
130559,106138
130530,106123
130517,106128
130510,106088
130490,106112
130525,106108
130483,106097
130516,106107
130519,106142
130506,106113
130483,106098
130466,106125
130440,106123
130438,106062
130421,106056
130395,106080
130377,106070
130390,106070
130416,106078
130436,106070
130472,106067
130523,106121
130547,106144
130608,106150
130637,106165
130709,106218
130738,106191
130843,106249
130897,106267
131000,106302
131032,106354
131073,106383
131120,106391
131185,106453
131248,106436
131304,106449
131347,106509
131402,106499
131404,106524
131462,106545
131472,106539
131536,106558
131586,106599
131654,106606
131675,106610
131656,106647
131706,106677
131753,106703
131820,106661
131862,106722
131863,106682
131929,106767
131970,106748
132015,106773
131997,106777
132031,106770
132016,106772
132094,106791
132084,106819
132130,106826
132137,106845
132136,106804
132226,106852
132222,106832
132240,106862
132231,106876
132283,106874
132342,106893
132361,106919
132371,106911
132434,106924
132478,106976
132476,107007
132503,107000
132523,106995
132558,106978
132544,106997
132548,107004
132478,106923
132433,106935
132315,106880
132151,106807
131992,106729
131791,106671
131510,106542
131239,106433
130965,106297
130710,106167
130386,106071
130117,105888
129872,105820
129618,105706
129393,105617
129223,105488
129039,105456
128916,105405
128792,105312
128715,105299
128671,105273
128609,105264
128513,105217
128541,105206
128542,105238
128533,105183
128523,105204
128530,105227
128543,105239
128610,105215
128677,105293
128688,105274
128773,105308
128826,105358
128882,105421
128950,105404
129062,105458
129061,105486
129145,105508
129236,105523
129281,105568
129345,105599
129371,105604
129452,105645
129528,105686
129568,105697
129658,105702
129715,105795
129808,105796
129932,105862
129996,105895
130137,105915
130218,105990
130301,106023
130436,106071
130555,106105
130611,106120
130667,106154
130725,106194
130757,106200
130799,106214
130791,106219
130793,106220
130770,106239
130759,106186
130757,106210
130698,106213
130693,106145
130675,106161
130645,106152
130664,106165
130660,106143
130646,106176
130644,106157
130670,106176
130628,106154
130609,106128
130599,106120
130567,106112
130519,106091
130451,106094
130404,106020
130380,106026
130319,106023
130280,106001
130280,105974
130231,105965
130211,105975
130214,105967
130286,105950
130289,106004
130313,106009
130338,106024
130402,106046
130488,106085
130480,106079
130542,106072
130586,106146
130629,106154
130704,106194
130669,106173
130725,106158
130765,106201
130747,106198
130791,106214
130798,106205
130872,106227
130861,106268
130946,106285
131004,106308
131083,106349
131116,106345
131239,106415
131295,106444
131400,106457
131473,106496
131509,106511
131606,106564
131640,106574
131690,106602
131682,106620
131695,106617
131698,106624
131693,106622
131711,106592
131730,106613
131677,106600
131698,106630
131672,106606
131717,106620
131713,106629
131708,106583
131746,106624
131817,106669
131824,106654
131856,106675
131939,106736
131910,106688
131996,106729
132011,106731
132043,106768
132038,106741
132063,106784
132120,106787
132167,106798
132191,106820
132230,106831
132299,106849
132309,106867
132361,106906
132400,106893
132406,106896
132433,106939
132475,106917
132516,106952
132534,106927
132546,106962
132578,106964
132586,106959
132580,106968
132582,106952
132492,106938
132455,106931
132408,106899
132223,106817
132114,106758
131905,106685
131722,106571
131484,106442
131232,106343
130931,106258
130614,106086
130402,106014
130165,105890
129929,105803
129667,105698
129487,105571
129338,105507
129189,105480
129067,105399
128982,105365
128875,105345
128819,105333
128811,105282
128816,105305
128789,105299
128755,105271
128778,105323
128841,105321
128866,105317
128884,105375
128940,105362
128965,105386
129054,105396
129121,105449
129188,105467
129255,105538
129387,105577
129476,105617
129587,105633
129707,105695
129750,105729
129863,105793
129986,105841
130040,105861
130127,105896
130212,105969
130285,105990
130369,106006
130468,106026
130507,106096
130595,106072
130693,106140
130755,106179
130801,106205
130907,106218
130943,106228
131036,106278
131070,106299
131105,106309
131121,106343
131156,106339
131129,106343
131172,106342
131203,106348
131127,106360
131124,106312
131135,106306
131124,106313
131115,106312
131091,106334
131050,106257
131077,106298
131075,106300
131071,106288
131020,106276
131035,106267
131007,106285
130999,106287
130991,106247
130960,106270
130958,106243
130911,106238
130901,106215
130870,106197
130807,106197
130759,106185
130745,106136
130722,106128
130680,106143
130611,106129
130563,106077
130603,106106
130582,106084
130589,106057
130606,106083
130586,106108
130622,106078
130675,106089
130649,106125
130731,106099
130752,106191
130799,106178
130878,106204
130914,106212
130922,106254
130969,106252
130979,106267
131052,106262
131086,106300
131157,106310
131139,106321
131227,106339
131250,106378
131271,106400
131330,106375
131373,106450
131446,106450
131493,106457
131541,106490
131654,106523
131679,106539
131803,106589
131835,106610
131909,106631
131974,106674
131999,106688
132088,106736
132184,106771
132159,106772
132210,106767
132253,106778
132312,106823
132336,106822
132346,106845
132402,106866
132404,106883
132420,106872
132492,106876
132518,106871
132523,106907
132514,106897
132591,106918
132579,106952
132597,106919
132601,106943
132646,106967
132662,106960
132751,106960
132729,106995
132720,106998
132737,107005
132801,106996
132813,107027
132811,107021
132826,107027
132857,107059
132855,107057
132863,107028
132897,107062
132852,107023
132830,107034
132861,107054
132791,107027
132739,106982
132655,106963
132515,106888
132397,106824
132220,106769
131990,106655
131754,106541
131493,106472
131212,106271
130953,106191
130604,106057
130306,105868
129992,105757
129788,105661
129506,105558
129261,105449
129088,105367
128924,105292
128822,105227
128751,105212
128667,105147
128645,105179
128631,105152
128657,105151
128682,105197
128764,105224
128771,105220
128841,105239
128906,105296
128952,105339
129026,105344
129050,105356
129123,105375
129236,105449
129270,105448
129321,105501
129441,105499
129567,105587
129609,105632
129708,105624
129809,105696
129855,105684
129965,105752
130056,105805
130175,105838
130283,105906
130355,105954
130471,106006
130586,106027
130641,106040
130749,106107
130801,106154
130903,106153
130996,106190
131031,106263
131074,106237
131171,106299
131214,106330
131292,106361
131309,106365
131386,106381
131397,106423
131417,106407
131525,106411
131515,106439
131511,106399
131510,106417
131542,106466
131575,106426
131581,106468
131523,106423
131490,106463
131467,106435
131472,106382
131460,106397
131361,106416
131299,106344
131326,106345
131287,106311
131276,106298
131244,106318
131181,106273
131176,106276
131212,106291
131181,106279
131182,106277
131127,106243
131186,106272
131169,106262
131174,106277
131199,106274
131173,106303
131221,106305
131220,106312
131220,106326
131194,106319
131204,106282
131269,106300
131268,106345
131270,106314
131294,106326
131327,106373
131392,106345
131383,106374
131428,106367
131450,106392
131444,106419
131485,106432
131576,106477
131585,106464
131612,106447
131634,106502
131736,106517
131736,106515
131794,106523
131781,106568
131797,106542
131906,106586
131961,106617
131985,106638
132020,106631
132087,106652
132117,106679
132167,106674
132166,106721
132219,106723
132235,106729
132235,106748
132237,106727
132299,106746
132233,106746
132243,106740
132271,106735
132288,106768
132247,106768
132265,106729
132307,106763
132302,106777
132334,106761
132363,106758
132322,106799
132353,106775
132407,106822
132396,106799
132418,106808
132439,106821
132448,106844
132509,106827
132511,106858
132520,106862
132564,106864
132553,106865
132676,106887
132665,106911
132678,106910
132726,106905
132740,106962
132758,106951
132806,106935
132810,106961
132771,106917
132753,106937
132741,106924
132671,106872
132571,106829
132397,106774
132215,106701
132075,106638
131798,106517
131522,106412
131246,106248
130952,106146
130666,105997
130377,105881
130095,105731
129782,105632
129541,105520
129318,105430
129073,105287
128905,105242
128727,105142
128614,105095
128462,105056
128390,104978
128307,104959
128279,104964
128217,104935
128225,104911
128207,104939
128202,104917
128235,104904
128270,104944
128310,104988
128330,104977
128399,104983
128428,105038
128502,105078
128617,105079
128748,105127
128824,105225
128882,105221
129002,105295
129134,105331
129215,105366
129332,105391
129409,105480
129535,105522
129643,105546
129783,105610
129891,105686
129947,105719
130087,105763
130220,105797
130281,105861
130386,105910
130455,105933
130540,105968
130605,105983
130660,106009
130693,106025
130680,106032
130742,106078
130745,106055
130762,106059
130774,106067
130723,106032
130719,106037
130707,106055
130690,106010
130660,106030
130674,106042
130684,106033
130719,106020
130695,106003
130694,106013
130685,106022
130718,106040
130692,106012
130698,106001
130649,105982
130573,105974
130561,105968
130524,105935
130445,105907
130419,105913
130368,105846
130308,105848
130280,105843
130259,105824
130211,105792
130212,105793
130159,105778
130204,105795
130202,105819
130153,105787
130211,105802
130223,105812
130283,105803
130286,105837
130287,105859
130323,105860
130344,105851
130382,105873
130383,105905
130369,105860
130373,105891
130446,105914
130512,105960
130547,105957
130576,105968
130607,105997
130710,106009
130757,106058
130854,106076
130897,106115
130927,106129
130975,106136
131081,106190
131100,106185
131146,106216
131193,106250
131187,106258
131266,106268
131281,106300
131325,106304
131370,106289
131444,106331
131466,106333
131523,106358
131529,106368
131608,106411
131627,106392
131659,106460
131684,106443
131729,106442
131705,106472
131743,106469
131760,106494
131755,106477
131772,106517
131781,106467
131865,106511
131858,106532
131903,106559
131963,106558
131991,106561
132089,106595
132115,106654
132203,106673
132273,106682
132351,106711
132390,106751
132421,106765
132474,106798
132488,106783
132490,106799
132526,106787
132460,106783
132447,106780
132389,106735
132278,106698
132208,106671
132058,106590
131836,106494
131661,106414
131442,106331
131172,106221
130960,106113
130665,105979
130403,105881
130158,105773
129911,105663
129701,105548
129496,105467
129311,105414
129198,105325
129027,105261
128939,105220
128842,105182
128765,105156
128718,105125
128678,105104
128685,105122
128671,105115
128678,105101
128702,105115
128717,105131
128795,105181
128837,105184
128875,105221
128927,105261
128983,105251
129063,105288
129126,105302
129183,105362
129268,105377
129330,105411
129408,105448
129510,105475
129541,105528
129637,105569
129745,105589
129852,105660
129957,105697
130026,105719
130190,105811
130315,105853
130419,105898
130525,105943
130649,105993
130773,106065
130887,106121
130998,106159
131141,106216
131227,106236
131315,106296
131422,106332
131537,106363
131606,106408
131667,106453
131788,106488
131815,106511
131889,106557
131950,106559
132005,106593
132037,106607
132061,106592
132089,106632
132117,106622
132111,106617
132094,106617
132137,106655
132108,106624
132113,106639
132074,106611
132045,106590
132027,106581
132001,106568
131990,106584
131917,106536
131895,106532
131862,106520
131806,106490
131766,106453
131706,106452
131726,106457
131647,106421
131638,106426
131638,106392
131579,106385
131569,106410
131571,106364
131541,106355
131513,106378
131511,106361
131519,106344
131494,106348
131495,106349
131516,106351
131517,106345
131535,106374
131547,106380
131572,106380
131631,106394
131628,106414
131645,106401
131717,106422
131744,106458
131733,106465
131804,106463
131838,106498
131862,106498
131907,106540
131947,106555
131925,106548
132020,106579
132062,106574
132061,106582
132123,106638
132137,106626
132162,106641
132239,106646
132211,106670
132244,106679
132294,106699
132300,106712
132324,106723
132364,106726
132372,106732
132371,106734
132438,106730
132433,106752
132446,106762
132413,106738
132400,106759
132464,106780
132484,106754
132486,106784
132511,106789
132525,106811
132599,106816
132644,106834
132692,106859
132724,106896
132806,106906
132877,106937
132925,106971
132988,106988
133004,106985
133063,107023
133100,107017
133137,107050
133188,107063
133201,107082
133240,107092
133256,107120
133292,107095
133275,107114
133322,107142
133363,107130
133333,107141
133362,107130
133371,107125
133281,107106
133200,107059
133125,107022
132982,106967
132813,106878
132567,106788
132375,106701
132134,106582
131831,106461
131598,106377
131322,106230
130988,106121
130776,105996
130524,105903
130275,105789
130069,105680
129921,105621
129712,105545
129596,105492
129511,105447
129388,105426
129368,105401
129342,105391
129325,105365
129324,105370
129280,105370
129350,105401
129365,105410
129389,105400
129448,105434
129433,105443
129490,105490
129559,105487
129629,105504
129623,105538
129684,105556
129783,105588
129873,105607
129940,105643
129979,105695
130062,105704
130139,105738
130217,105765
130326,105827
130410,105861
130522,105921
130655,105954
130746,106015
130780,106045
130831,106018
130897,106067
130982,106105
131019,106102
131087,106150
131140,106201
131202,106215
131337,106251
131346,106248
131481,106319
131469,106359
131569,106375
131626,106393
131727,106407
131769,106443
131770,106470
131828,106483
131882,106479
131879,106486
131864,106483
131886,106507
131848,106469
131825,106452
131838,106461
131822,106473
131817,106436
131776,106435
131777,106428
131719,106438
131706,106404
131724,106410
131638,106372
131676,106351
131577,106352
131552,106326
131531,106333
131503,106297
131440,106256
131429,106255
131390,106271
131325,106227
131285,106226
131321,106225
131298,106202
131353,106214
131277,106253
131268,106224
131332,106247
131331,106254
131355,106246
131390,106267
131396,106268
131464,106265
131504,106318
131554,106310
131584,106343
131616,106354
131621,106376
131671,106392
131699,106400
131785,106414
131813,106428
131892,106472
131933,106503
131944,106502
132013,106535
132052,106542
132119,106585
132182,106596
132212,106628
132284,106635
132339,106681
132396,106675
132485,106717
132529,106759
132559,106723
132600,106762
132665,106776
132719,106833
132736,106827
132780,106841
132813,106881
132876,106902
132891,106901
132909,106896
132969,106934
132973,106942
133038,106941
133020,106974
133116,106969
133072,106970
133127,106997
133184,107014
133233,107016
133270,107063
133280,107021
133299,107097
133397,107099
133413,107136
133424,107121
133507,107128
133509,107146
133576,107177
133588,107167
133645,107188
133613,107229
133653,107222
133725,107222
133724,107240
133748,107251
133716,107220
133741,107213
133686,107217
133656,107200
133561,107142
133439,107079
133314,107049
133079,106937
132838,106819
132642,106709
132313,106619
131974,106470
131661,106344
131305,106168
130981,106004
130581,105887
130243,105711
129913,105588
129581,105403
129314,105275
128973,105158
128774,105046
128499,104931
128272,104821
128142,104762
127957,104670
127876,104642
127723,104580
127663,104513
127563,104526
127574,104497
127531,104487
127521,104475
127525,104468
127547,104486
127551,104496
127614,104510
127666,104560
127698,104578
127791,104585
127882,104644
127964,104695
128128,104744
128208,104824
128309,104821
128427,104910
128545,104935
128659,105013
128693,105021
128798,105043
128837,105083
128866,105105
128954,105129
129027,105162
129027,105157
129049,105183
129112,105222
129201,105218
129222,105276
129266,105245
129333,105284
129414,105343
129443,105346
129544,105362
129588,105432
129631,105454
129766,105477
129838,105536
129856,105554
129976,105563
129969,105597
130076,105603
130107,105656
130116,105646
130169,105656
130179,105649
130180,105638
130189,105648
130151,105665
130116,105634
130038,105623
130002,105577
129923,105526
129889,105508
129788,105495
129714,105460
129685,105419
129615,105423
129599,105401
129571,105394
129536,105396
129512,105353
129551,105401
129540,105396
129549,105367
129617,105393
129634,105437
129653,105403
129685,105437
129666,105411
129656,105427
129699,105452
129686,105431
129727,105424
129714,105454
129687,105451
129691,105475
129722,105453
129700,105493
129722,105441
129775,105467
129814,105488
129852,105517
129904,105547
129938,105535
130043,105580
130108,105621
130183,105636
130230,105672
130325,105724
130360,105744
130429,105737
130470,105772
130564,105810
130583,105860
130623,105854
130636,105862
130673,105860
130655,105858
130701,105895
130697,105890
130712,105886
130736,105886
130791,105920
130751,105900
130795,105912
130812,105894
130848,105937
130823,105964
130857,105937
130872,105952
130880,105950
130917,105964
130965,105994
130987,105979
131030,106028
131074,106051
131073,106018
131143,106061
131132,106075
131197,106106
131206,106087
131252,106097
131230,106090
131256,106114
131285,106103
131273,106143
131294,106137
131255,106099
131277,106102
131261,106116
131167,106044
131065,106020
130981,105970
130818,105900
130605,105792
130428,105737
130195,105609
129894,105502
129562,105326
129295,105216
129019,105114
128719,104978
128473,104862
128218,104735
128028,104646
127846,104567
127718,104486
127590,104438
127514,104423
127483,104385
127406,104365
127424,104385
127443,104372
127425,104395
127496,104422
127552,104416
127567,104423
127635,104490
127650,104503
127713,104501
127768,104538
127842,104556
127853,104556
127918,104606
127985,104630
128011,104655
128082,104658
128099,104706
128217,104747
128284,104772
128398,104842
128447,104854
128565,104937
128677,104952
128836,105001
128938,105077
129025,105110
129145,105167
129236,105181
129400,105273
129463,105297
129563,105330
129641,105378
129670,105403
129786,105425
129832,105499
129897,105488
129913,105517
129959,105531
129956,105548
130016,105542
129992,105533
130033,105573
130052,105559
130125,105599
130159,105592
130204,105632
130218,105643
130285,105663
130308,105638
130327,105688
130359,105680
130361,105667
130360,105660
130374,105693
130292,105643
130243,105650
130199,105594
130131,105580
130021,105564
129958,105502
129857,105475
129729,105394
129671,105352
129565,105347
129484,105286
129374,105253
129326,105251
129264,105178
129273,105213
129234,105178
129209,105172
129222,105180
129185,105168
129255,105157
129298,105213
129288,105231
129273,105176
129314,105209
129309,105227
129329,105231
129404,105252
129367,105268
129381,105247
129484,105257
129467,105290
129509,105276
129586,105368
129648,105373
129742,105405
129804,105432
129934,105492
129971,105479
130057,105552
130149,105568
130222,105605
130251,105650
130359,105681
130423,105677
130487,105760
130533,105783
130568,105765
130623,105826
130669,105790
130689,105855
130765,105843
130798,105880
130811,105893
130858,105901
130953,105938
131028,105957
131064,106005
131143,105998
131244,106064
131317,106123
131395,106134
131495,106156
131542,106192
131618,106221
131720,106289
131799,106321
131863,106333
131939,106370
131996,106398
131997,106422
132038,106410
132055,106432
132078,106404
132111,106459
132053,106415
132101,106421
132125,106435
132053,106425
132005,106394
131959,106333
131937,106309
131753,106294
131607,106195
131487,106116
131251,106034
131010,105917
130760,105816
130459,105715
130148,105539
129945,105458
129631,105300
129356,105205
129143,105087
128951,104961
128753,104947
128564,104860
128470,104803
128277,104727
128176,104653
128141,104655
128038,104595
127977,104579
127909,104549
127900,104546
127872,104530
127893,104526
127861,104520
127906,104540
127935,104578
128022,104586
128105,104622
128162,104672
128231,104718
128366,104726
128497,104826
128598,104854
128741,104916
128824,104958
128966,105049
129069,105069
129138,105115
129268,105164
129358,105214
129394,105235
129509,105254
129536,105269
129599,105287
129649,105354
129686,105348
129770,105400
129808,105416
129849,105429
129924,105464
130041,105485
130071,105532
130204,105582
130241,105594
130317,105608
130383,105667
130466,105700
130500,105721
130548,105719
130556,105748
130592,105724
130618,105745
130612,105731
130617,105740
130561,105750
130526,105709
130566,105716
130555,105689
130502,105680
130491,105720
130466,105651
130494,105697
130471,105684
130430,105674
130425,105618
130439,105640
130395,105627
130409,105633
130363,105599
130317,105598
130337,105635
130295,105556
130282,105585
130213,105577
130184,105535
130136,105529
130127,105529
130099,105484
130116,105504
130082,105512
130099,105488
130089,105476
130158,105519
130136,105538
130179,105536
130255,105582
130291,105582
130337,105616
130354,105602
130449,105668
130469,105711
130550,105717
130642,105748
130675,105774
130724,105779
130852,105835
130897,105867
130928,105894
131012,105919
131050,105943
131145,105959
131232,106004
131275,106037
131383,106053
131422,106102
131492,106139
131526,106155
131610,106152
131631,106194
131674,106219
131801,106250
131846,106276
131888,106327
131957,106339
131990,106344
132061,106370
132124,106391
132204,106446
132228,106425
132311,106498
132368,106472
132379,106519
132501,106540
132504,106554
132583,106593
132602,106636
132671,106630
132740,106634
132769,106655
132858,106715
132883,106721
132905,106736
132970,106750
133009,106767
133029,106758
133130,106800
133099,106809
133138,106842
133108,106829
133107,106796
133109,106798
133055,106762
132959,106755
132806,106688
132643,106579
132469,106549
132247,106433
131968,106307
131706,106177
131438,106070
131115,105909
130854,105790
130544,105667
130266,105541
130055,105447
129818,105383
129611,105260
129464,105185
129308,105147
129242,105079
129131,105072
129031,105038
129031,105005
128965,104999
128976,105006
128979,105026
128980,105028
129084,105018
129134,105054
129190,105109
129255,105140
129328,105159
129402,105187
129487,105229
129567,105274
129669,105313
129726,105330
129862,105380
129921,105421
130027,105493
130105,105492
130198,105539
130283,105607
130389,105659
130483,105666
130589,105695
130647,105758
130745,105778
130847,105826
130947,105879
131029,105937
131088,105943
131211,105978
131295,106018
131387,106074
131446,106109
131557,106146
131592,106157
131694,106185
131756,106206
131817,106248
131870,106232
131951,106316
131955,106316
132005,106341
132048,106345
132085,106338
132151,106387
132106,106375
132161,106413
132141,106374
132146,106363
132134,106330
132159,106372
132093,106382
132080,106335
132036,106310
132038,106330
131974,106290
131946,106297
131892,106247
131862,106250
131819,106250
131741,106208
131728,106192
131703,106150
131617,106157
131645,106160
131612,106140
131577,106105
131585,106128
131570,106114
131546,106121
131591,106113
131575,106126
131607,106142
131617,106117
131599,106150
131666,106160
131686,106153
131696,106168
131758,106170
131756,106201
131809,106209
131816,106246
131816,106250
131885,106258
131926,106286
131917,106271
132023,106282
132032,106329
132019,106334
132091,106344
132127,106360
132186,106416
132231,106419
132285,106396
132296,106465
132376,106461
132465,106479
132514,106532
132526,106574
132573,106549
132597,106547
132672,106617
132718,106581
132739,106644
132772,106650
132790,106663
132873,106708
132904,106687
132959,106703
132998,106713
133056,106742
133086,106744
133127,106750
133139,106806
133184,106800
133220,106834
133234,106821
133268,106812
133332,106876
133346,106871
133385,106860
133427,106937
133472,106934
133490,106906
133546,106967
133609,106948
133627,106969
133657,107021
133660,106979
133687,107026
133726,107007
133713,107013
133717,107012
133648,106969
133587,106964
133507,106920
133332,106867
133170,106770
132933,106698
132681,106585
132425,106455
132171,106341
131874,106192
131535,106044
131213,105926
130972,105827
130651,105674
130403,105564
130188,105467
129973,105367
129750,105299
129602,105212
129492,105132
129393,105129
129303,105075
129202,105077
129200,105046
129180,105002
129198,105061
129180,105053
129202,105057
129256,105067
129290,105109
129333,105067
129413,105151
129524,105184
129601,105234
129678,105245
129806,105330
129873,105326
129977,105405
130040,105433
130114,105445
130230,105514
130308,105533
130349,105600
130447,105611
130571,105627
130645,105705
130686,105720
130828,105759
130888,105814
130922,105848
131053,105826
131129,105904
131193,105940
131269,105942
131334,106022
131420,106000
131506,106064
131567,106103
131654,106111
131760,106172
131761,106152
131842,106200
131904,106222
131932,106246
131955,106229
131959,106271
131959,106266
132022,106264
132035,106257
132072,106299
132044,106274
132044,106281
132051,106251
132067,106237
132060,106293
132012,106232
132002,106249
132022,106246
131981,106263
131965,106232
131884,106205
131868,106184
131861,106162
131824,106192
131764,106132
131785,106165
131728,106168
131730,106150
131714,106113
131665,106148
131705,106138
131683,106123
131730,106164
131689,106139
131706,106118
131760,106145
131738,106149
131786,106142
131799,106175
131781,106165
131814,106168
131849,106154
131851,106183
131889,106203
131957,106211
131964,106244
131980,106261
132041,106260
132111,106282
132144,106323
132191,106311
132251,106339
132297,106359
132365,106383
132362,106413
132392,106384
132464,106436
132485,106473
132535,106477
132573,106506
132554,106478
132596,106475
132620,106542
132652,106523
132667,106535
132718,106571
132733,106559
132783,106580
132804,106612
132856,106581
132903,106612
132902,106646
132959,106636
133040,106657
133025,106699
133051,106660
133104,106706
133138,106747
133145,106706
133259,106735
133226,106797
133282,106768
133342,106778
133379,106798
133406,106821
133428,106866
133455,106857
133535,106865
133542,106925
133564,106892
133596,106899
133661,106948
133650,106914
133673,106916
133691,106947
133630,106907
133562,106899
133499,106854
133438,106831
133250,106758
133102,106670
132844,106575
132648,106466
132374,106358
132047,106212
131782,106069
131454,105961
131153,105827
130867,105659
130607,105607
130318,105455
130096,105355
129887,105300
129656,105191
129533,105119
129387,105021
129244,105011
129169,104939
129076,104923
129059,104901
129025,104883
129028,104925
129028,104881
129061,104913
129108,104897
129160,104952
129229,104986
129253,104998
129326,105024
129413,105098
129461,105098
129574,105139
129649,105162
129777,105217
129819,105275
129906,105257
129997,105336
130075,105374
130181,105380
130306,105443
130337,105496
130447,105513
130542,105527
130637,105598
130700,105634
130775,105660
130855,105674
130987,105735
131024,105791
131093,105781
131195,105841
131275,105848
131364,105912
131401,105951
131461,105950
131522,105984
131572,106026
131627,106016
131678,106021
131694,106043
131779,106094
131758,106065
131799,106083
131823,106087
131831,106123
131828,106112
131855,106126
131870,106113
131892,106113
131845,106108
131848,106093
131800,106083
131741,106082
131762,106053
131709,106038
131667,106053
131605,105977
131561,105976
131545,105957
131472,105921
131424,105895
131361,105884
131325,105845
131278,105829
131204,105845
131224,105817
131173,105800
131199,105796
131149,105829
131137,105781
131153,105805
131144,105805
131160,105792
131203,105824
131191,105808
131220,105813
131277,105833
131303,105865
131301,105888
131335,105871
131398,105899
131403,105911
131457,105922
131500,105922
131500,105968
131515,105954
131607,105979
131635,106012
131686,106004
131645,106013
131703,106025
131747,106072
131765,106042
131826,106096
131828,106104
131895,106133
131935,106136
131956,106149
132015,106164
132031,106195
132064,106181
132148,106208
132161,106211
132172,106256
132184,106223
132271,106267
132254,106225
132294,106253
132305,106248
132348,106269
132342,106306
132368,106320
132377,106304
132384,106328
132379,106322
132448,106330
132462,106360
132472,106330
132523,106381
132514,106375
132576,106390
132629,106382
132639,106430
132649,106417
132641,106442
132698,106434
132725,106452
132703,106474
132670,106403
132582,106394
132559,106377
132458,106340
132274,106254
132156,106161
131928,106101
131731,105989
131462,105864
131220,105764
130899,105634
130618,105506
130366,105404
130082,105278
129861,105161
129631,105055
129370,104939
129224,104884
129060,104805
128928,104735
128756,104688
128702,104681
128641,104625
128597,104610
128598,104624
128571,104604
128587,104610
128613,104615
128666,104652
128751,104681
128779,104704
128881,104729
128931,104772
129028,104795
129134,104854
129197,104909
129268,104939
129409,104967
129525,105018
129626,105084
129686,105082
