11111,11111
0,0
81662,80577
104175,99955
104160,99951
104132,99901
104075,99882
104127,99903
104214,99933
104175,99961
104118,99921
104066,99889
104128,99903
104231,99970
104154,99955
104135,99898
104052,99841
104146,99912
104137,99985
104116,99910
104114,99921
103999,99852
104101,99896
104131,99960
104128,99911
104091,99918
104048,99832
104084,99903
104147,99966
104124,99916
104136,99914
104040,99860
104106,99906
104168,99945
104118,99904
104149,99900
104034,99841
104141,99898
104187,99971
104128,99875
104137,99935
104067,99821
104136,99924
104167,99971
104158,99914
104132,99898
104078,99807
104163,99922
104160,99973
104137,99914
104102,99916
103977,99823
104070,99898
104132,99922
104101,99926
104062,99895
103980,99835
104056,99877
104087,99888
104075,99918
103992,99893
103945,99790
104036,99870
104065,99917
104040,99880
103992,99859
103966,99805
103982,99880
104027,99877
104017,99897
103954,99851
103926,99809
103948,99851
104037,99850
103989,99892
103932,99825
103883,99811
103965,99855
103961,99895
103971,99838
103953,99814
103865,99815
103935,99837
103989,99884
103998,99839
103971,99842
103927,99762
104036,99864
104036,99892
104072,99871
104033,99860
104013,99780
104122,99918
104129,99881
104117,99905
104136,99862
104107,99828
104181,99919
104186,99933
104171,99914
104111,99836
104064,99847
104119,99859
104127,99877
103966,99783
103849,99714
103652,99635
103643,99635
103507,99603
103354,99479
103128,99430
103008,99326
102951,99336
102806,99330
102663,99240
102559,99137
102416,99106
102407,99128
102369,99123
102309,99107
102234,99055
102202,98990
102255,99082
102236,99044
102214,99064
102195,99002
102969,99340
103382,99538
103379,99506
103435,99553
103457,99550
103412,99500
103673,99641
103632,99634
103658,99595
103587,99589
103787,99594
103874,99706
103920,99752
103895,99722
103851,99682
103836,99637
103860,99694
103963,99738
103932,99725
103892,99704
103868,99620
103895,99733
103969,99766
103966,99759
103911,99701
103869,99668
103964,99700
104049,99774
103958,99692
103931,99731
103877,99670
104009,99715
104051,99797
103991,99704
104007,99718
103922,99690
104019,99781
104069,99722
104072,99750
104025,99733
104002,99677
104053,99756
104123,99755
104099,99779
104055,99747
104031,99680
104134,99758
104162,99784
104116,99755
104139,99789
104076,99690
104123,99788
104193,99831
104193,99788
104152,99753
104080,99752
104196,99783
104207,99839
104175,99771
104178,99766
104099,99761
104184,99783
104185,99819
104146,99793
104152,99741
104127,99739
104170,99799
104228,99851
104214,99791
104163,99811
104099,99730
104205,99817
104232,99838
104189,99820
104136,99800
104122,99761
104245,99831
104237,99875
104177,99790
104183,99795
104109,99787
104160,99821
104224,99815
104101,99797
103996,99698
103877,99650
103853,99679
103710,99593
103602,99531
103388,99432
103241,99361
103140,99390
103044,99313
102912,99296
102758,99183
102632,99142
102597,99141
102558,99130
102483,99083
102345,99026
102283,98999
102337,99029
102352,99012
102290,99020
102235,98984
102248,98941
102339,99017
102359,99054
102334,99037
102356,99014
102365,98998
102480,99055
102532,99143
102526,99098
102513,99070
102559,99098
102652,99186
102720,99185
102730,99198
102715,99154
102730,99165
102838,99245
102873,99259
102901,99260
102824,99215
102847,99228
102950,99319
102973,99316
102970,99277
102951,99271
102914,99250
103062,99325
103085,99345
103010,99331
103015,99276
102999,99307
103063,99321
103120,99376
103079,99302
103049,99303
103037,99282
103145,99350
103148,99391
103128,99342
103062,99314
103112,99320
103198,99376
103149,99351
103157,99357
103253,99404
103220,99426
103233,99385
103204,99391
103167,99355
103239,99420
103261,99438
103210,99353
103164,99328
103120,99369
103216,99394
103193,99417
103137,99408
103088,99282
103102,99376
103129,99386
103120,99385
103088,99359
103037,99282
103034,99325
103103,99351
103074,99336
103038,99303
103009,99260
103029,99322
103070,99362
103035,99306
103014,99329
102938,99276
103001,99294
103032,99342
102983,99283
103002,99322
102887,99255
102964,99305
103006,99338
103036,99325
102987,99321
102898,99240
103002,99328
103054,99335
103010,99328
102978,99346
102919,99229
103008,99328
103047,99327
103061,99348
103052,99316
102991,99287
103064,99326
103071,99399
103104,99326
103119,99346
103038,99306
103106,99360
103172,99414
103137,99347
103129,99390
103098,99341
103131,99367
103198,99421
103196,99389
103160,99369
103158,99314
103225,99399
103271,99460
103246,99390
103242,99435
103149,99352
103266,99418
103292,99445
103291,99415
103244,99428
103244,99380
103308,99448
103327,99487
103285,99431
103271,99439
103234,99381
103325,99421
103356,99489
103283,99464
103298,99448
103229,99373
103328,99483
103360,99498
103345,99436
103302,99487
103250,99410
103316,99453
103354,99486
103363,99441
103324,99481
103252,99357
103374,99464
103428,99509
103369,99460
103357,99472
103317,99413
103394,99513
103453,99491
103437,99531
103444,99498
103364,99447
103463,99542
103471,99543
103460,99493
103407,99494
103425,99471
103478,99486
103504,99549
103464,99514
103491,99510
103416,99475
103485,99540
103535,99529
103508,99529
103465,99479
103442,99461
103535,99530
103551,99583
103534,99525
103529,99513
103458,99496
103577,99546
103613,99572
103560,99532
103562,99516
103511,99545
103624,99536
103635,99583
103633,99562
103552,99523
103577,99520
103615,99568
103716,99620
103676,99586
103614,99556
103574,99557
103680,99594
103694,99645
103612,99559
103560,99541
103489,99493
103513,99529
103395,99468
103307,99413
103124,99334
102979,99270
102885,99264
102770,99237
102579,99084
102450,99035
102251,99002
102233,98962
102113,98930
101995,98854
101918,98843
101754,98790
101791,98805
101730,98793
101662,98756
101594,98663
101554,98705
101592,98709
101607,98756
101539,98716
101490,98662
101518,98654
101573,98756
101546,98708
101548,98707
101508,98636
101503,98683
101578,98742
101610,98744
101632,98750
101565,98705
101610,98722
101717,98804
101750,98789
101758,98802
101684,98752
101768,98788
101866,98858
101874,98873
101854,98874
101827,98817
101902,98861
101956,98874
102003,98934
101949,98890
101957,98873
101946,98856
102058,98935
102483,99051
102546,99116
102568,99110
102534,99084
102514,99064
102544,99102
102583,99130
102588,99125
102548,99140
102512,99035
102518,99072
102679,99129
102596,99137
102592,99098
102510,99073
102562,99077
102645,99143
102617,99151
102590,99079
102533,99064
102563,99095
102651,99133
102620,99150
102582,99084
102551,99064
102574,99114
102661,99196
102638,99114
102626,99143
102566,99100
102672,99157
102730,99170
102722,99174
102677,99122
102680,99113
102737,99184
102774,99207
102797,99172
102805,99205
102739,99149
102821,99173
102911,99237
102876,99250
102870,99198
102801,99191
102909,99240
102912,99268
102928,99245
102907,99265
102896,99218
102973,99269
102962,99322
102943,99249
102959,99302
102915,99208
102997,99275
103080,99311
103000,99279
103030,99300
102950,99238
103020,99284
103120,99363
103072,99273
103020,99323
102990,99241
103102,99307
103142,99390
103100,99321
103067,99296
103048,99286
103109,99325
103159,99371
103111,99330
103134,99342
103071,99292
103151,99294
103236,99411
103134,99365
103135,99370
103066,99314
103209,99373
103256,99426
103177,99387
103211,99408
103138,99312
103188,99365
103292,99412
103205,99421
103238,99373
103165,99332
103266,99393
103285,99452
103237,99384
103256,99414
103192,99341
103286,99395
103321,99427
103310,99386
103259,99386
103256,99361
103328,99408
103351,99473
103277,99410
103311,99394
103261,99363
103329,99424
103385,99463
103312,99444
103331,99412
103303,99388
103337,99447
103380,99490
103364,99403
103336,99445
103297,99369
103394,99439
103439,99467
103401,99479
103398,99404
103361,99413
103399,99458
103493,99499
103443,99463
103397,99414
103406,99438
103459,99479
103516,99517
103469,99495
103436,99461
103420,99449
103512,99498
103538,99496
103529,99519
103480,99475
103469,99433
103541,99518
103580,99518
103580,99502
103514,99491
103523,99477
103577,99513
103629,99534
103612,99534
103538,99492
103581,99465
103634,99542
103682,99570
103642,99560
103582,99485
103651,99490
103666,99588
103712,99583
103670,99552
103657,99522
103641,99526
103656,99543
103621,99539
103501,99506
103379,99406
103211,99337
103160,99315
103052,99280
102822,99213
102621,99082
102485,99035
102389,99007
102283,98968
102136,98913
101943,98788
101857,98768
101841,98786
101804,98763
101708,98726
101579,98653
101601,98626
101589,98676
101592,98669
101553,98625
101489,98584
101452,98628
101595,98695
101604,98663
101573,98661
101531,98604
101599,98659
101649,98692
101697,98707
101673,98710
101639,98696
101708,98707
101821,98758
101856,98796
101807,98755
101819,98776
101883,98786
101970,98883
102007,98826
102050,98874
102002,98787
102065,98839
102178,98920
102202,98938
102175,98904
102150,98884
102206,98909
102281,98986
102320,98949
102269,98985
102283,98896
102307,98983
102386,98976
102401,99001
102341,98952
102326,98930
102393,98972
102460,99048
102456,99042
102445,98980
102395,98973
102442,99021
102521,99085
102542,99044
102539,99070
102493,99001
102551,99064
102658,99095
102626,99111
102613,99063
102563,99056
102573,99031
102671,99129
102644,99090
102616,99130
102531,99028
102638,99068
102678,99105
102645,99088
102616,99052
102577,99056
102569,99050
102641,99119
102611,99098
102613,99085
102512,99014
102587,99077
102602,99092
102639,99058
102603,99081
102512,99020
102602,99059
102594,99122
102571,99050
102562,99072
102497,98980
102583,99069
102633,99093
102612,99094
102575,99038
102569,99022
102599,99108
102701,99130
102638,99112
102643,99126
102550,99028
102668,99089
102737,99172
102695,99107
102697,99082
102656,99047
102716,99155
102832,99181
102754,99177
102753,99122
102711,99106
102752,99155
102872,99213
102798,99179
102805,99183
102736,99133
102882,99169
102912,99209
102892,99245
102873,99185
102797,99133
102952,99252
102992,99235
102939,99214
102987,99228
102882,99206
102993,99271
103060,99269
103014,99243
102976,99250
102976,99193
103041,99275
103105,99277
103072,99280
103082,99277
103030,99237
103155,99284
103160,99338
103151,99291
103080,99310
103054,99257
103156,99309
103168,99362
103164,99302
103167,99291
103145,99275
103257,99354
103252,99396
103221,99329
103222,99327
103171,99299
103283,99353
103325,99411
103260,99370
103255,99311
103218,99317
103322,99397
103348,99438
103274,99342
103273,99368
103213,99323
103343,99388
103355,99421
103343,99373
103282,99344
103277,99352
103349,99404
103388,99438
103358,99428
103340,99384
103310,99388
103383,99403
103462,99448
103391,99403
103397,99351
103376,99390
103428,99452
103464,99441
103453,99419
103405,99378
103425,99392
103471,99468
103546,99463
103473,99473
103439,99379
103445,99424
103516,99471
103551,99503
103494,99465
103505,99416
103461,99420
103576,99493
103579,99506
103537,99458
103549,99431
103561,99443
103597,99511
103602,99524
103570,99519
103564,99447
103528,99461
103618,99545
103636,99519
103651,99535
103623,99451
103626,99490
103696,99519
103685,99588
103613,99483
103607,99481
103521,99455
103600,99485
103508,99469
103342,99356
103225,99299
103061,99248
102968,99200
102862,99167
102627,99080
102463,99005
102339,98902
102283,98945
102171,98886
102052,98800
101877,98738
101845,98693
101833,98769
101772,98718
101700,98668
101618,98645
101583,98612
101630,98647
101588,98660
101553,98606
101549,98613
101520,98586
101586,98638
101577,98673
101583,98580
101556,98581
101592,98623
101701,98682
101665,98677
101719,98705
101668,98597
101757,98682
101814,98749
101874,98749
101853,98742
101879,98710
101935,98745
102031,98842
102038,98826
102058,98804
102016,98766
102074,98821
102163,98893
102174,98880
102183,98859
102155,98820
102220,98867
102253,98923
102244,98903
102243,98921
102203,98867
102242,98904
102322,98955
102275,98925
102275,98907
102190,98862
102316,98940
102331,98964
102310,98955
102282,98928
102259,98877
102345,98942
102442,98961
102426,99005
102410,98967
102366,98924
102451,98966
102496,99022
102480,99013
102474,98989
102434,98951
102487,99015
102555,99041
102521,99023
102502,98987
102403,98919
102503,98987
102513,99033
102501,99029
102511,98966
102419,98910
102487,98987
102521,99031
102486,98979
102477,98969
102417,98922
102499,99012
102517,99027
102493,99022
102441,98965
102399,98935
102443,98962
102544,99049
102466,98978
102452,98948
102403,98940
102456,99006
102513,99038
102497,99031
102500,99000
102387,98933
102490,99032
102569,99051
102548,99036
102513,99049
102483,98961
102631,99086
102641,99036
102645,99059
102633,99064
102543,99002
102680,99047
102725,99133
102667,99109
102718,99123
102665,99044
102746,99144
102821,99138
102795,99140
102771,99117
102716,99057
102823,99138
102834,99141
102862,99135
102866,99142
102762,99081
102874,99185
102892,99209
102920,99174
102927,99153
102891,99153
102938,99173
103028,99245
102978,99193
103015,99168
102985,99171
103033,99235
103103,99289
103079,99235
103051,99211
103060,99174
103128,99283
103172,99269
103150,99265
103108,99255
103085,99220
103224,99338
103247,99310
103179,99308
103152,99247
103175,99250
103228,99287
103234,99360
103228,99305
103232,99284
103138,99250
103290,99336
103302,99353
103298,99335
103271,99310
103197,99281
103335,99329
103359,99372
103332,99363
103321,99354
103245,99303
103381,99350
103357,99359
103350,99351
103296,99328
103284,99273
103391,99372
103399,99377
103360,99376
103370,99342
103304,99360
103422,99397
103416,99393
103399,99374
103348,99355
103417,99351
103472,99421
103506,99422
103472,99402
103453,99382
103433,99343
103540,99426
103569,99461
103533,99428
103497,99405
103501,99373
103581,99462
103602,99458
103546,99440
103489,99399
103458,99378
103536,99447
103465,99409
103332,99341
103130,99223
103038,99160
102947,99185
102823,99134
102625,99059
102437,98934
102322,98885
102296,98892
102160,98824
102014,98738
101867,98684
101755,98621
101797,98669
101734,98655
101684,98636
101570,98527
101569,98546
101603,98609
101639,98589
101552,98562
101504,98539
101481,98530
101574,98580
101602,98583
101562,98581
101535,98547
101606,98596
101673,98594
101667,98657
101672,98640
101635,98611
101722,98607
101772,98710
101838,98705
101799,98704
101819,98651
101876,98715
101930,98751
101991,98775
102012,98764
101974,98717
102060,98782
102098,98816
102162,98871
102144,98805
102081,98757
102184,98816
102250,98896
102285,98895
102252,98852
102189,98831
102246,98845
102355,98941
102332,98897
102336,98879
102256,98841
102317,98888
102394,98929
102402,98914
102375,98903
102364,98894
102435,98960
102484,98949
102500,98960
102513,98955
102445,98937
102543,98966
102575,98996
102602,99019
102592,98988
102494,98944
102612,98984
102641,99061
102641,99038
102617,98984
102592,98979
102592,99029
102634,99045
102583,99026
102620,99023
102547,98969
102629,98976
102632,99047
102605,99033
102620,98988
102536,98970
102581,99005
102684,99049
102611,99032
102619,99001
102536,98942
102628,99013
102677,99030
102640,99014
102609,99016
102599,98937
102639,99033
102694,99068
102644,99019
102662,99055
102607,98942
102672,99029
102718,99096
102705,99046
102688,99050
102636,98990
102747,99088
102764,99097
102746,99092
102783,99071
102700,98995
102845,99065
102845,99150
102846,99116
102832,99088
102777,99052
102887,99098
102953,99178
102881,99131
102904,99107
102867,99115
102973,99161
103007,99188
102946,99171
103004,99129
102934,99124
103052,99216
103100,99207
103034,99214
103048,99185
102991,99176
103093,99202
103147,99275
103103,99239
103100,99230
103064,99147
103206,99252
103213,99268
103202,99243
103144,99262
103137,99177
103222,99268
103239,99307
103206,99266
103247,99249
103176,99204
103245,99289
103324,99321
103278,99298
103244,99268
103252,99251
103334,99290
103335,99328
103321,99299
103305,99312
103249,99271
103334,99312
103408,99383
103366,99338
103331,99328
103286,99262
103387,99337
103423,99328
103400,99304
103375,99319
103324,99289
103447,99346
103476,99364
103441,99342
103392,99343
103379,99286
103505,99371
103485,99372
103484,99348
103491,99367
103468,99342
103524,99422
103573,99394
103531,99372
103468,99333
103485,99330
103568,99399
103559,99423
103533,99344
103422,99325
103335,99270
103352,99286
103206,99240
103054,99144
102915,99080
102733,98974
102661,99004
102577,98979
102429,98879
102216,98792
102113,98733
102059,98773
102001,98741
101849,98656
101772,98557
101699,98569
101694,98570
101675,98607
101621,98550
101542,98522
101526,98474
101618,98554
101586,98583
101576,98503
101516,98475
101552,98514
101652,98583
101651,98587
101673,98556
101633,98581
101695,98575
101777,98644
101859,98674
101845,98677
101836,98601
101886,98659
101990,98718
102073,98728
102098,98757
102065,98715
102154,98765
102232,98836
102280,98853
102288,98841
102307,98832
102351,98856
102427,98901
102468,98936
102478,98927
102461,98883
102487,98882
102605,98999
102582,98973
102578,98937
102559,98896
102577,98935
102709,99025
102681,99000
102675,98962
102646,98953
102671,99021
102740,99048
102779,99043
102781,99049
102781,98966
102800,99066
102906,99085
102880,99116
102903,99089
102850,99051
102939,99098
102997,99141
103014,99124
102986,99109
102926,99067
102986,99138
103041,99144
103047,99160
103015,99140
102935,99070
102998,99135
103061,99181
103034,99171
103000,99125
102922,99048
102963,99133
103050,99183
103029,99157
102968,99120
102946,99104
102958,99102
103025,99161
102996,99137
102965,99131
102938,99072
102983,99123
103028,99152
102967,99158
103006,99129
102915,99108
102987,99138
103095,99212
103058,99197
103050,99168
102995,99115
103081,99184
103097,99227
103118,99198
103093,99190
103061,99116
103139,99200
103160,99273
103170,99231
103142,99205
103162,99188
103186,99245
103295,99242
103248,99250
103273,99248
103198,99214
103286,99268
103363,99346
103390,99304
103363,99279
103289,99233
103399,99297
103491,99333
103414,99337
103443,99359
103382,99273
103504,99358
103553,99415
103511,99345
103475,99365
103469,99349
103532,99387
103629,99410
103585,99398
103576,99415
103542,99340
103607,99445
103671,99402
103631,99417
103631,99401
103601,99361
103688,99423
103690,99500
103683,99469
103671,99432
103626,99415
103761,99458
103750,99518
103720,99473
103728,99452
103667,99382
103764,99475
103811,99477
103752,99473
103751,99469
103739,99424
103812,99526
103794,99511
103760,99503
103779,99486
103754,99412
103816,99518
103833,99496
103831,99493
103809,99468
103766,99419
103827,99485
103864,99558
103845,99487
103809,99465
103745,99450
103833,99517
103914,99557
103831,99525
103793,99458
103812,99450
103878,99507
103908,99547
103810,99493
103829,99450
103741,99456
103818,99478
103816,99534
103700,99448
103600,99316
103434,99300
103369,99261
103271,99203
103057,99129
102887,99046
102721,98947
102658,98969
102541,98895
102411,98868
102292,98760
102134,98723
102159,98755
102099,98689
101980,98681
101872,98581
101796,98561
101874,98613
101851,98605
101835,98598
101743,98569
101756,98554
101825,98634
101832,98656
101825,98584
101854,98580
101832,98570
101936,98672
102025,98697
102005,98660
101955,98666
102039,98672
102199,98777
102235,98811
102220,98764
102226,98752
102214,98774
102363,98810
102392,98900
102394,98807
102392,98814
102373,98849
102489,98873
102564,98920
102509,98897
102480,98861
102506,98847
102579,98918
102623,98958
102548,98898
102520,98848
102539,98877
102585,98923
102613,98939
102559,98914
102541,98896
102549,98873
102613,98968
102644,98956
102606,98935
102561,98861
102574,98926
102635,98937
102680,98968
102646,98937
102645,98937
102640,98944
102732,98971
102736,99014
102715,98966
102695,98927
102730,98960
102757,99038
102775,98968
102712,98992
102700,98896
102681,98924
102761,98983
102724,98965
102702,98956
102659,98882
102703,98940
102715,98981
102693,98989
102659,98912
102669,98908
102655,98949
102732,98957
102706,98967
102704,98949
102607,98888
102724,98923
102748,99010
102738,98957
102730,98952
102687,98894
102718,98979
102759,98975
102812,99000
102776,98998
102714,98919
102769,98957
102885,99008
102853,99034
102843,98983
102787,98944
102864,98984
102968,99084
102934,99040
102935,99037
102880,99022
102999,99071
103039,99094
103085,99082
103059,99088
102993,98996
103076,99099
103152,99117
103084,99132
103116,99128
103058,99050
103161,99142
103164,99180
103168,99174
103138,99124
103147,99062
103204,99157
103219,99184
103260,99181
103237,99152
103152,99101
103247,99180
103323,99218
103276,99219
103214,99153
103208,99146
103308,99220
103326,99204
103315,99213
103291,99182
103264,99135
103339,99212
103376,99234
103342,99222
103295,99196
103259,99144
103331,99210
103404,99240
103378,99212
103350,99191
103271,99185
103369,99187
103439,99284
103364,99212
103379,99200
103330,99169
103411,99251
103399,99254
103425,99249
103367,99230
103346,99191
103418,99243
103453,99263
103419,99229
103397,99236
103339,99175
103410,99219
103465,99279
103402,99224
103445,99264
103333,99184
103444,99226
103459,99286
103405,99246
103415,99188
103377,99207
103465,99225
103484,99296
103470,99267
103445,99247
103419,99183
103486,99298
103525,99266
103507,99300
103445,99240
103443,99196
103566,99268
103559,99353
103546,99278
103540,99272
103513,99254
103543,99305
103582,99297
103547,99320
103503,99234
103422,99256
103466,99262
103434,99254
103258,99160
103164,99073
102982,99018
102955,99011
102842,98947
102641,98875
102510,98797
102388,98736
102321,98736
102275,98713
102170,98638
102093,98627
101927,98533
101989,98580
101955,98614
101912,98546
101816,98500
101773,98483
101852,98525
101857,98576
101839,98511
101828,98486
101764,98460
101891,98552
101913,98604
101948,98563
101901,98544
101916,98562
102003,98623
102060,98671
102071,98620
102085,98567
102095,98620
102161,98704
102242,98703
102222,98711
102195,98654
102257,98695
102288,98721
102361,98758
102321,98760
102320,98693
102299,98724
102384,98749
102466,98800
102405,98778
102370,98731
102371,98726
102483,98795
102438,98843
102444,98783
102417,98754
102402,98768
102467,98792
102506,98812
102451,98786
102439,98749
102482,98789
102517,98827
102563,98828
102539,98820
102465,98809
102515,98783
102619,98885
102617,98844
102629,98877
102594,98824
102586,98796
102705,98885
102724,98900
102667,98855
102610,98824
102593,98852
102678,98866
102698,98901
102665,98853
102581,98824
102592,98814
102703,98898
102649,98859
102638,98859
102584,98815
102587,98802
102640,98871
102624,98877
102568,98830
102538,98745
102533,98788
102613,98856
102591,98882
102549,98800
102527,98768
102560,98793
102612,98869
102609,98867
102566,98825
102539,98760
102569,98854
102659,98872
102612,98866
102636,98853
102588,98831
102640,98822
102706,98908
102679,98886
102665,98878
102630,98838
102691,98866
102751,98916
102757,98909
102711,98895
102720,98844
102756,98883
102829,98940
102787,98916
102810,98913
102724,98876
102836,98949
102923,98983
102895,98942
102864,98953
102825,98911
102947,98958
102962,99006
102963,98982
102961,98999
102929,98966
102987,98991
103040,99042
103036,98997
102991,99002
102998,98975
103049,99026
103070,99085
103051,99041
103062,99043
103034,98945
103050,99041
103107,99072
103133,99041
103083,99066
103045,98994
103115,99065
103132,99114
103089,99093
103113,99041
103094,99012
103116,99044
103194,99129
103162,99088
103112,99094
103072,98976
103165,99072
103195,99121
103139,99088
103150,99061
103077,99045
103189,99076
103203,99146
103189,99086
103159,99091
103129,99028
103179,99105
103263,99153
103189,99108
103165,99075
103153,99070
103206,99087
103289,99160
103227,99094
103217,99098
103144,99035
103207,99129
103283,99146
103260,99135
103244,99108
103164,99080
103245,99170
103270,99152
103248,99141
103256,99107
103200,99129
103315,99138
103311,99190
103271,99149
103295,99152
103268,99084
103310,99139
103367,99179
103335,99184
103298,99121
103290,99122
103339,99143
103401,99200
103327,99159
103308,99113
103229,99108
103228,99113
103168,99096
103022,99031
102875,98895
102729,98857
102688,98825
102537,98815
102406,98733
102249,98673
102106,98583
102089,98628
102032,98586
101911,98525
101824,98465
101687,98419
101742,98444
101690,98452
101622,98446
101535,98347
101529,98330
101570,98428
101574,98388
101557,98376
101510,98324
101532,98354
101584,98378
101651,98384
101587,98423
101617,98403
101644,98379
101745,98483
101757,98460
101821,98503
101787,98466
101792,98477
101910,98538
101944,98581
101943,98544
101996,98524
101982,98533
102085,98618
102115,98649
102133,98606
102096,98632
102088,98584
102216,98659
102242,98705
102180,98651
102196,98602
102186,98656
102276,98679
102282,98682
102265,98669
102253,98642
102233,98668
102348,98682
102343,98737
102334,98699
102274,98685
102309,98644
102365,98737
102386,98788
102396,98722
102359,98685
102416,98745
102487,98777
102501,98818
102479,98756
102443,98765
102448,98730
102534,98800
102566,98815
102507,98805
102433,98740
102459,98758
102521,98818
102553,98843
102500,98742
102462,98731
102424,98726
102535,98802
102520,98818
102467,98758
102397,98776
102450,98720
102523,98779
102474,98789
102435,98762
102389,98715
102421,98748
102436,98772
102466,98774
102423,98775
102376,98696
102415,98753
102426,98781
102419,98752
102405,98770
102387,98681
102399,98722
102468,98785
102490,98820
102465,98742
102446,98744
102460,98747
102545,98833
102535,98801
102543,98809
102480,98756
102564,98795
102626,98851
102595,98812
102590,98833
102562,98774
102605,98843
102673,98854
102658,98875
102639,98861
102588,98823
102684,98855
102734,98924
102718,98871
102726,98892
102661,98839
102733,98867
102770,98963
102770,98894
102768,98933
102686,98852
102758,98869
102834,98931
102829,98929
102826,98946
102739,98872
102843,98939
102871,98981
102892,98956
102869,98955
102849,98892
102906,98999
102960,99001
102952,98993
102940,98971
102934,98936
102956,99001
103046,99024
102968,99018
102998,99008
102935,98943
103014,99031
103017,99032
103066,99039
103015,99022
102966,98960
103050,99031
103084,99095
103075,99001
103033,99056
102991,98955
103034,99046
103101,99079
103075,99042
103053,99049
102981,98981
103070,99039
103158,99071
103092,99048
103070,99072
102999,98963
103100,99076
103142,99082
103126,99048
103082,99044
103036,98964
103143,99081
103152,99082
103164,99070
103129,99045
103054,98983
103132,99042
103203,99079
103160,99104
103124,99062
103078,99014
103153,99090
103233,99094
103153,99091
103190,99066
103087,99040
103199,99113
103216,99134
103155,99102
103182,99074
103140,99074
103215,99122
103250,99129
103236,99108
103199,99108
103151,99029
103246,99141
103276,99164
103243,99131
103250,99081
103250,99082
103255,99117
103337,99162
103287,99130
103296,99102
103232,99092
103299,99141
103374,99205
103343,99139
103304,99137
103255,99086
103345,99144
103403,99196
103323,99181
103291,99112
103174,99078
103159,99042
103087,99055
102892,98974
102724,98869
102535,98745
102480,98796
102346,98718
102166,98616
102029,98562
101823,98509
101816,98475
101764,98466
101579,98368
101502,98343
101413,98272
101422,98315
101403,98320
101300,98257
101276,98240
101225,98226
101236,98251
101268,98221
101239,98256
101194,98195
101194,98208
101271,98292
101248,98282
101277,98237
101272,98272
101237,98228
101393,98333
101393,98339
101385,98281
101439,98312
101392,98323
101524,98400
101568,98411
101571,98398
101557,98355
101604,98390
101686,98428
101711,98489
101686,98450
101705,98427
101722,98426
101782,98513
101827,98497
101791,98465
101794,98465
101786,98455
101906,98531
101878,98583
101873,98477
101826,98455
101845,98495
101899,98550
101940,98542
101915,98569
101845,98500
101906,98508
101976,98595
102019,98592
101983,98593
101955,98515
102019,98573
102071,98609
102112,98608
102041,98571
102047,98583
102074,98589
102124,98663
102154,98641
102091,98629
102073,98588
102044,98596
102153,98637
102151,98668
102069,98599
102062,98562
102054,98570
102130,98649
102101,98651
102074,98593
102020,98585
102013,98576
102084,98646
102091,98653
102055,98567
101987,98592
102004,98580
102072,98583
102024,98600
102023,98590
101969,98534
102009,98557
102050,98600
102056,98600
102013,98554
102027,98530
102002,98597
102095,98616
102073,98622
102077,98627
101993,98529
102048,98610
102095,98650
102141,98624
102099,98620
102076,98575
102142,98615
102209,98699
102186,98648
102182,98700
102116,98623
102158,98656
102245,98702
102287,98699
102228,98688
102194,98645
102264,98669
102284,98737
102327,98732
102309,98701
102247,98665
102329,98714
102355,98762
102373,98753
102383,98740
102287,98699
102376,98743
102423,98772
102432,98769
102406,98757
102386,98735
102462,98757
102505,98824
102483,98788
102480,98793
102417,98728
102503,98791
102515,98837
102529,98813
102522,98803
102464,98745
102558,98841
102597,98869
102553,98827
102583,98830
102524,98785
102617,98845
102654,98878
102601,98837
102654,98842
102554,98796
102634,98837
102702,98906
102647,98872
102641,98864
102568,98775
102679,98894
102724,98919
102666,98873
102631,98849
102616,98804
102663,98902
102697,98907
102691,98893
102676,98876
102571,98828
102710,98879
102759,98961
102670,98887
102711,98913
102630,98824
102735,98896
102753,98936
102726,98860
102693,98926
102635,98865
102790,98901
102795,98977
102745,98875
102744,98921
102695,98855
102790,98910
102828,98960
102782,98894
102759,98928
102755,98892
102841,98954
102826,98979
102809,98923
102812,98916
102756,98894
102832,98911
102878,98998
102828,98963
102835,98937
102761,98886
102855,98964
102866,98966
102876,98997
102852,98927
102808,98906
102898,98990
102916,99006
102921,98971
102877,98962
102861,98930
102927,99002
102953,99027
102949,98965
102933,99003
102853,98946
102991,99009
103043,99068
103004,98992
102968,99005
102921,98995
103031,98996
103070,99061
103010,99025
103026,99017
102989,98975
103057,99037
103100,99088
103057,99030
103037,99019
103036,99023
103114,99085
103128,99073
103110,99055
103077,99032
103022,99001
103159,99096
103129,99085
103131,99071
103107,99077
103112,99027
103165,99082
103210,99117
103142,99106
103155,99058
103124,99076
103221,99117
103206,99171
103211,99075
103171,99062
103208,99067
103272,99128
103308,99189
103280,99092
103219,99065
103236,99090
103261,99115
103225,99131
103071,99022
102933,98953
102789,98871
102700,98889
102557,98800
102405,98713
102181,98595
102023,98542
101937,98513
101822,98490
101657,98408
101497,98307
101432,98285
101429,98304
101360,98291
101261,98225
101121,98156
101124,98124
101155,98193
101155,98208
101034,98142
101037,98107
101015,98131
101101,98137
101106,98178
101055,98141
101020,98091
101087,98111
101150,98212
101163,98173
101185,98191
101161,98159
101183,98195
101306,98270
101349,98248
101334,98266
101303,98225
101379,98281
101443,98365
101476,98335
101530,98339
101478,98319
101539,98322
101612,98425
101656,98417
101666,98380
101666,98368
101709,98448
101813,98494
101815,98463
101820,98459
101791,98435
101804,98446
101886,98533
101887,98508
101876,98486
101874,98409
101904,98521
101962,98527
101989,98562
101957,98557
101893,98501
102001,98524
102019,98591
102062,98568
102050,98598
101996,98530
102075,98546
102156,98631
102140,98628
102128,98604
102063,98514
102143,98590
102188,98640
102203,98606
102155,98603
102075,98571
102162,98576
102179,98618
102184,98633
102144,98628
102040,98556
102172,98573
102159,98621
102149,98596
102153,98584
102072,98561
102116,98605
102180,98639
102160,98632
102116,98576
102098,98545
102116,98594
102201,98636
102177,98627
102151,98574
102083,98533
102170,98610
102210,98648
102153,98631
102195,98623
102124,98553
102220,98611
102256,98649
102265,98656
102244,98604
102243,98604
102270,98676
102333,98688
102314,98679
102326,98683
102250,98632
102392,98676
102403,98749
102369,98680
102409,98725
102332,98637
102461,98711
102479,98744
102462,98721
102455,98751
102403,98684
102572,98775
102565,98796
102542,98732
102578,98799
102496,98743
102623,98769
102673,98839
102608,98783
102679,98822
102583,98759
102702,98851
102739,98875
102735,98830
102743,98842
102705,98782
102791,98854
102876,98902
102799,98866
102831,98909
102768,98845
102919,98910
102919,98973
102875,98927
102897,98884
102864,98909
102932,98904
102970,98998
102944,98924
102985,98923
102949,98912
103000,98992
103046,98978
103040,98971
102996,98939
103002,98912
103071,98998
103100,98991
103069,98975
103073,98965
103007,98938
103135,99010
103138,99029
103133,99041
103099,98970
103071,98970
103152,99059
103201,99031
103178,99059
103146,98980
103131,98993
103190,99031
103280,99077
103225,99051
103177,99019
103169,99028
103229,99049
103284,99097
103225,99066
103209,99013
103221,99019
103248,99075
103274,99068
103269,99059
103249,99035
103225,99022
103301,99110
103312,99096
103305,99098
103232,99042
103253,99040
103317,99122
103349,99131
103312,99087
103305,99091
103290,99084
103365,99100
103381,99132
103354,99114
103315,99060
103327,99073
103386,99149
103397,99149
103365,99102
103333,99086
103351,99058
103416,99173
103456,99143
103405,99162
103379,99078
103393,99096
103422,99165
103453,99190
103334,99092
103277,99079
103225,99033
103183,99014
103107,98970
102893,98909
102699,98767
102603,98727
102468,98744
102360,98660
102227,98605
102020,98494
101923,98438
101924,98487
101836,98426
101712,98398
101572,98289
101574,98275
101534,98334
101522,98294
101446,98261
101390,98249
101378,98244
101390,98264
101432,98278
101415,98250
101337,98198
101409,98249
101439,98269
101526,98314
101445,98319
101462,98249
101482,98298
101601,98353
101627,98376
101607,98364
101649,98298
101688,98385
101793,98448
101815,98445
101804,98404
101826,98401
101857,98479
101968,98504
101983,98502
102002,98531
101992,98468
102022,98489
102128,98602
102100,98555
102134,98551
102076,98481
102133,98576
102240,98627
102197,98649
102179,98592
102163,98560
102178,98591
102287,98635
102255,98671
102248,98597
102209,98615
102265,98632
102347,98664
102372,98679
102324,98647
102313,98610
102378,98674
102391,98742
102409,98705
102433,98706
102346,98629
102402,98693
102482,98732
102483,98687
102416,98694
102355,98658
102403,98682
102440,98751
102453,98703
102390,98679
102335,98640
102386,98678
102440,98727
102402,98688
102345,98669
102323,98618
102343,98661
102391,98709
102353,98662
102344,98671
102304,98605
102342,98648
102385,98692
102345,98676
102346,98679
102322,98606
102350,98650
102433,98724
102380,98678
102363,98639
102367,98613
102429,98710
102462,98709
102433,98698
102408,98696
102344,98584
102494,98719
102486,98728
102497,98719
102487,98729
102397,98663
102507,98695
102554,98791
102525,98741
102549,98729
102458,98672
102589,98744
102611,98775
102635,98752
102560,98768
102551,98719
102666,98771
102677,98815
102714,98806
102669,98793
102640,98761
102720,98817
102779,98843
102792,98847
102754,98798
102690,98775
102820,98859
102867,98863
102858,98865
102797,98867
102755,98818
102893,98889
102918,98903
102894,98885
102873,98849
102839,98831
102967,98908
102963,98969
102944,98907
102956,98881
102900,98852
102992,98931
103030,98968
102993,98962
102982,98898
102957,98884
103055,98981
103052,99002
103020,98936
103030,98978
102994,98918
103078,98975
103128,99028
103083,98992
103040,98919
103050,98911
103093,98990
103153,99036
103063,98975
103090,98959
103062,98945
103127,98993
103160,99050
103135,98970
103102,98977
103068,98938
103177,98989
103217,99032
103130,99021
103136,99018
103092,98987
103221,99031
103218,99061
103158,99017
103181,98993
103125,98988
103209,99036
103239,99038
103209,99063
103182,98971
103166,98992
103208,99047
103233,99077
103212,99038
103169,98988
103170,98980
103231,99091
103257,99065
103220,99049
103200,99018
103213,99003
103281,99052
103275,99119
103279,99051
103215,99039
103229,99021
103319,99056
103338,99105
103287,99092
103267,99061
103213,99033
103321,99077
103260,99103
103124,98981
103092,98928
102939,98874
102859,98843
102699,98776
102535,98682
102313,98622
102189,98529
102137,98544
102016,98514
101870,98409
101708,98324
101580,98268
101579,98320
101494,98291
101412,98247
101317,98163
101262,98169
101263,98151
101286,98169
101182,98155
101104,98085
101131,98111
101144,98110
101157,98149
101096,98120
101092,98063
101130,98094
101184,98144
101199,98182
101139,98106
101166,98139
101185,98142
101244,98169
101287,98218
101268,98182
101261,98178
101346,98175
101412,98262
101442,98275
101449,98240
101386,98257
101435,98223
101566,98336
101545,98278
101576,98321
101519,98225
101583,98284
101623,98338
101663,98364
101632,98331
101594,98320
101653,98350
101698,98401
101687,98382
101701,98371
101641,98330
101686,98354
101714,98425
101691,98384
101743,98393
101643,98336
101758,98368
101808,98435
101810,98435
101786,98398
101740,98395
101805,98398
101886,98459
101905,98482
101872,98444
101825,98376
101880,98474
101900,98459
101891,98469
101881,98430
101802,98417
101829,98408
101941,98514
101881,98448
101803,98453
101782,98390
101850,98401
101857,98482
101842,98434
101811,98450
101769,98352
101791,98435
101829,98452
101794,98434
101788,98374
101719,98387
101753,98394
101821,98430
101779,98399
101732,98407
101698,98306
101767,98399
101810,98454
101774,98403
101755,98441
101700,98327
101801,98382
101837,98480
101816,98420
101773,98442
101767,98349
101837,98454
101862,98465
101883,98448
101851,98456
101814,98384
101879,98454
101935,98473
101932,98457
101919,98487
101863,98394
101933,98504
102000,98545
101950,98488
101987,98472
101897,98453
102013,98519
102083,98557
102023,98547
102027,98489
101959,98482
102039,98521
102091,98575
102018,98546
102078,98519
102012,98510
102087,98542
102175,98606
102113,98567
102129,98535
102088,98520
102161,98597
102217,98600
102207,98607
102192,98566
102092,98551
102236,98581
102283,98673
102227,98621
102222,98610
102193,98582
102264,98619
102264,98664
102264,98623
102262,98628
102209,98577
102313,98631
102319,98671
102338,98627
102261,98649
102239,98573
102355,98667
102405,98713
102338,98662
102312,98640
102296,98613
102357,98682
102424,98688
102366,98670
102317,98636
102339,98604
102431,98719
102446,98692
102413,98698
102368,98660
102329,98657
102420,98668
102459,98763
102432,98696
102387,98675
102367,98648
102458,98720
102473,98718
102441,98689
102431,98710
102410,98660
102511,98703
102523,98736
102465,98739
102464,98661
102423,98676
102543,98746
102547,98765
102503,98753
102448,98660
102472,98687
102512,98755
102519,98747
102488,98706
102474,98714
102444,98700
102551,98743
102565,98794
102527,98743
102484,98671
102511,98683
102556,98759
102577,98791
102557,98752
102528,98684
102563,98686
102584,98754
102596,98812
102550,98739
102583,98716
102562,98723
102589,98772
102641,98805
102587,98793
102598,98733
102565,98760
102656,98786
102652,98788
102645,98777
102583,98716
102628,98759
102683,98839
102704,98838
102677,98813
102628,98762
102604,98736
102713,98847
102664,98793
102591,98768
102482,98694
102358,98630
102366,98655
102206,98575
102047,98489
101808,98378
101701,98332
101564,98301
101480,98246
101279,98157
101106,98114
101038,98061
100993,98046
100940,98028
100862,97981
100749,97904
100718,97926
100731,97948
100660,97901
100621,97903
100553,97818
100524,97838
100534,97832
100508,97867
100493,97817
100410,97749
100483,97824
100454,97885
100482,97834
100485,97818
100419,97762
100433,97804
100531,97877
100522,97843
100521,97859
100484,97817
100519,97836
100630,97905
100575,97916
100565,97852
100583,97856
100598,97894
100694,97926
100678,97905
100709,97907
100576,97888
100668,97901
100740,97944
100709,97977
100718,97929
100629,97845
100755,97937
100749,97993
100738,97924
100739,97940
100676,97880
100709,97908
100763,97961
100760,97951
100733,97915
100690,97894
100756,97932
100801,98006
100800,97968
100777,97966
100733,97911
100793,97966
100831,98003
100835,97972
100842,98020
100772,97902
100825,97956
100868,98046
100846,98010
100849,97994
100778,97923
100844,97976
100851,98035
100856,97988
100866,97999
100774,97920
100832,97989
100847,98024
100826,98001
100841,97988
100780,97923
100841,97981
100853,98024
100833,97998
100792,97976
100770,97922
100827,97970
100843,98010
100817,97984
100810,97980
100742,97914
100816,97971
100847,98000
100794,97960
100820,97971
100697,97892
100802,97962
100903,97993
100834,98012
100779,97963
100757,97937
100838,97988
100915,98006
100878,98013
100823,97981
100835,97948
100918,98039
100961,98026
100942,98027
100936,98007
100878,97948
101007,98036
101024,98080
100998,98084
100996,98037
100984,98001
101066,98104
101084,98076
101071,98086
101087,98098
101047,98051
101110,98111
101187,98159
101167,98130
101143,98112
101133,98084
101234,98112
101273,98186
101215,98162
101219,98110
101209,98121
101287,98177
101320,98211
101327,98168
101308,98205
101297,98110
101372,98223
101405,98235
101401,98226
101359,98182
101374,98187
101450,98237
101483,98260
101507,98229
101492,98235
101433,98216
101571,98298
101610,98343
101547,98293
101541,98261
101537,98246
101657,98326
101665,98326
101640,98330
101620,98279
101584,98266
101684,98311
101695,98367
101664,98331
101659,98304
101620,98277
101748,98357
101730,98373
101679,98348
101712,98306
101710,98309
101772,98406
101824,98382
101764,98378
101762,98360
101721,98338
101827,98369
101828,98462
101823,98369
101806,98360
101808,98341
101889,98392
101878,98444
101870,98391
101839,98375
101855,98355
101926,98440
101939,98448
101921,98428
101837,98374
101875,98401
101931,98452
102012,98433
101939,98438
101877,98385
101945,98402
102006,98465
101978,98523
101970,98431
101956,98398
101952,98445
102003,98455
102064,98493
102042,98445
101946,98441
101972,98416
102079,98490
102104,98490
102054,98475
102020,98442
102025,98465
102068,98493
102137,98522
102065,98526
102044,98450
102065,98496
102160,98509
102134,98504
102151,98495
102067,98503
102130,98480
102203,98550
102181,98583
102142,98491
102141,98501
102138,98495
102239,98554
102229,98526
102233,98535
102169,98488
102216,98554
102292,98589
102269,98595
102260,98567
102213,98504
102274,98530
102295,98643
102346,98570
102303,98602
102272,98542
102299,98594
102313,98589
102320,98598
102231,98555
102184,98481
102151,98484
102082,98497
101927,98404
101763,98317
101563,98244
101466,98194
101352,98155
101216,98068
101051,98029
100838,97873
100814,97876
100733,97877
100657,97886
100558,97816
100430,97689
100425,97736
100411,97795
100359,97729
100315,97690
100206,97615
100257,97647
100287,97722
100249,97657
100185,97648
100165,97591
100211,97640
100253,97651
100215,97672
100214,97634
100173,97603
100267,97655
100287,97706
100283,97733
100271,97690
100278,97683
100353,97679
100388,97756
100410,97747
100403,97771
100407,97671
100448,97785
100525,97791
100493,97792
100533,97797
100509,97733
100579,97821
100609,97854
100603,97844
100628,97813
100572,97741
100699,97846
100664,97899
100690,97854
100667,97846
100601,97798
100729,97872
100733,97940
100734,97851
100730,97895
100667,97796
100749,97866
100798,97928
100816,97898
100779,97924
100726,97820
100872,97929
100876,97961
100894,97953
100864,97934
100846,97914
100895,97960
100978,98029
100942,97960
100922,97957
100834,97932
100957,97964
101020,98015
100956,97964
100925,97960
100888,97924
100920,97978
100960,97962
100933,97993
100918,97974
100850,97900
100911,97957
100982,98005
100924,97964
100907,97974
100856,97918
100907,97951
100943,98005
100894,97928
100935,97950
100797,97883
100923,97959
100948,97981
100895,97940
100945,97926
100863,97935
100917,97963
100973,97999
100940,97968
100922,97967
100932,97908
100988,98006
101009,98002
101019,97989
100976,97961
100949,97956
101043,98013
101090,98080
101050,97995
101029,98000
101009,97969
101085,98032
101175,98078
101090,98071
101107,97998
101073,97989
101197,98059
101224,98130
101146,98089
101181,98039
101138,98066
101273,98118
101255,98115
101234,98113
101210,98057
101191,98089
101284,98128
101341,98165
101311,98123
101281,98119
101316,98122
101348,98168
101440,98189
101398,98170
101370,98161
101418,98144
101505,98209
101489,98245
101482,98185
101422,98185
101447,98165
101514,98264
101555,98233
101539,98230
101520,98166
101562,98196
101609,98253
101603,98283
101608,98232
101599,98237
101557,98201
101677,98289
101643,98319
101626,98244
101668,98265
101617,98238
101700,98287
101731,98355
101668,98296
101677,98261
101659,98264
101766,98310
101770,98323
101753,98322
101690,98278
101746,98300
101785,98370
101827,98333
101762,98358
101735,98306
101716,98297
101831,98353
101798,98389
101776,98319
101769,98326
101797,98304
101848,98361
101862,98370
101831,98346
101806,98329
101802,98325
101896,98372
101869,98372
101862,98357
101823,98329
101875,98374
101929,98408
101936,98426
101921,98395
101855,98337
101897,98388
101955,98422
101970,98433
101925,98399
101908,98349
101910,98385
101998,98441
101981,98439
101971,98414
101939,98360
101985,98410
102046,98442
102015,98410
102048,98414
101958,98405
102036,98403
102054,98456
102050,98436
102011,98426
101908,98357
101941,98370
101905,98364
101757,98356
101615,98253
101463,98152
101336,98127
101246,98081
101058,98036
100906,97928
100783,97839
100671,97827
100687,97823
100512,97783
100432,97730
100326,97631
100347,97691
100298,97686
100268,97655
100221,97619
100117,97573
100099,97588
100118,97598
100082,97582
100050,97564
99973,97508
100013,97541
100034,97606
100050,97527
100034,97575
99955,97540
100032,97528
100068,97624
100076,97574
100076,97565
99990,97536
100057,97564
100147,97657
100143,97596
100125,97621
100122,97554
100195,97632
100196,97663
100202,97632
100244,97647
100206,97627
100241,97676
100317,97672
100295,97702
100270,97684
100278,97615
100333,97678
100398,97746
100326,97698
100321,97694
100279,97659
100382,97706
100412,97773
100330,97716
100363,97709
100332,97674
100395,97745
100462,97777
100424,97749
100450,97759
100383,97712
100486,97777
100569,97849
100528,97796
100533,97789
100496,97763
100597,97798
100614,97835
100610,97834
100590,97798
100539,97777
100599,97832
100652,97839
100583,97827
100567,97820
100502,97760
100574,97845
100627,97813
100594,97819
100578,97804
100530,97744
100586,97789
100640,97843
100563,97828
100551,97793
100561,97755
100619,97816
100614,97854
100620,97855
100549,97812
100549,97772
100643,97835
100619,97866
100621,97827
100587,97798
100583,97783
100631,97854
100687,97872
100650,97816
100638,97824
100645,97815
100688,97891
100745,97861
100713,97910
100717,97868
100692,97829
100784,97890
100810,97936
100821,97937
100805,97903
100813,97889
100901,97941
100949,97977
100933,97963
100922,97955
100918,97920
100997,98034
101071,98027
101042,98020
101011,97970
101014,97982
101148,98039
101171,98053
101149,98050
101178,98038
101154,98018
101246,98066
101310,98121
101294,98121
101245,98090
101266,98091
101373,98139
101409,98150
101401,98130
101359,98115
101376,98122
101428,98179
101471,98224
101484,98161
101469,98168
101470,98139
101543,98205
101564,98257
101589,98216
101524,98189
101545,98161
101614,98260
101658,98278
101630,98246
101608,98206
101628,98227
101710,98265
101720,98308
101661,98308
101672,98229
101663,98239
101768,98293
101761,98326
101721,98317
101701,98248
101747,98287
101773,98332
101823,98330
101773,98299
101772,98263
101747,98265
101858,98347
101840,98372
101789,98354
101790,98303
101798,98311
101880,98336
101857,98366
101845,98370
101777,98306
101797,98321
101872,98347
101929,98372
101862,98341
101814,98304
101860,98347
101898,98396
101935,98380
101910,98389
101868,98326
101885,98343
101985,98392
101948,98406
101933,98374
101927,98358
101995,98365
102013,98451
102009,98375
101995,98393
101935,98344
101994,98374
102044,98465
102023,98395
102035,98404
101994,98349
102014,98409
102077,98469
102091,98427
102048,98417
102020,98379
102049,98392
102125,98469
102077,98452
102095,98475
102043,98379
102158,98440
102155,98511
102180,98483
102111,98473
102115,98417
102158,98448
102267,98512
102228,98515
102245,98463
102174,98450
102206,98495
102338,98550
102283,98512
102274,98520
102195,98436
102182,98489
102200,98493
102110,98435
101958,98393
101759,98234
101703,98235
101593,98211
101422,98122
101228,98051
101049,97916
100941,97941
100885,97917
100773,97844
100611,97779
100502,97684
100466,97700
100459,97723
100377,97675
100302,97631
100184,97556
100236,97623
100236,97630
100200,97596
100146,97553
100092,97530
100123,97567
100150,97607
100136,97586
100146,97560
100063,97515
100150,97569
100217,97615
100186,97618
100183,97589
100117,97533
100227,97600
100270,97669
100263,97642
100267,97632
100235,97590
100342,97663
100394,97723
100403,97694
100360,97699
100335,97626
100437,97714
100514,97761
100480,97719
100485,97733
100422,97691
100533,97772
100585,97807
100529,97758
100573,97734
100457,97715
100589,97800
100634,97794
100548,97781
100597,97798
100498,97730
100628,97780
100681,97825
100632,97822
100662,97788
100585,97768
100688,97805
100728,97857
100731,97825
100708,97828
100660,97797
100772,97879
100786,97892
100793,97853
100794,97857
100719,97820
100825,97881
100851,97908
100823,97888
100816,97843
100773,97828
100868,97896
100826,97927
100826,97900
100836,97864
100756,97827
100858,97892
100863,97916
100837,97909
100822,97862
100776,97838
100869,97905
100850,97925
100820,97887
100788,97854
100792,97832
100844,97905
100873,97931
100831,97882
100831,97874
100777,97843
100881,97909
100886,97933
100862,97898
100823,97875
100799,97851
100916,97923
100921,97958
100894,97905
100891,97915
100867,97879
100930,97955
100986,97975
100953,97952
100937,97935
100952,97907
101049,97986
101049,97981
101051,97976
101048,97941
101058,97967
101107,98032
101143,98045
101137,98046
101163,98000
101118,97987
101224,98077
101242,98092
101231,98063
101223,98031
101236,98003
101293,98084
101343,98119
101329,98101
101316,98064
101300,98043
101427,98144
101418,98184
101383,98141
101402,98100
101384,98073
101445,98155
101504,98213
101493,98168
101438,98119
101473,98145
101537,98192
101579,98225
101523,98223
101492,98149
101569,98185
101627,98234
101622,98244
101621,98216
101582,98206
101591,98178
101675,98238
101662,98272
101663,98250
101609,98206
101692,98198
101728,98278
101785,98286
101692,98245
101697,98211
101677,98262
101756,98301
101797,98300
101729,98278
101675,98261
101740,98249
101791,98309
101796,98282
101780,98283
101749,98239
101788,98258
101828,98325
101785,98297
101788,98313
101772,98240
101794,98261
101861,98333
101851,98319
101785,98288
101763,98248
101804,98287
101845,98331
101819,98333
101818,98307
101787,98252
101842,98277
101886,98337
101888,98328
101847,98325
101817,98270
101870,98306
101904,98345
101914,98354
101871,98335
101829,98298
101901,98331
101921,98384
101944,98374
101950,98341
101889,98325
101930,98336
102009,98388
101982,98388
101956,98362
101875,98290
101916,98309
101904,98331
101822,98275
101669,98193
101492,98121
101427,98095
101374,98075
101169,98000
100997,97912
100824,97816
100745,97804
100679,97810
100549,97733
100462,97683
100320,97607
100277,97608
100273,97640
100197,97582
100147,97554
100051,97491
100052,97514
100078,97552
99998,97492
100000,97489
99927,97417
99962,97476
99983,97497
99934,97476
99960,97479
99898,97405
99946,97470
99975,97526
99960,97480
99943,97483
99921,97405
100007,97505
100065,97545
100016,97514
100023,97495
99980,97452
100097,97547
100166,97586
100124,97537
100114,97542
100044,97482
100160,97569
100196,97586
100166,97587
100156,97551
100081,97524
100198,97585
100204,97631
100178,97605
100161,97568
100084,97542
100193,97573
100216,97628
100173,97599
100162,97545
100101,97538
100195,97603
100197,97618
100211,97621
100201,97607
100157,97536
100249,97623
100267,97639
100276,97615
100271,97647
100157,97581
100304,97641
100331,97667
100272,97632
100299,97628
100220,97618
100289,97589
100312,97672
100223,97622
100225,97591
100213,97593
100222,97598
100276,97658
100236,97612
100194,97576
100139,97558
100230,97637
100220,97636
100214,97585
100162,97596
100148,97559
100167,97563
100235,97661
100161,97588
100113,97569
100095,97531
100160,97582
100175,97613
100132,97613
100136,97583
100084,97537
100197,97616
100203,97608
100149,97626
100110,97567
100097,97546
100197,97645
100218,97627
100183,97615
100191,97594
100156,97552
100233,97635
100276,97639
100279,97653
100236,97594
100235,97615
100295,97633
100358,97693
100306,97664
100271,97632
100311,97647
100395,97683
100416,97737
100387,97718
100370,97676
100404,97676
100492,97752
100499,97755
100486,97746
100429,97693
100477,97711
100550,97756
100601,97791
100562,97773
100543,97743
100552,97752
100596,97780
100634,97838
100601,97828
100598,97758
100637,97791
100686,97816
100720,97865
100709,97838
100675,97816
100661,97788
100783,97874
100774,97889
100764,97840
100762,97804
100744,97852
100861,97902
100871,97897
100812,97877
100833,97854
100817,97879
100924,97910
100921,97936
100894,97914
100849,97850
100885,97895
100957,97905
100953,97937
100954,97961
100870,97892
100941,97936
101017,97928
101019,97964
100988,97965
100919,97896
100985,97904
101030,97960
101067,97996
101025,97954
100991,97960
101029,97919
101065,97989
101094,97999
101074,97986
101045,97954
101103,98008
101163,98020
101148,98032
101136,98044
101096,97968
101159,98021
101242,98064
101215,98069
101253,98064
101202,98021
101256,98006
101300,98105
101292,98101
101254,98056
101170,97987
101199,98014
101165,98000
101081,98006
100888,97898
100733,97758
100682,97791
100582,97753
100447,97702
100284,97605
100123,97504
100032,97495
100023,97517
99929,97470
99843,97395
99727,97355
99713,97363
99675,97364
99649,97339
99559,97309
99459,97245
99509,97269
99507,97276
99442,97226
99392,97267
99297,97140
99404,97223
99397,97242
99402,97224
99309,97205
99284,97136
99348,97212
99396,97240
99346,97214
99358,97244
99300,97164
99400,97238
99456,97286
99399,97224
99392,97239
99336,97212
99435,97232
99494,97295
99420,97255
99459,97284
99447,97247
99498,97247
99531,97323
99499,97285
99506,97280
99456,97245
99514,97274
99541,97332
99502,97315
99518,97282
99479,97245
99484,97280
99550,97326
99547,97278
99529,97320
99417,97238
99541,97292
99600,97352
99529,97303
99572,97325
99479,97303
99601,97330
99679,97363
99626,97368
99615,97354
99566,97327
99709,97351
99747,97438
99681,97358
99735,97393
99613,97354
99747,97378
99776,97444
99719,97424
99693,97368
99621,97312
99714,97363
99773,97392
99673,97417
99704,97372
99664,97350
99690,97375
99735,97403
99674,97398
99681,97349
99619,97351
99689,97347
99725,97410
99641,97378
99641,97363
99579,97288
99697,97396
99678,97426
99688,97380
99646,97323
99608,97348
99664,97353
99693,97395
99692,97337
99671,97371
99606,97282
99719,97425
99719,97412
99722,97383
99677,97369
99652,97329
99791,97430
99800,97439
99791,97389
99710,97392
99735,97331
99792,97472
99831,97476
99787,97442
99818,97434
99793,97416
99886,97434
99919,97498
99879,97466
99868,97412
99880,97436
99916,97515
99978,97516
99931,97501
99939,97456
99933,97465
100004,97488
100052,97544
99993,97546
99955,97510
99954,97506
100117,97557
100122,97595
100065,97530
100100,97542
100051,97560
100168,97582
100191,97627
100141,97581
100135,97599
100129,97541
100233,97661
100229,97668
100231,97599
100228,97598
100188,97596
100277,97653
100312,97667
100296,97647
100229,97608
100271,97567
100332,97686
100342,97686
100353,97653
100313,97627
100301,97639
100406,97727
100391,97716
100357,97674
100353,97669
100383,97639
100412,97720
100451,97741
100435,97702
100416,97690
100396,97677
100488,97762
100509,97759
100475,97711
100463,97676
100468,97684
100547,97769
100534,97757
100536,97763
100512,97714
100514,97707
100582,97784
100590,97798
100546,97752
100523,97737
100578,97721
100662,97791
100661,97788
100633,97793
100580,97726
100623,97779
100711,97790
100704,97826
100643,97794
100629,97759
100620,97772
100709,97812
100696,97827
100705,97789
100675,97777
100694,97809
100781,97838
100788,97835
100778,97859
100746,97790
100780,97802
100814,97913
100852,97863
100847,97856
100799,97836
100849,97825
100840,97911
100843,97869
100812,97814
100692,97771
100624,97743
100580,97762
100380,97678
100246,97574
100078,97445
99973,97429
99867,97449
99758,97375
99629,97355
99463,97218
99461,97229
99433,97215
99362,97228
99251,97180
99112,97054
99156,97087
99140,97076
99084,97077
99004,96998
98946,96976
98903,97006
98953,97026
98896,96984
98851,96965
98790,96933
98800,96959
98832,97009
98831,96969
98764,96948
98742,96930
98809,96947
98798,96994
98801,96979
98795,96935
98754,96893
98795,97004
98841,97025
98800,97002
98816,96976
98771,96938
98864,97011
98904,97013
98842,97016
98834,96977
98852,96933
98847,97008
98905,97061
98896,96996
98844,96982
98862,96936
98846,97017
98912,97051
98903,97013
98863,97018
98817,96964
98881,96981
98925,97068
98890,97011
98869,97018
98832,96923
98935,97047
98977,97043
98927,97052
98930,97034
98910,96991
98941,97053
99000,97081
98993,97085
98994,97050
98919,97007
99018,97092
99078,97127
99023,97073
99012,97099
98950,97020
99060,97088
99070,97119
99046,97101
99021,97053
99013,97036
99066,97116
99099,97091
99068,97109
99061,97037
99015,97032
99050,97080
99073,97120
99074,97075
99005,97055
98962,97003
99072,97127
99098,97120
99035,97064
99042,97075
98989,97041
99042,97069
99037,97111
99047,97099
99027,97038
98977,97029
99063,97090
99078,97094
99008,97067
99039,97068
98999,97020
99060,97112
99064,97127
99061,97082
99035,97028
99043,97020
99097,97123
99147,97134
99092,97138
99120,97108
99081,97095
99206,97133
99215,97163
99180,97129
99189,97148
99153,97126
99269,97152
99316,97213
99261,97202
99270,97191
99239,97121
99310,97237
99352,97238
99364,97232
99319,97219
99340,97195
99397,97243
99433,97296
99391,97240
99414,97269
99384,97223
99519,97271
99563,97316
99494,97277
99486,97303
99471,97241
99582,97317
99614,97337
99611,97342
99542,97265
99593,97314
99658,97365
99642,97371
99652,97340
99615,97274
99641,97303
99689,97373
99713,97389
99685,97382
99663,97339
99718,97308
99728,97402
99764,97410
99763,97380
99699,97339
99750,97365
99824,97390
99833,97426
99846,97410
99771,97401
99776,97363
99898,97447
99886,97473
99844,97407
99844,97394
99864,97401
99971,97445
99994,97503
99918,97459
99925,97424
99917,97452
99992,97461
100043,97481
99951,97479
99985,97442
99958,97444
100047,97469
100100,97572
100007,97484
99996,97503
100002,97453
100097,97528
100117,97539
100113,97557
100065,97458
100102,97494
100141,97542
100183,97552
100117,97575
100113,97528
100145,97491
100212,97578
100195,97567
100200,97587
100164,97510
100170,97537
100239,97600
100232,97596
100243,97593
100216,97530
100226,97571
100289,97600
100310,97608
100281,97601
100256,97558
100259,97557
100363,97638
100360,97642
100317,97579
100286,97533
100344,97597
100420,97651
100390,97662
100378,97599
100289,97561
100355,97595
100441,97694
100406,97673
100431,97638
100406,97573
100442,97646
100501,97720
100479,97694
100465,97659
100427,97622
100488,97661
100457,97645
100385,97626
100286,97565
100141,97461
100074,97500
99987,97429
99815,97368
99625,97276
99435,97168
99396,97150
99297,97134
99213,97093
99067,97012
98960,96966
98898,96939
98866,96970
98775,96907
98727,96853
98611,96812
98601,96801
98635,96859
98540,96792
98475,96763
98373,96703
98427,96754
98401,96750
98383,96736
98316,96680
98279,96643
98355,96692
98342,96711
98316,96692
98334,96691
98280,96615
98337,96709
98414,96749
98356,96724
98363,96709
98318,96637
98383,96736
98421,96766
98415,96721
98404,96747
98361,96693
98446,96748
98523,96828
98504,96789
98487,96771
98441,96713
98535,96751
98590,96848
98497,96805
98537,96777
98476,96723
98573,96803
98573,96837
98539,96757
98566,96828
98493,96762
98585,96815
98646,96863
98577,96812
98559,96793
98533,96758
98658,96856
98687,96830
98682,96865
98696,96818
98647,96805
98749,96885
98759,96885
98724,96914
98745,96873
98714,96849
98793,96898
98849,96979
98817,96927
98801,96869
98800,96877
98831,96949
98880,96938
98813,96934
98833,96924
98799,96868
98871,96906
98874,96947
98870,96934
98855,96903
98805,96872
98894,96941
98871,96953
98860,96934
98850,96897
98827,96866
98890,96948
98899,96967
98842,96940
98850,96915
98836,96873
98918,96972
98950,96986
98900,96940
98873,96949
98830,96892
98952,96977
98970,96984
98941,96965
98909,96952
98906,96923
98959,96982
99045,97036
99005,97002
98988,96960
99017,96981
99071,97041
99095,97054
99109,97066
99103,97009
99094,97036
99144,97074
99233,97119
99190,97088
99184,97088
99171,97053
99302,97101
99268,97139
99302,97123
99244,97072
99271,97074
99382,97158
99385,97201
99342,97123
99346,97154
99348,97122
99426,97200
99452,97212
99468,97220
99403,97137
99463,97146
99502,97244
99540,97236
99561,97255
99501,97172
99527,97200
99630,97264
99622,97275
99587,97283
99593,97232
99597,97232
99700,97272
99716,97327
99701,97343
99681,97249
99693,97288
99779,97354
99775,97367
99751,97329
99758,97323
99751,97322
99844,97371
99865,97408
99827,97392
99815,97315
99841,97364
99927,97387
99963,97411
99886,97408
99878,97325
99902,97364
99999,97425
99985,97451
99973,97425
99943,97360
99963,97408
100021,97431
100051,97464
99990,97409
100025,97428
100014,97415
100099,97461
100107,97509
100080,97444
100016,97411
100108,97424
100129,97490
100163,97509
100135,97485
100128,97462
100151,97470
100203,97508
100248,97519
100215,97526
100190,97475
100221,97494
100292,97544
100293,97594
100312,97547
100254,97510
100327,97519
100363,97595
100365,97587
100376,97603
100327,97495
100393,97585
100460,97628
100481,97663
100417,97601
100397,97584
100440,97587
100552,97664
100491,97665
100484,97609
100378,97556
100448,97587
100407,97588
100315,97568
100144,97464
99927,97389
99869,97338
99779,97304
99605,97239
99430,97130
99271,97046
99222,97046
99100,97046
99049,96984
98958,96969
98840,96850
98818,96864
98816,96858
98741,96834
98631,96814
98576,96760
98548,96757
98554,96807
98501,96746
98464,96745
98388,96632
98423,96722
98474,96738
98404,96729
98398,96676
98318,96656
98403,96715
98471,96733
98394,96732
98422,96712
98362,96640
98431,96749
98453,96762
98458,96753
98420,96726
98417,96673
98474,96774
98538,96794
98484,96776
98463,96761
98437,96691
98528,96764
98591,96843
98537,96813
98539,96774
98503,96754
98543,96822
98584,96843
98579,96792
98571,96801
98448,96735
98594,96774
98614,96883
98599,96821
98550,96789
98524,96783
98603,96802
98678,96843
98599,96823
98631,96819
98589,96826
98712,96864
98718,96879
98721,96845
98719,96891
98694,96832
98785,96900
98823,96927
98765,96919
98779,96858
98718,96832
98809,96891
98838,96937
98817,96911
98759,96872
98718,96843
98828,96904
98813,96956
98773,96889
98772,96901
98774,96846
98814,96897
98827,96927
98799,96915
98742,96842
98727,96839
98804,96917
98823,96912
98818,96917
98736,96857
98716,96828
98837,96905
98838,96958
98774,96872
98806,96900
98757,96825
98819,96916
98858,96958
98802,96910
98834,96909
98784,96866
98901,96958
98916,96929
98906,96938
98832,96897
98842,96888
98966,96964
98967,96998
98974,96979
98941,96930
98917,96935
99042,97028
99064,97017
99031,96997
99067,97020
99069,97005
99124,97034
99198,97081
99177,97067
99140,97066
99202,97072
99273,97126
99344,97121
99305,97138
99287,97072
99292,97111
99397,97158
99395,97195
99385,97143
99387,97157
99418,97155
99530,97195
99505,97233
99513,97197
99485,97192
99497,97156
99608,97266
99624,97287
99591,97259
99613,97241
99601,97255
99684,97273
99703,97341
99696,97277
99702,97272
99689,97261
99800,97339
99794,97360
99783,97291
99756,97308
99737,97277
99887,97393
99863,97383
