11111,11111
0,0
78478,79666
92019,96254
92055,96290
92072,96298
91999,96271
92028,96279
91976,96234
92037,96308
91999,96283
91993,96297
91953,96227
91979,96231
91993,96270
91984,96276
91947,96267
91912,96205
91912,96202
91954,96248
91985,96257
91961,96226
91929,96249
91888,96183
91999,96271
91987,96277
91982,96238
91967,96223
91993,96238
92038,96304
92094,96312
92120,96341
92078,96290
92100,96287
92186,96409
92186,96409
92220,96422
92204,96353
92287,96378
92318,96407
92341,96416
92359,96484
92363,96405
92362,96464
92449,96507
92479,96494
92492,96494
92505,96488
92533,96542
92628,96558
92663,96604
92646,96605
92657,96606
92678,96617
92799,96637
92824,96669
92804,96694
92795,96653
92824,96679
92937,96724
92945,96765
92900,96693
92890,96698
92917,96739
93032,96754
93031,96772
93014,96739
93026,96773
93008,96786
93124,96817
93121,96840
93125,96783
93103,96847
93088,96786
93241,96881
93203,96882
93227,96880
93231,96837
93216,96873
93303,96930
93310,96920
93314,96901
93322,96905
93282,96909
93400,96926
93405,96952
93362,96913
93325,96933
93345,96905
93492,96987
93453,97004
93458,96938
93439,96971
93438,96977
93559,97039
93540,97038
93555,97001
93510,97016
93510,97022
93602,97036
93610,97058
93600,97011
93579,97052
93583,97025
93635,97086
93697,97058
93690,97116
93634,97029
93671,97096
93686,97100
93721,97088
93761,97134
93712,97099
93726,97122
93746,97145
93765,97112
93806,97137
93758,97130
93784,97150
93837,97148
93884,97172
93820,97200
93805,97128
93815,97168
93921,97204
93891,97213
94179,97346
93115,96765
92946,96687
91292,95882
91373,95936
91389,95943
92154,96327
92203,96404
92293,96406
92260,96417
92668,96601
92627,96591
92585,96585
92666,96629
92671,96643
92657,96571
92656,96630
92590,96552
92611,96606
92697,96607
92659,96609
92631,96570
92605,96557
92631,96597
92651,96603
92670,96603
92603,96566
92596,96550
92607,96610
92679,96625
92632,96613
92610,96567
92604,96554
92615,96616
92662,96630
92698,96614
92670,96634
92619,96593
92733,96628
92790,96685
92781,96682
92788,96679
92780,96644
92846,96710
92922,96735
92928,96759
92944,96714
92894,96732
92987,96754
93094,96864
93122,96830
93117,96838
93110,96828
93214,96860
93264,96920
93252,96898
93291,96938
93270,96896
93320,96939
93442,96997
93450,96999
93427,96999
93427,96995
93546,97042
93613,97111
93604,97105
93630,97090
93596,97089
93719,97138
93759,97201
93778,97160
93754,97238
93750,97150
93863,97205
93935,97260
93943,97239
93903,97248
93897,97228
94008,97296
94061,97333
94058,97334
94083,97328
94005,97299
94132,97344
94203,97381
94199,97391
94174,97391
94148,97325
94255,97443
94335,97486
94282,97450
94298,97416
94278,97396
94326,97423
94382,97491
94359,97473
94405,97507
94360,97427
94408,97492
94453,97540
94455,97480
94439,97497
94363,97463
94465,97527
94472,97562
94468,97527
94487,97501
94461,97468
94490,97554
94547,97555
94554,97537
94531,97554
94462,97504
94555,97553
94603,97578
94612,97604
94586,97592
94543,97557
94636,97589
94691,97632
94665,97598
94670,97606
94625,97572
94695,97631
94733,97665
94708,97643
94703,97657
94644,97586
94757,97655
94823,97719
94750,97645
94771,97655
94748,97620
94800,97699
94841,97703
94873,97695
94843,97709
94794,97646
94873,97722
94962,97771
94930,97758
94914,97746
94910,97682
94984,97764
95024,97805
95048,97778
95022,97806
95019,97748
95065,97850
95094,97850
95152,97837
95153,97845
95136,97844
95262,97854
95262,97925
95224,97909
95183,97868
95095,97771
95169,97836
95075,97833
94971,97713
94867,97673
94714,97608
94647,97584
94587,97528
94433,97525
94294,97392
94124,97323
94079,97338
93953,97263
93833,97226
93698,97094
93535,97066
93469,97033
93365,97018
93204,96924
93044,96840
92960,96765
92895,96795
92843,96771
92767,96716
92661,96644
92619,96619
92595,96613
92599,96642
92560,96638
92470,96575
92504,96571
92552,96640
92539,96610
92611,96639
92563,96588
92572,96588
92670,96634
92705,96748
92708,96664
92731,96689
92746,96677
92864,96732
92907,96817
92881,96800
92922,96781
92960,96787
93057,96894
93114,96899
93170,96947
93192,96946
93200,96890
93299,97026
93353,97018
93401,97027
93379,96984
93384,97030
93457,97066
93553,97110
93534,97107
93517,97119
93503,97054
93632,97143
93631,97196
93635,97131
93638,97147
93624,97149
93719,97210
93723,97199
93778,97226
93715,97204
93710,97143
93762,97250
93803,97247
93780,97219
93716,97191
93722,97157
93803,97232
93773,97234
93750,97235
93680,97170
93718,97155
93747,97220
93760,97202
93732,97212
93632,97141
93640,97114
93685,97190
93692,97159
93649,97138
93643,97116
93624,97128
93622,97172
93672,97128
93603,97148
93597,97093
93524,97107
93620,97170
93605,97155
93601,97126
93522,97103
93510,97076
93584,97140
93535,97132
93576,97094
93572,97088
93531,97105
93639,97175
93656,97164
93612,97126
93625,97087
93627,97136
93701,97164
93723,97186
93712,97205
93718,97161
93716,97191
93786,97243
93818,97226
93826,97209
93835,97217
93802,97217
93938,97289
93937,97327
93905,97258
93922,97265
93895,97246
94004,97336
94025,97320
93983,97327
93955,97279
93990,97259
94062,97356
94055,97360
94084,97344
94028,97351
94051,97312
94123,97415
94167,97406
94128,97391
94106,97353
94134,97393
94231,97455
94266,97457
94255,97470
94216,97399
94277,97446
94326,97495
94369,97507
94368,97459
94337,97450
94363,97468
94414,97524
94460,97533
94437,97554
94377,97519
94423,97482
94514,97567
94500,97576
94507,97543
94468,97524
94472,97498
94561,97544
94503,97540
94534,97577
94460,97550
94517,97516
94532,97580
94579,97582
94545,97570
94515,97521
94543,97517
94562,97596
94593,97585
94572,97564
94534,97538
94530,97555
94644,97646
94628,97621
94595,97594
94538,97539
94564,97537
94645,97637
94624,97628
94584,97613
94554,97535
94574,97561
94667,97634
94633,97613
94614,97590
94576,97516
94596,97568
94629,97603
94660,97596
94591,97594
94535,97520
94572,97575
94626,97609
94635,97633
94611,97579
94610,97519
94592,97596
94665,97647
94689,97647
94634,97600
94632,97532
94636,97592
94703,97621
94705,97610
94692,97591
94689,97577
94668,97595
94776,97669
94793,97655
94756,97653
94702,97599
94739,97568
94791,97655
94649,97605
94611,97549
94510,97495
94430,97431
94424,97491
94323,97410
94161,97352
93965,97229
93931,97210
93835,97194
93695,97068
93581,97038
93324,96953
93263,96859
93188,96848
92972,96797
92812,96668
92668,96587
92517,96584
92487,96533
92369,96469
92225,96419
92127,96338
92085,96350
92072,96344
92029,96306
91991,96268
91899,96216
91937,96235
92011,96306
91993,96282
91973,96289
91976,96236
92040,96302
92123,96348
92151,96360
92138,96349
92102,96352
92217,96358
92263,96428
92311,96458
92312,96461
92269,96431
92368,96474
92410,96501
92434,96479
92497,96515
92445,96545
92527,96513
92607,96585
92590,96605
92627,96633
92554,96564
92641,96627
92715,96647
92739,96658
92710,96669
92685,96583
92735,96691
92819,96709
92794,96705
92840,96714
92821,96706
92856,96696
92968,96804
92973,96780
92941,96808
92897,96720
92985,96773
93019,96839
92980,96835
92990,96771
92994,96782
93007,96750
93078,96849
93026,96826
92995,96789
92970,96752
92972,96749
93028,96832
93003,96773
92980,96797
92904,96714
92971,96780
93005,96792
92931,96761
92947,96775
92870,96692
92893,96772
92949,96766
92902,96716
92878,96726
92794,96657
92843,96717
92872,96735
92849,96731
92781,96693
92776,96634
92830,96687
92885,96762
92824,96696
92825,96731
92819,96632
92858,96692
92914,96743
92919,96765
92896,96736
92914,96710
92982,96731
93080,96810
93052,96802
93038,96818
92989,96733
93060,96850
93126,96838
93136,96876
93118,96876
93110,96807
93176,96850
93252,96906
93225,96878
93246,96916
93203,96880
93286,96907
93292,96938
93318,96920
93309,96916
93275,96912
93336,96950
93410,96984
93431,96986
93418,96995
93349,96929
93460,97011
93504,97040
93531,97009
93530,97031
93461,96940
93535,97028
93642,97093
93615,97076
93584,97064
93562,97004
93653,97070
93724,97115
93667,97091
93693,97106
93649,97031
93738,97099
93784,97158
93744,97129
93751,97109
93718,97118
93839,97138
93855,97197
93845,97157
93878,97165
93761,97111
93907,97200
93912,97226
93919,97191
93935,97204
93840,97154
93947,97253
94018,97266
93965,97217
93992,97198
93949,97219
94018,97252
94068,97258
94068,97249
94072,97280
93957,97195
94049,97238
94094,97300
94060,97279
94081,97253
93974,97251
94107,97256
94149,97321
94107,97259
94102,97275
94038,97218
94120,97267
94172,97318
94112,97264
94147,97267
94062,97255
94127,97307
94178,97285
94173,97296
94130,97316
94072,97213
94187,97314
94198,97283
94179,97321
94175,97282
94135,97281
94237,97312
94228,97366
94227,97326
94249,97318
94170,97305
94264,97343
94285,97358
94298,97352
94282,97348
94263,97337
94360,97387
94341,97436
94356,97367
94354,97390
94302,97359
94389,97404
94469,97417
94453,97449
94412,97411
94394,97392
94486,97453
94513,97444
94519,97471
94500,97445
94502,97407
94544,97498
94609,97488
94590,97487
94556,97478
94505,97432
94554,97442
94512,97446
94408,97416
94340,97374
94197,97255
94224,97253
94116,97286
94007,97147
93878,97097
93690,97017
93671,97001
93517,96972
93405,96845
93263,96826
93096,96717
93016,96718
92862,96665
92761,96574
92584,96536
92411,96414
92423,96443
92302,96395
92269,96365
92165,96297
92052,96277
92113,96257
92065,96316
92074,96265
92005,96232
91991,96220
92062,96252
92093,96262
92114,96273
92111,96274
92129,96252
92220,96354
92235,96331
92290,96372
92285,96372
92291,96379
92350,96406
92436,96423
92417,96457
92427,96421
92450,96458
92562,96523
92591,96515
92583,96514
92599,96513
92582,96507
92703,96574
92665,96600
92672,96550
92704,96555
92652,96582
92770,96589
92789,96617
92752,96608
92800,96617
92726,96638
92857,96623
92860,96675
92856,96695
92877,96640
92904,96674
92951,96721
93035,96720
93005,96725
92993,96716
93020,96697
93114,96763
93154,96795
93117,96811
93105,96749
93097,96780
93179,96817
93202,96799
93202,96855
93115,96788
93126,96775
93197,96817
93221,96816
93207,96817
93150,96820
93146,96764
93199,96816
93234,96841
93198,96820
93101,96769
93102,96744
93171,96821
93188,96785
93175,96787
93120,96766
93110,96740
93173,96802
93169,96819
93150,96773
93137,96784
93130,96796
93177,96813
93240,96822
93211,96842
93205,96806
93193,96770
93283,96866
93319,96867
93285,96872
93219,96786
93265,96841
93393,96882
93391,96900
93362,96905
93316,96865
93352,96876
93443,96924
93447,96934
93454,96932
93439,96927
93451,96890
93561,96974
93550,96990
93535,96960
93541,96957
93570,96970
93655,96998
93667,97046
93664,97038
93652,96976
93656,97032
93759,97052
93789,97063
93812,97082
93770,97052
93756,97084
93856,97113
93879,97128
93928,97122
93870,97138
93899,97107
94018,97197
94061,97193
94046,97209
93977,97168
94049,97192
94123,97236
94170,97291
94130,97234
94105,97246
94118,97173
94269,97302
94254,97323
94213,97299
94207,97260
94238,97269
94316,97337
94346,97309
94306,97319
94284,97313
94291,97336
94363,97359
94434,97375
94369,97359
94332,97361
94413,97336
94483,97406
94470,97417
94464,97392
94465,97393
94459,97361
94562,97459
94551,97429
94565,97425
94520,97382
94536,97420
94583,97450
94639,97492
94616,97455
94565,97427
94616,97415
94667,97520
94676,97474
94658,97447
94644,97455
94636,97477
94703,97484
94752,97508
94728,97492
94661,97464
94660,97484
94790,97525
94761,97553
94724,97497
94690,97501
94738,97523
94835,97560
94801,97551
94838,97536
94779,97525
94797,97521
94872,97609
94899,97576
94899,97592
94846,97528
94893,97573
94958,97627
94945,97601
94982,97597
94959,97585
94970,97583
95054,97670
95079,97680
95052,97656
95016,97615
95080,97637
95139,97735
95115,97654
95141,97673
95065,97648
95152,97684
95232,97712
95175,97698
95202,97713
95122,97651
95140,97671
95212,97705
95111,97673
95054,97609
94963,97573
94910,97554
94902,97563
94818,97516
94676,97431
94599,97355
94482,97369
94485,97327
94389,97257
94262,97251
94129,97121
94093,97153
94040,97116
93929,97081
93832,97011
93673,96918
93646,96896
93628,96914
93561,96887
93451,96829
93278,96779
93299,96765
93311,96816
93201,96731
93166,96734
93065,96651
93092,96673
93145,96716
93062,96669
93104,96672
93034,96677
93091,96632
93171,96715
93170,96720
93210,96740
93176,96715
93207,96739
93316,96799
93288,96784
93312,96812
93310,96776
93364,96815
93455,96845
93446,96876
93456,96877
93462,96854
93472,96859
93578,96931
93600,96914
93605,96959
93551,96918
93602,96928
93720,97000
93720,96978
93687,96987
93692,96963
93737,97013
93853,97075
93850,97054
93859,97063
93790,97024
93871,97057
93999,97121
93952,97130
93925,97100
93961,97100
93998,97140
94045,97189
94054,97133
94029,97157
93981,97096
94060,97120
94111,97211
94057,97172
94091,97179
94002,97092
94110,97179
94119,97187
94100,97155
94102,97177
94044,97101
94069,97162
94086,97181
94102,97173
94053,97172
93995,97071
94072,97143
94061,97196
94064,97150
94021,97142
93972,97097
94014,97135
94098,97176
94043,97129
94040,97132
94007,97087
94060,97122
94121,97206
94081,97143
94086,97180
94043,97110
94053,97172
94184,97183
94107,97155
94140,97214
94087,97158
94123,97183
94226,97190
94215,97251
94170,97179
94165,97196
94213,97235
94308,97241
94273,97233
94296,97251
94211,97220
94306,97231
94338,97317
94344,97307
94335,97263
94324,97259
94403,97281
94450,97355
94452,97333
94453,97319
94388,97282
94493,97347
94582,97412
94547,97373
94545,97379
94534,97325
94611,97393
94660,97408
94676,97405
94631,97425
94639,97405
94713,97460
94786,97441
94742,97496
94791,97477
94705,97449
94819,97491
94850,97568
94883,97533
94871,97533
94853,97504
94947,97525
95011,97618
95002,97564
95027,97578
94989,97561
95079,97602
95209,97670
95180,97632
95181,97675
95158,97596
95239,97688
95319,97748
95310,97716
95283,97713
95270,97716
95356,97764
95454,97788
95459,97802
95417,97771
95409,97757
95468,97854
95552,97828
95552,97836
95536,97828
95510,97819
95637,97895
95652,97862
95664,97909
95630,97901
95626,97852
95679,97910
95731,97956
95719,97903
95756,97941
95668,97877
95781,97928
95805,97988
95768,97958
95775,97903
95728,97927
95801,97946
95842,97976
95833,97946
95859,97957
95759,97911
95879,97972
95916,97994
95876,97988
95869,97963
95874,97977
95930,97983
95989,98049
95977,98020
95939,98028
95948,97981
95998,98043
96035,98075
96015,98040
96015,98041
95987,98032
96067,98048
96108,98087
96102,98082
96105,98100
96045,98050
96100,98114
96174,98111
96098,98084
96049,98023
96010,98009
96029,98036
96007,98024
95928,97983
95820,97921
95753,97859
95731,97905
95690,97818
95619,97792
95485,97737
95413,97680
95393,97737
95319,97632
95258,97631
95120,97552
95046,97501
95058,97528
94961,97486
94940,97453
94791,97429
94705,97396
94696,97370
94716,97372
94628,97390
94586,97297
94469,97309
94579,97321
94565,97361
94533,97316
94486,97259
94485,97305
94565,97324
94549,97366
94571,97324
94550,97309
94549,97298
94642,97409
94633,97409
94647,97403
94664,97370
94659,97376
94741,97463
94830,97453
94829,97473
94790,97488
94829,97449
94925,97550
94976,97522
94976,97556
94960,97534
94945,97502
95048,97564
95049,97612
95084,97590
95082,97610
95078,97561
95190,97656
95238,97674
95213,97659
95212,97710
95184,97671
95337,97725
95347,97714
95386,97733
95366,97762
95351,97704
95451,97760
95476,97792
95485,97775
95466,97775
95432,97794
95531,97778
95558,97853
95517,97813
95462,97802
95463,97748
95576,97822
95577,97794
95544,97811
95516,97790
95470,97756
95534,97793
95497,97817
95515,97760
95422,97750
95385,97737
95452,97734
95460,97801
95378,97723
95424,97691
95315,97708
95397,97717
95398,97737
95335,97705
95307,97653
95253,97640
95335,97668
95348,97713
95303,97678
95294,97629
95268,97632
95273,97643
95343,97709
95314,97659
95250,97624
95251,97622
95340,97683
95315,97668
95336,97645
95301,97662
95288,97638
95315,97686
95419,97703
95352,97699
95321,97628
95302,97640
95402,97717
95432,97707
95431,97704
95368,97702
95380,97666
95475,97737
95496,97767
95514,97726
95461,97759
95452,97698
95621,97816
95585,97796
95612,97790
95586,97755
95575,97780
95698,97791
95717,97876
95687,97833
95684,97820
95705,97807
95771,97889
95830,97894
95788,97893
95755,97826
95737,97852
95877,97908
95915,97950
95877,97938
95881,97896
95870,97926
95963,97966
96001,97984
95957,97997
95946,97935
95963,97947
96058,97992
96044,98003
96091,98000
96006,97984
96068,97981
96107,98019
96132,98051
96103,98003
96053,97971
96103,98003
96148,98080
96158,98036
96141,98041
96095,98022
96096,98001
96227,98065
96192,98055
96189,98052
96176,98043
96155,98017
96282,98107
96270,98115
96227,98047
96216,98046
96228,98025
96287,98117
96291,98110
96286,98083
96262,98091
96267,98047
96375,98133
96373,98120
96327,98139
96350,98061
96311,98119
96433,98136
96435,98156
96463,98162
96438,98124
96433,98169
96504,98180
96563,98233
96521,98192
96486,98155
96506,98206
96605,98205
96610,98257
96587,98193
96534,98177
96560,98213
96635,98260
96641,98283
96623,98061
96594,98021
96605,98040
96707,98102
96638,98099
96638,98031
96631,98037
96621,98067
96667,98110
96674,98104
96672,98038
96607,98079
96624,98041
96742,98116
96737,98089
96687,98093
96686,98061
96692,98095
96791,98091
96785,98125
96760,98138
96733,98102
96759,98108
96843,98184
96821,98114
96822,98128
96779,98116
96815,98135
96892,98170
96833,98160
96857,98121
96803,98100
96824,98135
96859,98151
96829,98134
96833,98123
96686,98049
96662,98066
96709,98064
96609,97993
96566,97979
96370,97867
96367,97861
96382,97879
96253,97806
96183,97793
96049,97706
96033,97721
96019,97664
95914,97651
95808,97601
95696,97521
95653,97543
95679,97499
95601,97506
95545,97486
95373,97366
95386,97387
95420,97415
95306,97374
95227,97338
95152,97297
95162,97279
95162,97329
95109,97296
95082,97267
94980,97239
95002,97276
95056,97294
94996,97277
94978,97248
94940,97224
94958,97254
95013,97314
95016,97300
94988,97282
94965,97240
95018,97281
95094,97329
95080,97341
95036,97297
95014,97276
95075,97314
95164,97366
95120,97377
95115,97335
95060,97263
95118,97299
95156,97348
95167,97367
95121,97366
95057,97278
95131,97345
95195,97350
95163,97331
95156,97377
95140,97320
95197,97339
95246,97396
95209,97402
95261,97374
95180,97353
95265,97372
95323,97429
95292,97450
95278,97372
95207,97357
95293,97416
95332,97399
95312,97398
95344,97427
95264,97338
95337,97405
95344,97426
95322,97396
95303,97392
95262,97379
95308,97392
95342,97417
95338,97393
95289,97420
95238,97352
95305,97372
95329,97418
95275,97403
95284,97385
95235,97340
95272,97346
95362,97458
95304,97407
95261,97401
95205,97306
95278,97388
95325,97388
95302,97384
95279,97397
95182,97335
95272,97344
95332,97450
95324,97402
95309,97420
95237,97345
95349,97388
95375,97446
95398,97402
95374,97452
95283,97372
95438,97417
95424,97482
95440,97440
95423,97473
95362,97402
95470,97492
95541,97497
95509,97506
95490,97463
95479,97463
95513,97457
95576,97525
95524,97474
95563,97527
95436,97476
95583,97484
95660,97572
95606,97541
95616,97519
95574,97475
95677,97553
95706,97552
95718,97578
95685,97592
95624,97498
95723,97576
95753,97585
95775,97583
95762,97598
95712,97574
95816,97608
95851,97646
95796,97646
95838,97615
95773,97566
95850,97637
95943,97660
95907,97681
95877,97622
95838,97638
95904,97616
95935,97679
95912,97625
95934,97684
95847,97586
95948,97650
96002,97668
95969,97683
95954,97685
95899,97595
96013,97688
96022,97695
96007,97703
95986,97678
95929,97645
96000,97679
96075,97721
96015,97702
96015,97675
95976,97657
96048,97718
96098,97715
96116,97708
96067,97728
96036,97674
96128,97735
96152,97777
96135,97729
96145,97753
96084,97693
96163,97761
96195,97795
96213,97766
96176,97764
96132,97723
96232,97789
96263,97763
96262,97787
96247,97764
96177,97766
96302,97812
96288,97786
96294,97835
96272,97755
96279,97767
96298,97827
96375,97848
96380,97850
96336,97798
96326,97776
96347,97866
96392,97847
96431,97862
96392,97863
96347,97789
96456,97854
96493,97921
96416,97874
96455,97860
96398,97861
96450,97889
96551,97904
96479,97885
96504,97890
96447,97895
96526,97909
96557,97935
96546,97924
96527,97877
96514,97890
96585,97969
96630,97944
96631,97959
96594,97963
96526,97913
96670,97954
96669,98014
96656,97963
96637,97939
96630,97936
96719,97994
96748,98037
96731,98024
96714,98003
96685,97974
96736,98016
96792,98018
96778,97995
96732,97966
96655,97959
96692,98008
96655,97984
96587,97891
96478,97884
96358,97797
96409,97824
96335,97794
96213,97729
96121,97649
96003,97621
95970,97605
95930,97591
95845,97527
95763,97465
95622,97444
95623,97398
95626,97430
95516,97395
95406,97308
95367,97310
95359,97303
95355,97284
95236,97256
95206,97235
95123,97189
95138,97237
95125,97219
95121,97199
95028,97215
94969,97164
95040,97202
95032,97198
95025,97182
94943,97169
94942,97151
94995,97199
94992,97221
95031,97227
94978,97173
94971,97155
95047,97247
95086,97244
95089,97236
95034,97245
95015,97216
95157,97255
95144,97337
95108,97274
95105,97274
95084,97231
95170,97278
95201,97300
95251,97317
95197,97330
95155,97280
95256,97304
95318,97368
95246,97366
95267,97287
95237,97312
95354,97368
95352,97346
95374,97385
95303,97335
95324,97337
95393,97418
95413,97405
95438,97411
95376,97368
95367,97349
95452,97414
95447,97428
95422,97401
95410,97390
95395,97355
95464,97434
95491,97438
95461,97430
95445,97355
95377,97381
95474,97442
95468,97434
95436,97387
95407,97379
95397,97347
95424,97396
95477,97407
95403,97423
95365,97319
95359,97358
95402,97379
95409,97422
95368,97336
95340,97375
95297,97319
95407,97402
95425,97396
95353,97360
95356,97364
95348,97330
95433,97431
95452,97392
95405,97405
95401,97375
95375,97370
95456,97438
95480,97407
95469,97410
95444,97390
95427,97400
95519,97492
95522,97448
95520,97443
95483,97395
95468,97404
95585,97470
95576,97499
95585,97448
95527,97467
95541,97465
95625,97506
95670,97543
95648,97471
95614,97475
95638,97482
95732,97542
95761,97557
95757,97551
95720,97541
95690,97535
95848,97574
95827,97598
95837,97584
95759,97567
95771,97539
95905,97645
95870,97606
95866,97623
95826,97587
95846,97565
95907,97651
95925,97613
95944,97659
95866,97590
95910,97599
95968,97629
95999,97643
95953,97639
95910,97622
95936,97653
96026,97678
96050,97694
95966,97630
96007,97647
95958,97660
96069,97680
96074,97686
96060,97682
96009,97671
95985,97634
96098,97700
96065,97693
96084,97680
96020,97646
96038,97644
96092,97706
96097,97691
96038,97652
96013,97656
96042,97636
96100,97720
96112,97686
96124,97712
96062,97641
96071,97674
96129,97710
96106,97690
96116,97696
96045,97654
96096,97639
96142,97728
96162,97694
96142,97712
96097,97641
96092,97683
96196,97737
96173,97733
96150,97696
96140,97639
96121,97695
96196,97710
96199,97728
96168,97698
96169,97684
96117,97696
96262,97734
96228,97754
96212,97708
96170,97658
96194,97708
96238,97765
96225,97734
96239,97739
96149,97718
96216,97713
96258,97781
96249,97728
96263,97769
96172,97700
96238,97724
96301,97773
96296,97751
96280,97770
96245,97737
96243,97739
96347,97791
96319,97773
96335,97780
96275,97736
96328,97768
96415,97828
96392,97788
96387,97810
96323,97764
96314,97763
96390,97810
96338,97767
96271,97742
96146,97662
96096,97628
96123,97652
96015,97592
95923,97565
95744,97462
95740,97437
95697,97440
95602,97400
95478,97296
95343,97270
95329,97219
95294,97275
95178,97179
95117,97149
94990,97052
94934,97063
94942,97092
94830,97007
94772,97021
94618,96942
94637,96919
94628,96952
94583,96936
94491,96854
94413,96855
94411,96849
94417,96906
94352,96817
94360,96847
94254,96774
94280,96792
94380,96839
94318,96846
94283,96798
94256,96765
94264,96832
94322,96834
94364,96819
94292,96853
94224,96806
94296,96799
94409,96851
94367,96897
94387,96838
94319,96838
94374,96857
94450,96924
94444,96856
94409,96892
94379,96858
94435,96872
94493,96961
94485,96873
94464,96942
94418,96876
94463,96906
94565,96961
94542,96966
94550,96944
94493,96914
94541,96974
94634,96990
94626,96999
94605,96981
94569,96948
94627,96950
94735,97019
94624,97033
94672,96993
94617,96956
94664,97023
94736,97031
94669,97032
94703,97005
94624,96964
94670,96999
94715,97026
94732,97071
94682,96975
94618,96975
94658,96983
94709,97050
94684,97004
94636,96973
94585,96916
94604,96992
94637,97002
94622,96987
94633,96952
94541,96938
94559,96967
94679,96962
94599,96998
94585,96949
94500,96913
94607,96967
94640,97003
94626,96952
94575,97007
94535,96908
94637,96979
94635,97026
94613,96976
94652,97014
94551,96960
94619,96983
94683,97020
94682,97007
94676,97005
94636,96993
94689,97042
94758,97045
94758,97046
94749,97052
94730,96999
94761,97107
94846,97086
94830,97102
94842,97124
94806,97055
94900,97115
94952,97166
94916,97134
94949,97157
94911,97121
95018,97152
95084,97230
95029,97216
95054,97183
95018,97180
95070,97226
95103,97244
95136,97218
95112,97245
95050,97186
95160,97276
95223,97289
95194,97287
95166,97258
95146,97210
95247,97319
95289,97303
95298,97311
95253,97317
95244,97286
95314,97306
95370,97347
95355,97314
95346,97363
95302,97289
95346,97339
95460,97381
95412,97407
95408,97359
95364,97367
95475,97375
95500,97418
95450,97403
95493,97365
95411,97369
95516,97403
95504,97428
95573,97418
95508,97425
95469,97343
95567,97413
95612,97478
95564,97452
95569,97449
95515,97370
95630,97458
95622,97452
95667,97476
95581,97454
95558,97398
95640,97508
95669,97474
95673,97476
95645,97468
95609,97441
95716,97500
95727,97539
95681,97472
95684,97491
95617,97421
95712,97517
95720,97526
95773,97514
95706,97522
95674,97468
95788,97534
95809,97514
95760,97546
95749,97530
95708,97469
95805,97523
95863,97530
95771,97562
95755,97505
95773,97474
95804,97585
95895,97594
95823,97574
95842,97569
95767,97544
95864,97559
95933,97598
95864,97582
95848,97573
95858,97510
95900,97583
95946,97590
95933,97611
95888,97577
95893,97556
95976,97640
95993,97645
96022,97614
95952,97617
95924,97578
96027,97627
96062,97645
96006,97642
96020,97620
95998,97606
96055,97651
96107,97656
96067,97653
96039,97636
95993,97593
96094,97674
96129,97705
96051,97658
96046,97644
95954,97610
96060,97625
96038,97646
95961,97591
95864,97553
95733,97484
95786,97483
95714,97462
95588,97364
95485,97335
95324,97261
95297,97249
95215,97206
95088,97123
94981,97059
94850,97028
94836,97008
94729,96983
94663,96906
94546,96888
94409,96788
94417,96845
94362,96799
94256,96762
94131,96691
94098,96657
94087,96691
94030,96646
93991,96645
93869,96553
93860,96591
93882,96589
93880,96600
93847,96597
93776,96566
93744,96515
93827,96588
93807,96618
93835,96581
93803,96606
93754,96536
93853,96572
93861,96632
93819,96603
93840,96588
93813,96573
93884,96641
93922,96645
93860,96649
93919,96621
93870,96626
93958,96674
93976,96679
93998,96690
93945,96644
93974,96644
94050,96695
94100,96730
94032,96706
94031,96722
94020,96674
94165,96761
94146,96777
94195,96774
94150,96741
94144,96779
94193,96806
94241,96796
94277,96815
94238,96792
94242,96807
94323,96847
94367,96857
94335,96882
94331,96815
94331,96826
94373,96888
94447,96869
94341,96903
94331,96825
94355,96864
94420,96895
94422,96878
94400,96901
94346,96878
94370,96842
94378,96867
94409,96889
94387,96850
94322,96866
94284,96792
94381,96901
94345,96862
94357,96850
94261,96809
94275,96770
94391,96870
94333,96887
94328,96831
94296,96826
94298,96825
94374,96877
94370,96869
94370,96875
94314,96825
94300,96861
94421,96933
94398,96881
94458,96929
94359,96879
94398,96868
94472,96942
94527,96979
94480,96929
94448,96911
94444,96881
94545,96988
94585,96954
94525,96973
94512,96942
94522,96964
94590,97007
94639,97007
94617,96962
94613,96962
94599,96971
94750,97057
94739,97088
94730,97047
94707,97042
94717,97072
94821,97072
94871,97117
94834,97114
94819,97068
94837,97079
94917,97155
94976,97155
94950,97183
94886,97126
94957,97144
95024,97193
95054,97203
95006,97189
95006,97170
94990,97208
95127,97228
95099,97238
95090,97244
95054,97190
95111,97243
95174,97271
95188,97250
95141,97268
95140,97240
95179,97237
95236,97310
95213,97263
95243,97271
95193,97277
95212,97256
95343,97335
95317,97283
95279,97337
95256,97255
95309,97299
95364,97368
95354,97353
95337,97313
95304,97294
95332,97323
95419,97367
95395,97392
95389,97338
95381,97351
95327,97344
95453,97379
95448,97386
95465,97379
95382,97364
95424,97335
95521,97457
95517,97396
95455,97411
95460,97346
95452,97377
95575,97443
95557,97430
95513,97406
95517,97406
95540,97412
95650,97480
95617,97455
95609,97441
95572,97436
95581,97447
95713,97522
95727,97512
95696,97511
95659,97473
95688,97506
95793,97553
95791,97548
95762,97528
95724,97516
95766,97540
95883,97608
95856,97575
95846,97573
95791,97546
95805,97566
95954,97627
95902,97607
95907,97584
95879,97559
95902,97610
95964,97615
95948,97626
95932,97640
95885,97552
95974,97658
96029,97672
96044,97634
96042,97680
95963,97590
96032,97691
96103,97707
96120,97691
96141,97717
96074,97706
96147,97708
96216,97789
96205,97753
96234,97727
96151,97702
96236,97760
96292,97792
96284,97778
96224,97793
96136,97679
96211,97761
96217,97753
96129,97705
96058,97643
95967,97586
95896,97570
95927,97592
95826,97514
95707,97497
95537,97365
95500,97406
95462,97366
95411,97323
95272,97275
95137,97193
95091,97167
95107,97210
95012,97153
94894,97098
94784,97012
94758,97003
94787,97038
94658,96994
94570,96928
94473,96874
94430,96893
94488,96929
94388,96897
94333,96838
94260,96783
94257,96840
94314,96864
94291,96861
94237,96832
94218,96767
94253,96850
94328,96878
94305,96852
94330,96896
94252,96818
94324,96892
94411,96935
94380,96917
94400,96907
94404,96915
94434,96916
94537,96982
94507,96975
94537,97008
94508,96972
94569,97014
94642,97049
94636,97009
94666,97035
94607,97040
94663,97028
94765,97107
94700,97121
94721,97066
94747,97075
94758,97132
94878,97153
94869,97164
94886,97159
94829,97147
94962,97192
94995,97240
94987,97206
95024,97240
94953,97196
95030,97248
95148,97308
95070,97238
95122,97283
95013,97273
95126,97287
95177,97333
95168,97342
95138,97293
95117,97269
95184,97315
95219,97342
95176,97334
95188,97287
95125,97277
95156,97286
95250,97337
95166,97329
95170,97294
95119,97280
95155,97291
95205,97337
95143,97334
95136,97295
95064,97250
95119,97290
95174,97309
95155,97293
95137,97274
95025,97281
95128,97276
95201,97327
95139,97343
95159,97298
95076,97260
95201,97303
95218,97397
95198,97291
95225,97351
95127,97302
95196,97356
95282,97382
95272,97340
95266,97370
95154,97324
95306,97384
95326,97418
95319,97376
95337,97407
95241,97357
95318,97398
95406,97461
95417,97452
95397,97455
95376,97376
95421,97489
95497,97466
95540,97505
95522,97490
95455,97473
95618,97516
95665,97592
95635,97527
95670,97549
95619,97541
95663,97585
95742,97583
95750,97645
95751,97588
95715,97576
95795,97646
95872,97698
95851,97627
95859,97647
95786,97649
95923,97700
95934,97710
95963,97692
95977,97703
95869,97650
96010,97735
96042,97755
96056,97773
96039,97753
95988,97694
96116,97756
96141,97823
96139,97758
96143,97772
96106,97776
96151,97795
96220,97812
96217,97848
96175,97804
96165,97765
96225,97822
96299,97871
96238,97821
96254,97801
96183,97805
96266,97841
96309,97874
96274,97874
96257,97820
96209,97822
96283,97837
96298,97894
96290,97831
96281,97839
96207,97799
96292,97830
96347,97890
96308,97835
96300,97853
96265,97821
96328,97895
96363,97858
96339,97865
96328,97859
96299,97805
96410,97888
96407,97925
96397,97887
96359,97895
96319,97846
96421,97917
96433,97925
96442,97913
96382,97918
96356,97848
96440,97934
96451,97916
96388,97922
96385,97857
96391,97883
96432,97915
96503,97933
96447,97901
96478,97906
96391,97917
96500,97921
96554,97954
96502,97938
96502,97907
96449,97867
96545,97991
96579,97943
96544,97951
96570,97950
96507,97930
96635,97957
96584,97954
96606,97970
96517,97936
96496,97892
96538,97929
96521,97923
96400,97892
96253,97795
96184,97763
96185,97755
96128,97704
95959,97635
95851,97538
95740,97534
95726,97537
95624,97479
95521,97457
95372,97337
95300,97313
95295,97300
95244,97310
95147,97216
95042,97186
94948,97129
95004,97154
94904,97179
94837,97068
94740,97066
94616,96972
94707,97002
94646,97042
94571,96964
94534,96936
94418,96931
94494,96972
94507,96937
94477,96969
94390,96906
94411,96870
94485,96961
94491,97001
94466,96930
94460,96933
94384,96954
94528,96977
94577,97014
94559,96981
94559,97008
94558,96950
94693,97067
94680,97094
94653,97069
94655,97037
94673,97063
94707,97078
94797,97094
94790,97094
94761,97083
94703,97060
94867,97127
94826,97184
94847,97114
94828,97162
94805,97114
94943,97207
94948,97208
94979,97171
94934,97212
94947,97185
95038,97258
95105,97244
95070,97273
95025,97202
95074,97251
95152,97309
95170,97284
95185,97302
95145,97299
95088,97235
95211,97306
95236,97323
95181,97287
95156,97293
95103,97260
95185,97290
95220,97340
95181,97280
95122,97272
95103,97239
95221,97313
95172,97331
95173,97282
95127,97242
95084,97237
95176,97304
95142,97282
95140,97269
95058,97240
95059,97216
95144,97262
95110,97269
95093,97284
95077,97215
95016,97231
95082,97257
95108,97289
95077,97249
95015,97227
95061,97223
95127,97300
95088,97289
95081,97295
95049,97235
95076,97274
95129,97296
95164,97313
95147,97333
95121,97279
95079,97259
95232,97306
95197,97374
95232,97330
95215,97341
95200,97312
95315,97385
95307,97421
95270,97367
95263,97347
95289,97356
95356,97416
95393,97412
95375,97424
95318,97367
95357,97400
95446,97453
95456,97433
95443,97459
95373,97404
95441,97418
95508,97502
95548,97472
95523,97486
95472,97482
95469,97450
95616,97476
95585,97530
95573,97480
95598,97533
95590,97523
95681,97565
95749,97569
95694,97573
95675,97534
95689,97500
95784,97591
95790,97615
95755,97583
95735,97557
95752,97560
95854,97643
95848,97614
95825,97593
95820,97618
95822,97582
95898,97658
95893,97635
95867,97607
95830,97613
95829,97583
95939,97671
95923,97622
95899,97619
95839,97601
95866,97619
95958,97659
95972,97646
95939,97648
95913,97614
95907,97623
96005,97670
96016,97671
95979,97678
95934,97646
95957,97630
96062,97720
96058,97692
96011,97682
96013,97656
95983,97678
96073,97719
96063,97702
96051,97675
95984,97637
96004,97675
96117,97747
96066,97697
96061,97692
95996,97645
96022,97668
96113,97731
96063,97721
96025,97686
95985,97662
96055,97675
96088,97723
96077,97739
96058,97680
96017,97703
96059,97683
96125,97749
96141,97727
96124,97735
96059,97644
96067,97708
96194,97748
96181,97773
96127,97742
96107,97695
96147,97701
96232,97792
96209,97738
96242,97772
96135,97725
96203,97742
96262,97774
96268,97767
96181,97760
96120,97708
96138,97681
96128,97714
96051,97650
95987,97635
95788,97529
95753,97496
95748,97491
95616,97456
95520,97356
95360,97332
95306,97299
95312,97273
95158,97207
95052,97142
94860,97070
94834,97059
94852,97039
94676,96986
94616,96941
94476,96875
94446,96873
94439,96872
94341,96832
94274,96808
94113,96712
94125,96772
94124,96726
94051,96758
93995,96682
93929,96625
93932,96672
94009,96695
93943,96655
93949,96669
93857,96637
93940,96673
94002,96716
93989,96704
94013,96696
93935,96674
94003,96705
94081,96761
94120,96783
94112,96753
94058,96725
94129,96756
94216,96848
94190,96821
94216,96796
94167,96797
94214,96805
94307,96883
94306,96854
94291,96840
94241,96825
94316,96865
94395,96900
94379,96912
94356,96879
94346,96873
94403,96920
94504,96956
94478,96959
94535,96966
94484,96952
94531,97003
94618,96989
94620,97005
94664,97021
94580,97003
94650,97010
94719,97074
94719,97065
94711,97042
94642,97046
94674,97060
94782,97102
94724,97104
94685,97028
94682,97048
94700,97061
94761,97066
94766,97072
94674,97087
94648,97004
94651,97036
94743,97077
94705,97061
94635,97058
94623,96970
94678,97047
94714,97089
94642,97013
94652,96993
94536,97004
94623,97035
94684,97056
94635,97033
94654,97028
94564,97008
94614,97051
94688,97055
94645,97015
94614,97013
94557,97005
94627,97015
94713,97077
94684,97048
94656,97038
94599,97021
94670,97034
94762,97127
94746,97056
94715,97081
94684,97063
94752,97061
94790,97147
94766,97115
94787,97093
94684,97069
94781,97135
94871,97143
94856,97166
94829,97166
94812,97090
94892,97174
94943,97150
94926,97181
94904,97181
94908,97152
94951,97195
95050,97207
95027,97232
95048,97207
94956,97198
95072,97226
95098,97298
95133,97235
95107,97282
95060,97237
95134,97259
95178,97286
95204,97290
95202,97316
95117,97237
95220,97311
95275,97346
95226,97298
95250,97338
95192,97278
95294,97321
95302,97325
95282,97345
95288,97318
95189,97273
95336,97341
95335,97386
95305,97357
95318,97342
95222,97291
95328,97315
95359,97395
95359,97327
95313,97330
95297,97299
95355,97388
95401,97366
95387,97387
95355,97342
95306,97287
95384,97386
95426,97400
95408,97379
95394,97324
95311,97336
95417,97364
95436,97425
95399,97396
95412,97341
95326,97353
95392,97349
95442,97381
95389,97369
95428,97357
95352,97351
95389,97361
95473,97388
95455,97393
95394,97376
95373,97320
95440,97385
95451,97364
95471,97409
95436,97376
95358,97348
95433,97396
95510,97412
95428,97399
95468,97376
95421,97378
95503,97416
95537,97454
95486,97401
95533,97393
95463,97376
95530,97436
95595,97464
95597,97401
95546,97434
95515,97383
95613,97477
95664,97501
95633,97485
95582,97424
95610,97442
95645,97510
95701,97495
95671,97500
95667,97468
95658,97469
95717,97492
95760,97540
95715,97515
95728,97524
95705,97477
95758,97570
95804,97529
95806,97576
95771,97561
95768,97515
95875,97575
95898,97627
95859,97575
95871,97583
95830,97545
95952,97622
95943,97625
95971,97620
95915,97643
95952,97598
96043,97680
96061,97668
96041,97676
96029,97636
96027,97652
96084,97702
96102,97674
96056,97642
95946,97641
95830,97560
95890,97543
95803,97577
95687,97455
95587,97383
95444,97342
95401,97334
95353,97288
95171,97263
95063,97133
94913,97084
94912,97079
94816,97058
94694,96963
94585,96955
94459,96844
94451,96877
94413,96840
94263,96814
94179,96724
94064,96720
94070,96702
94058,96719
93920,96643
93855,96586
93770,96567
93754,96571
93787,96602
93705,96559
93643,96526
93629,96512
93673,96592
93696,96545
93698,96552
93640,96556
93619,96527
93755,96574
93735,96610
93755,96586
93745,96596
93743,96604
93822,96615
93867,96663
93898,96662
93855,96678
93868,96651
93976,96735
93997,96740
94049,96761
94019,96744
94006,96751
94106,96752
94132,96823
94163,96811
94158,96804
94116,96811
94201,96816
94275,96853
94283,96863
94240,96861
94260,96874
94341,96898
94381,96963
94390,96921
94345,96897
94345,96942
94437,96924
94498,96993
94456,96983
94419,96946
94411,96938
94522,97007
94554,96989
94530,96987
94460,96939
94466,96953
94568,97027
94591,96990
94555,96990
94475,96957
94491,96962
94541,97004
94543,96973
94472,96987
94424,96957
94405,96916
94522,96964
94506,96974
94456,96955
94409,96953
94353,96950
94428,96920
94428,96972
94369,96937
94288,96878
94305,96876
94373,96913
94371,96899
94386,96885
94292,96855
94310,96866
94357,96885
94368,96947
94326,96893
94336,96876
94348,96879
94373,96928
94423,96956
94371,96916
94330,96907
94381,96878
94440,96980
94491,96983
94445,96951
94420,96920
94463,96923
94549,97043
94562,96988
94567,96994
94490,96982
94547,96965
94624,97085
94657,97057
94643,97032
94628,97050
94624,97051
94767,97088
94740,97126
94719,97069
94699,97073
94743,97075
94808,97133
94858,97148
94817,97136
94770,97115
94785,97131
94912,97177
94906,97167
94897,97172
94871,97146
94866,97167
94967,97210
95012,97219
94971,97207
94920,97184
94954,97175
95039,97241
95071,97238
95043,97221
94998,97208
95026,97231
95150,97270
95097,97262
95113,97259
95100,97224
95092,97273
95194,97308
95182,97313
95150,97276
95149,97271
95176,97301
95267,97384
95235,97333
95251,97319
95195,97313
95233,97299
95314,97358
95333,97386
95265,97356
95260,97301
95244,97350
95359,97351
95371,97378
95344,97359
95306,97342
95263,97342
95428,97401
95417,97409
95381,97416
95343,97331
95350,97367
95443,97459
95442,97434
95457,97376
95340,97367
95408,97398
95478,97462
95492,97467
95473,97411
95420,97405
95446,97394
95587,97510
95570,97481
95501,97447
95512,97442
95508,97446
95614,97525
95631,97514
95590,97492
95559,97478
95574,97499
95670,97539
95636,97537
95667,97502
95597,97521
95648,97489
95747,97596
95733,97556
95719,97564
95668,97520
95753,97541
95810,97650
95776,97611
95762,97587
95787,97575
95780,97614
95864,97616
95894,97644
95850,97630
95804,97635
95846,97616
95961,97693
95949,97680
95963,97662
95912,97627
95962,97651
96048,97744
96035,97720
96004,97710
95987,97647
96070,97732
96147,97796
96135,97791
96156,97763
96083,97755
96133,97738
96214,97817
96209,97797
96142,97798
96115,97720
96119,97745
96108,97728
96062,97716
95963,97656
95818,97564
95798,97588
95756,97528
95633,97486
95526,97456
95404,97388
95335,97383
95324,97314
95222,97315
95115,97230
94987,97189
94926,97152
94954,97189
94833,97121
94762,97066
94688,97026
94629,97037
94704,97074
94588,97021
94512,97000
94411,96896
94421,96929
94441,96956
94392,96932
94352,96909
94259,96846
94317,96900
94345,96904
94329,96898
94318,96906
94242,96883
94297,96937
94405,96919
94406,96961
94366,96934
94348,96905
94411,96955
94527,97028
94452,97000
94509,96989
94466,96987
94517,97034
94593,97050
94603,97062
94581,97071
94605,97041
94630,97090
94730,97163
94687,97120
94699,97084
94712,97100
94714,97157
94823,97189
94809,97166
94838,97170
94751,97138
94828,97210
94951,97216
94932,97255
94911,97218
94871,97192
95005,97223
95033,97301
95027,97248
95046,97271
94987,97258
95072,97319
95139,97316
95130,97338
95124,97284
95080,97302
95154,97327
95206,97361
95135,97347
95172,97317
95097,97307
95176,97338
95188,97344
95190,97345
95152,97326
95107,97319
95169,97295
95219,97383
95151,97338
95184,97304
95107,97281
95123,97362
95214,97333
95162,97361
95162,97319
95079,97241
95173,97354
95195,97332
95158,97324
95146,97323
95103,97289
95122,97335
95195,97359
95230,97343
95151,97332
95096,97318
95168,97357
95263,97405
95228,97379
95263,97375
95163,97353
95239,97391
95347,97413
95300,97401
95303,97426
95231,97368
95349,97428
95413,97467
95369,97454
95388,97449
95312,97435
95409,97431
95468,97515
95456,97461
95424,97486
95379,97469
95477,97459
95549,97559
95494,97473
95495,97485
95450,97461
95551,97546
95604,97564
95629,97539
95572,97557
95542,97521
95611,97569
95711,97592
95663,97593
95695,97548
95628,97547
95682,97597
95789,97640
95731,97599
95725,97621
95668,97540
95797,97636
95826,97673
95784,97617
95830,97619
95768,97617
95826,97609
95887,97688
95847,97675
95854,97627
95777,97589
95894,97692
95949,97688
95907,97697
95924,97668
95830,97627
95936,97707
95955,97694
95951,97662
95942,97693
95864,97658
95964,97702
96036,97761
95965,97723
96004,97720
95938,97700
96017,97719
96026,97758
96051,97723
96017,97702
95988,97655
96051,97776
96089,97762
96040,97742
96053,97706
96015,97717
96076,97746
96128,97792
96049,97743
96067,97729
96023,97741
96116,97747
96146,97797
96100,97735
96081,97752
96020,97726
96101,97743
96182,97766
96128,97802
96094,97711
96040,97731
96117,97767
96181,97812
96121,97743
96148,97791
96060,97738
96188,97814
96225,97795
96189,97803
96160,97748
96132,97740
96181,97801
96233,97805
96199,97818
96189,97784
96174,97729
96248,97862
96266,97803
96254,97837
96242,97784
96217,97788
96309,97853
96323,97849
96263,97869
96277,97801
96170,97793
96240,97830
96201,97802
96172,97721
96037,97726
95931,97617
95975,97656
95894,97615
95807,97541
95662,97532
95568,97429
95570,97427
95518,97421
95358,97373
95277,97301
95150,97267
95146,97239
95120,97250
94983,97186
94918,97113
94843,97127
94808,97101
94798,97099
94712,97037
94622,97023
94550,96981
94592,97021
94599,97018
94536,97030
94473,96990
94442,96960
94506,96995
94506,97012
94476,96945
94461,96987
94426,96926
94490,97020
94521,97017
94480,96967
94435,96981
94430,96963
94548,97009
94596,97060
94543,97023
94573,96997
94539,97032
94640,97041
94691,97095
94634,97076
94631,97042
94619,97021
94682,97099
94744,97100
94724,97107
94676,97084
94649,97043
94793,97151
94749,97129
94762,97123
94710,97129
94711,97082
94798,97141
94845,97164
94827,97154
94836,97154
94807,97132
94922,97179
94940,97218
94919,97205
94933,97165
94917,97185
94986,97192
95016,97228
95005,97224
94944,97227
94914,97146
95050,97241
95063,97237
95010,97228
94966,97234
94921,97150
95025,97259
95031,97215
95024,97224
94934,97202
94944,97169
95008,97238
95008,97221
94987,97215
94903,97166
94917,97160
94993,97224
95002,97214
94937,97168
94927,97189
94881,97138
95003,97222
94982,97209
94964,97174
94928,97161
94870,97161
94986,97199
95001,97212
94967,97217
94908,97188
94905,97125
94994,97238
95027,97239
94974,97229
94964,97155
94960,97197
95040,97192
95080,97257
95041,97229
94976,97215
95007,97182
95100,97291
95075,97261
95104,97259
95056,97240
95097,97235
95174,97305
95167,97293
95191,97289
95134,97261
95164,97263
95274,97332
95281,97352
95232,97311
95212,97319
95216,97321
95353,97339
95335,97365
95329,97358
95275,97334
95287,97355
95402,97378
95374,97392
95379,97381
95304,97344
95328,97350
95430,97390
95456,97410
95412,97394
95374,97360
95398,97391
95515,97456
95467,97452
95474,97403
95427,97390
95442,97414
95551,97471
95537,97446
95525,97437
95490,97412
95475,97405
95570,97481
95573,97460
95548,97453
95508,97410
95540,97431
95593,97494
95600,97465
95588,97453
95583,97420
95565,97466
95633,97466
95642,97497
95617,97445
95591,97436
95593,97448
95629,97491
95665,97472
95625,97471
95599,97453
95609,97444
95675,97489
95673,97475
95636,97476
95611,97446
95616,97475
95689,97510
95705,97522
95710,97491
95609,97428
95629,97466
95758,97509
95751,97513
95700,97479
95677,97456
95662,97481
95737,97514
95754,97487
95736,97498
95671,97470
95688,97485
95789,97515
95783,97511
95779,97528
95689,97465
95690,97472
95827,97548
95769,97517
95763,97530
95696,97459
95711,97496
95827,97541
95809,97518
95764,97511
95720,97465
95743,97500
95836,97545
95824,97529
95781,97511
95711,97487
95774,97524
95911,97582
95840,97560
95834,97512
95793,97501
95829,97536
95933,97602
95900,97590
95899,97551
95848,97547
95898,97546
95966,97626
95909,97549
95957,97605
95810,97526
95854,97517
95916,97566
95818,97553
95772,97472
95618,97408
95600,97422
95565,97392
95482,97354
95412,97296
95220,97216
95182,97214
95167,97168
95095,97140
94960,97098
94841,97005
94817,97016
94764,97009
94689,96921
94593,96958
94458,96853
94485,96821
94483,96881
94370,96834
94360,96803
94228,96759
94259,96780
94295,96801
94204,96715
94147,96750
94070,96688
94119,96714
94135,96773
94120,96693
94053,96713
94012,96658
94073,96701
94107,96726
94073,96711
94095,96715
94032,96667
94093,96731
94150,96736
94164,96726
94130,96757
94101,96708
94113,96762
94198,96758
94244,96773
94183,96757
94163,96731
94199,96752
94321,96810
94277,96828
94279,96775
94212,96773
94281,96822
94340,96863
94338,96858
94310,96834
94312,96790
94370,96828
94418,96887
94372,96877
94416,96838
94376,96814
94432,96877
94506,96934
94457,96879
94450,96897
94445,96856
94482,96904
94587,96966
94488,96908
94527,96946
94450,96860
94510,96945
94594,96941
94597,96936
94547,96927
94499,96898
94557,96911
94604,96969
94588,96953
94568,96926
94512,96894
94596,96933
94624,96989
94632,96957
94599,96978
94538,96914
94579,96942
94632,96976
94619,96951
94597,96950
94528,96912
94600,96953
94663,96993
94594,96965
94622,96968
94536,96917
94627,96955
94661,96993
94640,96994
94652,96964
94553,96905
94637,96977
94701,97001
94664,96974
94688,97007
94625,96948
94724,97016
94748,97035
94747,97048
94755,97028
94676,96980
94790,97032
94820,97065
94816,97069
94777,97053
94730,97023
94844,97081
94839,97120
94859,97080
94858,97073
94787,97022
94873,97076
94944,97106
94928,97085
94864,97091
94849,97051
94965,97102
94972,97114
94936,97121
94956,97102
94890,97094
94999,97123
95000,97164
95015,97126
95033,97124
94944,97111
95072,97158
95087,97165
95070,97183
95065,97159
94994,97114
95120,97193
95141,97209
95096,97184
95124,97190
95079,97173
95135,97173
95201,97240
95150,97204
95165,97216
95117,97165
95157,97194
95217,97241
95213,97217
95192,97189
95128,97150
95206,97194
95259,97253
95230,97216
95207,97195
95138,97166
95205,97217
95261,97209
95271,97234
95225,97206
95183,97191
95287,97217
95314,97264
95288,97235
95232,97215
95191,97205
95264,97239
95342,97254
95284,97241
95280,97223
95229,97186
95315,97256
95349,97280
95304,97254
95293,97255
95270,97194
95326,97248
95379,97284
95343,97254
95330,97264
95261,97214
95326,97258
95387,97274
95362,97254
95305,97252
95278,97210
95339,97249
95414,97271
95393,97278
95332,97238
95317,97212
95370,97261
95459,97288
95383,97264
95362,97238
95313,97225
95424,97281
95428,97303
95434,97307
95383,97264
95324,97229
95456,97315
95490,97310
95472,97326
95432,97303
95379,97248
95481,97334
95507,97314
95497,97309
95499,97310
95413,97288
95513,97299
95556,97337
95497,97358
95507,97324
95427,97271
95554,97320
95576,97385
95550,97301
95500,97286
95509,97293
95570,97339
95616,97349
95580,97371
95555,97320
95551,97296
95647,97373
95667,97399
95603,97355
95573,97311
95587,97323
95679,97405
95700,97384
95688,97415
95648,97365
95654,97338
95711,97426
95722,97435
95709,97397
95704,97382
95657,97341
95749,97432
95718,97437
95674,97349
95581,97296
95516,97288
95500,97291
95481,97258
95348,97249
95239,97151
95153,97116
95135,97117
95084,97058
94907,97040
94793,96948
94686,96885
94716,96925
94621,96849
94560,96822
94431,96769
94324,96681
94375,96734
94314,96712
94184,96678
94101,96593
94075,96572
94074,96626
94044,96584
93989,96546
93896,96536
93851,96528
93907,96516
93934,96562
93862,96522
93838,96510
93778,96476
93877,96522
93902,96523
93811,96537
93820,96500
93769,96487
93882,96508
93924,96571
93842,96504
93864,96517
93840,96496
93908,96564
93892,96576
93939,96551
93897,96535
93890,96535
93972,96602
94006,96595
93965,96578
93914,96557
93908,96541
93987,96593
94007,96593
93956,96577
93945,96575
93933,96554
93983,96604
94027,96613
94005,96591
93951,96574
93949,96552
94039,96614
94061,96599
94028,96608
93978,96572
93979,96602
94060,96623
94074,96625
94054,96608
94008,96564
94006,96599
94044,96622
94093,96632
94054,96611
93996,96588
94000,96586
94076,96648
94068,96593
94043,96615
94020,96565
93999,96579
94106,96599
94069,96622
94060,96606
94022,96586
93979,96579
94078,96631
94120,96633
94038,96604
93986,96568
93982,96563
94085,96637
94088,96608
94016,96585
93990,96573
93981,96567
94079,96625
94091,96634
94041,96603
93987,96582
93977,96576
94079,96648
94112,96632
94063,96602
94043,96583
94025,96589
94142,96670
94149,96660
94104,96637
94098,96633
94085,96623
94151,96657
94187,96683
94173,96682
94124,96647
94138,96645
94223,96691
94257,96703
94243,96697
94171,96649
94168,96660
94272,96702
94285,96726
94293,96717
94209,96678
94242,96682
94334,96753
94371,96769
94366,96733
94291,96720
94320,96746
94428,96765
94418,96786
94385,96774
94372,96748
94345,96759
94454,96806
94486,96796
94461,96790
94398,96756
94387,96747
94490,96814
94494,96804
94486,96820
94438,96757
94410,96765
94521,96841
94549,96820
94513,96826
94475,96776
94440,96780
94563,96836
94571,96838
94549,96813
94536,96803
94507,96806
94616,96890
94633,96856
94588,96846
94570,96807
94595,96825
94661,96886
94674,96889
94662,96876
94597,96836
94642,96869
94732,96910
94721,96918
94703,96878
94643,96836
94668,96854
94789,96934
94721,96918
94714,96913
94673,96872
94723,96891
94803,96944
94771,96918
94785,96919
94724,96879
94751,96911
94845,96952
94834,96934
94852,96977
94791,96926
94783,96927
94906,96977
94883,96966
94876,96966
94784,96932
94813,96967
94934,97010
94906,96968
94877,96951
94844,96944
94853,96953
94963,97001
94915,97022
94924,96990
94897,96984
94960,97003
95024,97044
95008,97031
95015,97036
94977,97015
95021,97045
95102,97057
95108,97102
95080,97075
95001,97021
95109,97089
95222,97104
95130,97086
95131,97102
95081,97078
95135,97090
95222,97128
95181,97133
95196,97150
95126,97072
95150,97097
95262,97155
95208,97138
95225,97112
95133,97087
95188,97109
95282,97153
95273,97156
95233,97158
95190,97090
95235,97136
95351,97193
95324,97176
95270,97159
95232,97142
95292,97159
95398,97206
95337,97209
95329,97182
95297,97179
95352,97199
95412,97223
95417,97239
95429,97211
95352,97176
95403,97207
95469,97250
95480,97258
95422,97235
95361,97164
95456,97240
95518,97274
95507,97237
95450,97248
95402,97202
95471,97248
95497,97271
95475,97223
95381,97181
95328,97149
95307,97162
95296,97136
95224,97104
95079,97048
94997,96965
94932,96972
94914,96980
94803,96893
94687,96858
94531,96775
94494,96739
94519,96730
94387,96715
94308,96646
94130,96589
94170,96576
94154,96622
94055,96519
94054,96517
93878,96464
93927,96505
93932,96515
93901,96467
93814,96464
93748,96378
93749,96440
93832,96481
93808,96477
93730,96466
93685,96363
93739,96433
93817,96453
93775,96471
93735,96457
93704,96386
93738,96434
93859,96488
93793,96521
93791,96477
93768,96467
93824,96479
93893,96524
93871,96530
93888,96491
93786,96483
93866,96528
93910,96578
93949,96550
93941,96555
93864,96519
93903,96532
94004,96596
93977,96578
94000,96570
93926,96511
93977,96586
94055,96598
94036,96610
94024,96591
93980,96544
94057,96625
94143,96615
94109,96654
94104,96631
94065,96597
94134,96682
94189,96699
94202,96682
94168,96694
94127,96608
94217,96720
94271,96709
94235,96707
94288,96724
94208,96663
94254,96684
94318,96786
94284,96723
94295,96699
94209,96674
94333,96720
94348,96799
94317,96742
94275,96748
94185,96711
94279,96708
94355,96773
94272,96718
94309,96731
94197,96679
94256,96723
94320,96709
94245,96748
94249,96703
94191,96669
94279,96731
94330,96748
94285,96735
94255,96690
94241,96719
94308,96752
94380,96779
94338,96767
94353,96741
94271,96750
94394,96770
94448,96820
94456,96833
94458,96816
94369,96752
94499,96828
94541,96876
94527,96840
94554,96878
94511,96844
94628,96880
94645,96944
94684,96939
94680,96919
94599,96898
94718,96936
94755,96998
94752,96996
94720,96957
94712,96956
94834,96987
94844,97052
94883,97063
94863,97052
94853,96996
94949,97049
95012,97109
94990,97113
94969,97060
94978,97076
95070,97120
95108,97152
95092,97174
95081,97145
95053,97143
95167,97184
95177,97231
95180,97188
95175,97182
95142,97155
95225,97217
95270,97242
95280,97220
95281,97245
95193,97171
95307,97264
95369,97283
95363,97276
95332,97281
95279,97214
95405,97280
95429,97305
95404,97280
95436,97312
95330,97232
95455,97308
95534,97337
95492,97324
95499,97338
95417,97249
95544,97353
95533,97399
95540,97348
95534,97343
95462,97322
95567,97383
95649,97389
95607,97416
95543,97366
95531,97303
95617,97402
95644,97438
95610,97383
95626,97368
95532,97365
95676,97391
95637,97426
95640,97398
95632,97408
95579,97328
95657,97438
95712,97453
95699,97409
95681,97411
95584,97355
95721,97410
95754,97443
95728,97409
95663,97423
95660,97404
95726,97453
95758,97481
95739,97430
95736,97443
95618,97364
95769,97454
95813,97466
95756,97469
95728,97428
95645,97403
95777,97476
95804,97444
95817,97485
95726,97475
95703,97425
95811,97494
95852,97476
95822,97495
95770,97462
95760,97466
95844,97510
95877,97507
95833,97500
95819,97462
95787,97476
95855,97497
95921,97537
95843,97531
95827,97459
95824,97501
95912,97525
95915,97557
95921,97514
95854,97492
95858,97479
95943,97524
95964,97571
95911,97534
95870,97514
95854,97476
95923,97537
95931,97553
95945,97511
95898,97566
95879,97467
95974,97553
95969,97545
95912,97514
95851,97447
95738,97420
95814,97445
95736,97445
95630,97369
95557,97313
95407,97221
95414,97256
95329,97199
95262,97177
95071,97117
94991,97042
94960,97055
94912,97054
94838,96962
94672,96903
94604,96874
94603,96883
94572,96825
94505,96794
94368,96769
94292,96695
94315,96748
94281,96748
94200,96664
94111,96631
94059,96619
94091,96661
94106,96679
94009,96638
93942,96542
93886,96581
93984,96608
93994,96603
93928,96611
93866,96509
93827,96550
93916,96586
93951,96609
93901,96585
93888,96565
93840,96538
93967,96600
93978,96611
93966,96605
93912,96605
93929,96577
93985,96651
93979,96664
93969,96611
93939,96593
93920,96571
94024,96656
94050,96640
94005,96637
93974,96582
93941,96621
94027,96646
94015,96666
94001,96618
93948,96627
93947,96588
94071,96660
94052,96660
94054,96626
93995,96646
93997,96632
94094,96701
94119,96718
94093,96650
94053,96666
94059,96633
94122,96710
94139,96738
94113,96687
94044,96622
94070,96662
94154,96698
94135,96715
94094,96675
94057,96638
94002,96650
94118,96705
94157,96707
94057,96677
94029,96615
94002,96609
94094,96692
94076,96655
94050,96617
93943,96642
93953,96592
94037,96662
94013,96630
94004,96599
93934,96612
93928,96624
94014,96631
94009,96650
93956,96611
93922,96621
93943,96600
94021,96650
94029,96640
93997,96637
93948,96624
93967,96625
94070,96684
94059,96676
94034,96645
94023,96638
94049,96644
94132,96703
94140,96706
94139,96678
94080,96683
94113,96678
94156,96728
94199,96753
94180,96734
94162,96697
94166,96723
94251,96782
94274,96774
94259,96773
94248,96716
94208,96741
94348,96825
94337,96817
94302,96813
94293,96782
94316,96792
94382,96842
94427,96830
94397,96843
94335,96764
94349,96801
94467,96888
94457,96843
94490,96857
94429,96793
94427,96845
94558,96898
94522,96927
94501,96876
94497,96837
94494,96844
94623,96931
94608,96907
94620,96908
94536,96918
94544,96927
94694,96968
94642,96975
94659,96981
94612,96888
94646,96927
94775,96975
94756,96990
94733,96946
94664,96966
94708,96975
94835,97042
94789,97009
94791,97031
94734,96939
94773,96977
94855,97072
94842,97009
94864,97048
94757,97007
94775,97013
94945,97050
94890,97093
94868,97043
94844,97023
94850,97018
94982,97109
94932,97079
94942,97056
94865,97067
94916,97068
95034,97133
94952,97118
94984,97081
94936,97110
94986,97107
95056,97122
95073,97133
94994,97163
94976,97076
95029,97102
95129,97151
95077,97175
95055,97137
95030,97124
95060,97151
95137,97167
95154,97163
95101,97174
95015,97098
95103,97131
95156,97217
95187,97202
95149,97153
95089,97161
95146,97176
95252,97250
95228,97183
95234,97204
95096,97189
95168,97211
95288,97272
95242,97224
95279,97237
95148,97183
95234,97202
95311,97258
95312,97244
95253,97260
95200,97147
95286,97235
95353,97267
95334,97274
95311,97237
95256,97271
95318,97280
95438,97312
95361,97302
95355,97303
95340,97271
95370,97284
95462,97316
95458,97306
95436,97345
95356,97254
95414,97313
95491,97334
95490,97338
95456,97363
95411,97245
95459,97331
95554,97404
95475,97331
95451,97308
95375,97292
95389,97314
95443,97301
95339,97279
95276,97191
95107,97179
95102,97155
95106,97137
94993,97089
94896,97033
94680,96891
94651,96919
94627,96914
94463,96852
94382,96782
94227,96677
94186,96687
94138,96681
94055,96612
93964,96616
93805,96497
93771,96504
93744,96501
93661,96434
93566,96403
93389,96310
93429,96334
93464,96384
93338,96329
93276,96266
93164,96244
93199,96270
93259,96281
93163,96275
93153,96248
93041,96193
93168,96241
93203,96273
93186,96284
93145,96269
93076,96238
93148,96291
93213,96347
93197,96277
93229,96305
93112,96257
93239,96317
93302,96347
93275,96373
93247,96317
93155,96291
93293,96340
93376,96374
93340,96372
93287,96308
93224,96318
93369,96349
93388,96388
93363,96377
93381,96408
93264,96317
93383,96370
93464,96447
93441,96402
93413,96405
93397,96354
93480,96449
93511,96416
93519,96448
93529,96462
93412,96384
93539,96456
93555,96510
93535,96476
93511,96440
93483,96396
93529,96480
93547,96450
93540,96455
93511,96453
93427,96388
93522,96448
93550,96471
93512,96443
93508,96437
93399,96397
93516,96465
93564,96494
93516,96458
93475,96419
93420,96428
93500,96417
93573,96496
93495,96472
93511,96415
93400,96421
93500,96436
93534,96479
93482,96436
93458,96454
93389,96385
93455,96425
93520,96453
93475,96442
93474,96436
93397,96429
93493,96427
93539,96499
93525,96495
93474,96456
93474,96438
93547,96505
93615,96558
93580,96515
93606,96499
93537,96452
93647,96562
93697,96568
93724,96563
93679,96541
93609,96523
93717,96553
93789,96631
93729,96581
93798,96565
93689,96536
93811,96620
93858,96634
93830,96642
