11111,11111
0,0
82403,82396
136039,107145
140399,107140
140416,107134
140431,107123
140398,107136
140334,107081
140308,107053
140338,107082
140278,107061
140247,107020
140216,107017
140158,107027
140149,106984
140115,106991
140065,106954
140045,106915
140004,106947
140012,106927
139974,106897
139978,106898
139970,106905
139916,106878
139934,106881
139986,106895
139951,106872
139864,106886
139897,106875
139935,106873
139950,106904
139941,106902
139921,106849
139930,106906
139953,106921
139998,106867
140008,106915
139995,106906
139972,106882
140048,106910
140012,106947
139999,106891
140041,106904
140052,106939
140073,106935
140088,106946
140035,106923
140050,106903
140105,106933
140106,106964
140100,106924
140094,106945
140091,106909
140164,106942
140130,106967
140121,106941
140127,106942
140133,106941
140141,106948
140210,106953
140192,106966
140180,106961
140155,106940
140241,106986
140230,106964
140276,106998
140248,106981
140182,106944
140251,107006
140242,106974
140292,106980
140269,107002
140226,106948
140242,106977
140298,106958
140276,106973
140258,106949
140230,106977
140258,106937
140267,106971
140274,106951
140240,106978
140187,106913
140272,106927
140252,106965
140221,106958
140204,106938
140215,106937
140196,106941
140242,106922
140258,106958
140204,106948
140195,106892
140216,106924
140246,106923
140266,106942
140222,106928
140175,106932
140269,106945
140273,106908
140253,106945
140230,106921
140240,106934
140251,106916
140279,106931
140277,106922
140283,106931
140245,106912
140308,106921
140291,106918
140291,106965
140276,106938
140289,106913
140341,106970
140329,106970
140388,106947
140335,106946
140282,106905
140354,106932
140358,106982
140362,106927
140327,106945
140367,106937
140377,106956
140387,106938
140550,106975
140697,107016
140680,107026
140204,106786
140229,106787
140236,106819
140202,106774
140276,106787
140263,106774
140306,106813
140347,106829
140281,106820
140439,106817
140415,106853
140423,106851
140400,106854
140432,106853
140432,106829
140486,106843
140435,106849
140442,106825
140470,106832
140521,106865
140467,106811
140480,106853
140425,106823
140469,106846
140496,106826
140473,106826
140465,106845
140404,106820
140429,106840
140472,106826
140452,106815
140477,106817
140399,106821
140409,106803
140481,106819
140421,106825
140394,106808
140431,106790
140454,106797
140442,106828
140412,106788
140407,106776
140439,106804
140423,106790
140426,106811
140443,106763
140438,106800
140381,106782
140431,106815
140432,106797
140447,106781
140440,106801
140392,106757
140420,106779
140409,106768
140424,106767
140476,106783
140394,106786
140436,106808
140442,106791
140448,106801
140440,106763
140447,106775
140455,106790
140474,106787
140443,106755
140493,106766
140452,106800
140475,106792
140490,106822
140493,106780
140474,106781
140489,106784
140517,106802
140510,106797
140523,106808
140513,106820
140485,106750
140533,106785
140551,106786
140586,106804
140530,106819
140492,106779
140564,106800
140577,106831
140542,106803
140548,106782
140569,106801
140569,106811
140589,106825
140571,106817
140575,106788
140567,106821
140573,106799
140620,106797
140616,106818
140586,106821
140592,106772
140625,106824
140617,106808
140605,106786
140643,106820
140583,106781
140646,106833
140674,106833
140624,106813
140619,106793
140623,106778
140642,106811
140686,106822
140655,106808
140595,106791
140648,106788
140675,106812
140681,106796
140664,106829
140613,106805
140676,106832
140672,106814
140666,106816
140683,106805
140761,106831
140746,106782
140761,106810
140756,106795
140752,106823
140704,106798
140319,106610
140288,106549
140262,106555
140261,106560
140255,106563
140256,106558
140226,106569
140207,106548
140183,106560
140218,106554
140213,106561
140254,106538
140255,106563
140191,106547
140227,106526
140239,106583
140194,106545
140218,106550
140247,106564
140233,106570
140279,106550
140278,106581
140258,106566
140220,106560
140286,106567
140301,106575
140310,106577
140319,106575
140292,106566
140297,106582
140304,106597
140336,106558
140322,106582
140307,106590
140288,106580
140348,106526
140312,106578
140351,106578
140316,106598
140345,106565
140364,106605
140345,106580
140389,106566
140330,106596
140391,106603
140407,106584
140403,106602
140384,106599
140374,106564
140424,106594
140434,106570
140452,106594
140439,106625
140359,106564
140437,106594
140446,106586
140405,106603
140392,106578
140416,106585
140410,106601
140434,106569
140410,106565
140370,106597
140361,106525
140412,106549
140373,106580
140354,106554
140349,106531
140351,106532
140335,106569
140338,106553
140326,106521
140349,106518
140298,106510
140349,106527
140328,106503
140353,106522
140349,106533
140290,106468
140337,106518
140346,106526
140343,106535
140318,106524
140313,106487
140347,106510
140355,106511
140342,106521
140298,106492
140316,106489
140382,106504
140382,106506
140390,106542
140364,106539
140345,106526
140354,106510
140385,106515
140392,106546
140385,106487
140338,106505
140426,106529
140379,106502
140420,106506
140384,106538
140380,106520
140399,106523
140433,106535
140423,106557
140399,106495
140416,106547
140449,106554
140415,106529
140426,106548
140414,106499
140446,106524
140450,106571
140448,106536
140451,106533
140494,106543
140480,106523
140474,106530
140509,106514
140529,106522
140475,106500
140496,106544
140519,106539
140536,106556
140489,106538
140527,106554
140513,106501
140558,106575
140563,106537
140575,106541
140532,106561
140568,106534
140556,106542
140581,106580
140563,106568
140580,106532
140590,106573
140602,106571
140619,106550
140594,106541
140545,106537
140585,106526
140650,106570
140647,106573
140613,106557
140583,106544
140600,106545
140641,106548
140617,106569
140620,106564
140608,106546
140633,106542
140683,106597
140671,106559
140650,106561
140632,106547
140657,106566
140671,106552
140735,106578
140658,106562
140671,106537
140683,106590
140696,106559
140745,106559
140687,106534
140711,106587
140684,106567
140752,106577
140710,106548
140747,106547
140698,106559
140712,106543
140764,106591
140773,106595
140749,106573
140741,106555
140735,106561
140750,106584
140776,106551
140752,106545
140706,106544
140721,106571
140739,106539
140666,106513
140684,106524
140578,106492
140407,106418
140394,106386
140351,106374
140330,106389
140306,106353
140216,106338
140219,106340
140198,106339
140215,106314
140147,106337
140139,106290
140109,106307
140098,106305
140125,106266
140079,106291
140125,106299
140055,106285
140058,106265
140141,106307
140101,106279
140111,106288
140053,106263
140102,106282
140102,106301
140128,106304
140123,106304
140092,106277
140103,106309
140110,106266
140096,106281
140131,106296
140089,106263
140161,106286
140119,106324
140141,106310
140146,106277
140129,106317
140164,106303
140140,106324
140144,106321
140173,106298
140143,106314
140157,106307
140222,106315
140203,106303
140161,106287
140190,106302
140225,106339
140229,106297
140226,106310
140268,106317
140196,106301
140260,106332
140244,106307
140253,106332
140288,106298
140254,106301
140281,106344
140288,106303
140290,106314
140298,106312
140238,106324
140262,106282
140300,106338
140298,106315
140237,106334
140220,106294
140286,106300
140261,106309
140243,106293
140267,106269
140256,106277
140262,106309
140228,106264
140257,106278
140250,106271
140176,106278
140252,106269
140230,106296
140232,106258
140206,106265
140182,106227
140258,106275
140213,106279
140191,106259
140215,106257
140175,106225
140239,106265
140211,106261
140196,106253
140214,106228
140165,106256
140197,106225
140221,106292
140220,106265
140193,106273
140165,106221
140234,106229
140237,106259
140250,106242
140206,106232
140201,106248
140205,106249
140257,106258
140252,106242
140222,106216
140259,106229
140277,106276
140248,106253
140262,106267
140262,106250
140229,106259
140268,106230
140286,106283
140277,106258
140271,106248
140240,106240
140322,106274
140298,106272
140267,106267
140312,106268
140271,106249
140360,106288
140368,106272
140335,106287
140334,106250
140329,106261
140329,106273
140393,106300
140353,106285
140356,106276
140339,106266
140366,106266
140393,106259
140381,106271
140375,106263
140384,106299
140379,106305
140405,106283
140392,106271
140395,106257
140404,106305
140408,106273
140426,106292
140429,106279
140372,106296
140373,106273
140431,106302
140460,106264
140406,106280
140428,106272
140405,106283
140475,106287
140439,106273
140478,106267
140441,106293
140443,106277
140509,106305
140491,106267
140490,106299
140494,106283
140485,106300
140504,106277
140518,106292
140481,106302
140488,106245
140486,106269
140528,106309
140513,106271
140517,106282
140489,106257
140540,106297
140528,106320
140495,106265
140545,106285
140479,106301
140507,106281
140596,106292
140538,106313
140538,106257
140517,106288
140534,106267
140552,106308
140521,106289
140446,106263
140434,106213
140443,106244
140384,106208
140339,106177
140332,106169
140208,106162
140201,106117
140192,106146
140104,106105
140111,106103
139998,106052
139980,106040
139987,106075
139934,106031
139853,106023
139837,105991
139848,106008
139808,105985
139769,105973
139776,105966
139714,105930
139727,105953
139717,105950
139711,105933
139709,105943
139666,105939
139707,105941
139704,105935
139703,105924
139685,105943
139632,105906
139664,105906
139715,105970
139702,105929
139676,105955
139619,105904
139689,105897
139700,105922
139697,105933
139652,105928
139675,105919
139688,105911
139715,105985
139713,105915
139688,105957
139706,105915
139695,105943
139724,105926
139731,105931
139709,105925
139674,105928
139737,105925
139740,105946
139715,105930
139780,105946
139714,105921
139777,105937
139784,105971
139772,105930
139803,105934
139784,105952
139824,105966
139824,105953
139817,105949
139817,105943
139818,105943
139829,105988
139815,105959
139806,105954
139798,105947
139750,105912
139831,105960
139796,105956
139806,105948
139789,105912
139792,105933
139765,105948
139780,105929
139792,105907
139752,105913
139698,105909
139744,105891
139765,105907
139756,105926
139708,105878
139732,105858
139689,105910
139701,105887
139680,105888
139704,105900
139634,105874
139723,105899
139710,105888
139669,105861
139676,105868
139670,105866
139683,105874
139675,105891
139692,105875
139660,105850
139627,105830
139715,105872
139667,105859
139641,105839
139658,105858
139663,105851
139682,105883
139697,105835
139677,105861
139664,105839
139659,105833
139718,105875
139709,105908
139703,105861
139677,105850
139707,105850
139711,105884
139714,105855
139719,105857
139680,105872
139702,105848
139727,105873
139762,105847
139768,105880
139695,105847
139703,105846
139738,105899
139723,105889
139741,105845
139744,105894
139708,105862
139783,105860
139783,105878
139742,105886
139741,105857
139749,105856
139797,105904
139807,105855
139834,105886
139888,105913
139885,105879
139860,105912
139819,105874
139826,105865
139880,105900
139861,105900
139889,105877
139866,105903
139857,105897
139886,105879
139899,105928
139873,105894
139865,105887
139908,105891
139894,105922
139881,105896
139918,105912
139899,105870
139887,105896
139912,105929
139904,105890
139941,105875
139884,105866
139901,105880
139883,105881
139870,105864
139866,105877
139791,105857
139778,105811
139761,105831
139704,105819
139683,105781
139561,105746
139577,105785
139510,105748
139500,105724
139420,105692
139361,105659
139311,105658
139328,105670
139283,105654
139214,105624
139177,105588
139118,105598
139161,105602
139095,105573
139045,105551
139051,105536
139029,105555
139060,105548
139005,105552
139010,105512
138956,105507
138981,105520
138985,105553
138963,105513
138984,105545
138945,105516
138998,105520
138985,105571
138980,105513
138983,105539
138984,105538
138949,105513
138953,105508
138977,105512
139007,105563
138971,105518
139007,105523
139005,105530
139033,105524
139059,105548
139054,105572
139048,105521
139021,105516
139062,105518
139084,105573
139078,105574
139102,105533
139089,105547
139103,105566
139133,105578
139135,105576
139090,105534
139076,105530
139125,105560
139126,105547
139138,105545
139077,105560
139068,105545
139085,105527
139132,105549
139082,105534
139113,105541
139050,105516
139079,105534
139087,105524
139059,105547
139033,105497
139032,105496
139040,105511
139069,105529
139001,105490
138983,105499
138991,105498
139005,105504
139013,105492
138976,105516
138988,105460
138972,105467
139010,105475
139057,105522
138993,105527
138985,105453
138988,105497
138997,105487
139012,105500
138969,105477
139016,105490
138965,105478
139008,105497
138986,105479
139026,105492
138967,105476
138994,105494
139011,105481
139013,105471
139021,105491
138960,105495
138995,105492
139003,105507
139028,105478
138986,105471
139005,105493
138992,105484
139027,105464
139045,105482
139017,105521
138982,105463
138995,105478
138993,105490
139015,105495
139042,105498
139010,105506
138990,105489
139029,105500
139069,105482
139058,105510
139027,105509
139018,105470
139068,105536
139072,105523
139166,105530
139114,105554
139122,105519
139153,105539
139180,105533
139180,105581
139124,105522
139186,105531
139159,105542
139196,105550
139195,105571
139192,105541
139196,105568
139163,105547
139241,105538
139233,105545
138987,105416
138932,105421
138850,105386
138772,105364
138716,105365
138662,105327
138633,105296
138575,105305
138487,105267
138446,105242
138413,105254
138364,105221
138380,105229
138293,105233
138275,105213
138285,105179
138266,105187
138215,105185
138185,105161
138187,105188
138208,105174
138135,105166
138119,105125
138142,105157
138110,105104
138146,105150
138104,105108
138078,105160
138058,105130
138051,105110
138117,105133
138114,105146
138065,105144
138058,105130
138047,105144
138069,105113
138090,105110
138069,105134
138070,105103
138066,105136
138102,105098
138095,105131
138243,105165
138229,105210
138249,105186
138258,105187
138221,105198
138222,105183
138298,105191
138252,105210
138219,105149
138227,105146
138231,105167
138268,105186
138263,105189
138166,105141
138173,105151
138194,105165
138166,105128
138179,105135
138129,105158
138127,105106
138172,105154
138156,105151
138128,105149
138095,105099
138153,105122
138135,105148
138160,105138
138130,105117
138105,105106
138146,105119
138137,105111
138172,105157
138110,105099
138129,105117
138125,105166
138138,105154
138152,105121
138153,105119
138161,105122
138132,105175
138136,105150
138163,105130
138168,105131
138155,105155
138208,105164
138195,105168
138194,105131
138207,105148
138170,105160
138201,105143
138218,105140
138240,105190
138364,105222
138337,105207
138385,105216
138416,105227
138413,105223
138398,105243
138425,105219
138443,105230
138407,105226
138442,105231
138403,105245
138384,105192
138465,105241
138393,105251
138400,105221
138378,105192
138310,105181
138307,105169
138325,105145
138208,105155
138170,105091
138106,105075
138071,105087
137984,105039
137950,105032
137839,105020
137779,104961
137758,104943
137686,104946
137640,104881
137583,104895
137475,104848
137470,104872
137450,104837
137355,104819
137298,104790
137304,104783
137261,104829
137255,104771
137237,104793
137165,104775
137131,104728
137203,104770
137164,104759
137150,104746
137135,104732
137107,104715
137106,104750
137108,104743
137127,104730
137040,104732
137109,104724
137100,104753
137100,104745
137102,104730
137083,104735
137064,104736
137115,104775
137109,104732
137085,104732
137083,104753
137109,104740
137136,104771
137112,104750
137128,104750
137137,104739
137135,104759
137184,104776
137158,104780
137156,104762
137188,104771
137199,104792
137203,104791
137211,104771
137210,104781
137228,104760
137258,104792
137288,104825
137253,104786
137301,104821
137271,104818
137306,104811
137290,104824
137332,104838
137333,104842
137307,104793
137281,104816
137333,104827
137344,104800
137358,104831
137312,104820
137307,104805
137347,104830
137321,104790
137322,104814
137279,104828
137281,104792
137325,104819
137301,104795
137281,104817
137243,104781
137262,104803
137314,104786
137282,104769
137306,104807
137249,104825
137252,104783
137254,104825
137275,104780
137274,104799
137255,104805
137247,104804
137244,104818
137249,104832
137245,104797
137235,104781
137312,104832
137311,104818
137291,104784
137315,104812
137289,104809
137285,104802
137351,104821
137341,104830
137324,104826
137280,104795
137389,104848
137345,104844
137353,104830
137370,104842
137376,104850
137388,104829
137405,104835
137413,104841
137410,104859
137373,104829
137449,104875
137432,104889
137447,104899
137460,104850
137418,104868
137471,104871
137517,104868
137464,104880
137486,104896
137441,104898
137552,104900
137567,104907
137516,104897
137566,104901
137529,104921
137582,104936
137555,104925
137569,104903
137563,104900
137600,104940
137621,104911
137637,104960
137628,104941
137648,104934
137636,104924
137649,104942
137720,104964
137689,104940
137644,104963
137651,104946
137723,104975
137741,104999
137714,104947
137724,104991
137697,104939
137738,105015
137756,104994
137776,104967
137713,104998
137679,104942
137716,104957
137672,104939
137595,104917
137603,104891
137508,104895
137499,104884
137436,104864
137381,104811
137308,104791
137214,104750
137200,104769
137156,104751
137054,104714
137005,104702
136962,104669
136959,104672
136880,104665
136866,104633
136805,104621
136758,104606
136718,104623
136692,104587
136725,104626
136631,104596
136612,104575
136606,104568
136647,104564
136576,104589
136565,104554
136580,104567
136620,104562
136551,104564
136587,104543
136598,104556
136537,104561
136563,104575
136589,104573
136606,104607
136576,104606
136547,104549
136598,104584
136623,104596
136614,104562
136609,104563
136612,104611
136620,104581
136629,104597
136643,104557
136631,104594
136645,104638
136647,104620
136676,104570
136670,104618
136681,104637
136672,104625
136739,104658
136723,104636
136780,104633
136749,104645
136764,104621
136821,104636
136834,104635
136816,104660
136781,104623
136771,104640
136827,104664
136877,104701
136834,104691
136804,104651
136884,104671
136878,104699
136894,104691
136850,104672
136868,104692
136837,104656
136871,104658
136858,104654
136844,104683
136819,104642
136812,104674
136883,104659
136824,104673
136821,104673
136814,104668
136817,104693
136824,104660
136877,104654
136824,104694
136817,104661
136811,104655
136848,104692
136820,104646
136855,104675
136791,104677
136832,104654
136898,104663
136832,104705
136828,104671
136857,104646
136852,104710
136866,104683
136902,104692
136865,104658
136897,104667
136869,104710
136893,104676
136931,104688
136894,104709
136918,104695
136933,104728
136943,104727
136931,104696
136955,104710
136926,104724
136976,104738
136995,104744
136981,104745
136990,104722
137007,104700
136984,104782
137002,104742
137050,104741
137057,104760
137035,104763
137059,104778
137098,104773
137077,104746
137093,104759
137080,104793
137097,104759
137100,104808
137122,104767
137128,104788
137096,104794
137185,104808
137170,104816
137187,104822
137189,104814
137154,104771
137212,104795
137259,104839
137214,104816
137215,104798
137211,104815
137253,104847
137254,104818
137307,104857
137271,104856
137276,104848
137327,104851
137334,104910
137329,104840
137383,104888
137329,104875
136855,104671
136798,104649
136705,104634
136720,104631
136658,104631
136658,104606
136571,104569
136536,104559
136548,104563
136546,104582
136464,104536
136449,104533
136441,104553
136443,104538
136404,104538
136443,104543
136405,104516
136387,104551
136410,104532
136390,104523
136441,104562
136390,104536
136383,104539
136409,104531
136446,104516
136421,104543
136420,104528
136418,104499
136469,104532
136453,104588
136458,104520
136456,104554
136458,104568
136486,104558
136550,104600
136480,104586
136487,104534
136504,104561
136499,104590
136561,104577
136565,104595
136575,104613
136529,104573
136568,104614
136604,104608
136618,104627
136619,104605
136619,104609
136695,104643
136671,104673
136698,104653
136681,104644
136725,104661
136709,104648
136769,104688
136770,104650
136725,104652
136766,104666
136756,104679
136796,104692
136772,104669
136774,104677
136760,104674
136808,104677
136779,104687
136790,104687
136763,104665
136756,104679
136781,104660
136798,104677
136765,104637
136790,104675
136723,104652
136779,104656
136794,104647
136773,104690
136715,104658
136763,104636
136783,104670
136759,104666
136771,104674
136756,104624
136787,104663
136753,104687
136824,104651
136785,104665
136794,104668
136811,104664
136835,104677
136781,104683
136812,104709
136812,104684
136777,104678
136835,104681
136856,104709
136848,104715
136832,104687
136829,104682
136865,104716
136883,104716
136882,104711
136860,104699
136904,104707
136952,104734
136965,104768
136966,104726
136982,104745
136930,104746
136977,104727
137031,104765
136979,104756
137006,104731
136986,104757
137025,104730
137042,104765
137028,104796
137010,104788
137039,104775
137024,104767
137061,104751
137108,104805
137093,104785
137064,104776
137095,104770
137138,104793
137102,104802
137123,104805
137126,104782
137134,104803
137201,104820
137144,104803
137151,104804
137143,104819
137166,104809
137225,104830
137219,104826
137175,104842
137182,104835
137190,104820
137284,104816
137232,104857
137236,104842
137194,104835
137243,104829
137307,104842
137267,104877
137272,104833
137238,104827
137330,104893
137319,104889
137310,104877
137315,104842
137259,104821
137321,104880
137308,104868
137249,104844
137201,104810
137197,104771
137176,104817
137138,104785
137058,104760
137013,104702
136953,104719
136912,104706
136906,104670
136860,104697
136774,104656
136696,104628
136694,104629
136677,104614
136648,104636
136607,104611
136537,104598
136531,104572
136516,104541
136513,104585
136508,104548
136461,104561
136452,104533
136483,104535
136423,104575
136391,104534
136391,104533
136425,104548
136447,104560
136417,104554
136398,104514
136427,104535
136452,104558
136433,104563
136448,104556
136497,104568
136415,104516
136461,104551
136483,104534
136452,104556
136460,104556
136424,104551
136480,104559
136544,104592
136525,104591
136494,104567
136474,104543
136532,104584
136559,104592
136549,104591
136580,104581
136574,104602
136564,104597
136644,104586
136592,104642
136579,104606
136617,104609
136676,104625
136683,104643
136671,104645
136628,104614
136700,104618
136687,104642
136711,104632
136707,104638
136671,104604
136690,104647
136692,104653
136727,104634
136700,104624
136716,104641
136676,104648
136698,104642
136726,104627
136686,104645
136676,104602
136713,104658
136688,104630
136674,104618
136685,104592
136665,104602
136700,104639
136691,104641
136713,104671
136656,104618
136672,104613
136656,104604
136692,104628
136680,104625
136682,104603
136703,104624
136656,104629
136732,104658
136695,104651
136684,104619
136670,104631
136710,104630
136732,104651
136743,104652
136724,104648
136682,104654
136703,104616
136782,104656
136757,104681
136746,104647
136757,104650
136731,104631
136775,104654
136799,104695
136769,104666
136771,104672
136764,104695
136793,104663
136862,104673
136835,104716
136825,104665
136835,104647
136880,104699
136898,104691
136893,104685
136865,104710
136862,104693
136917,104722
136920,104706
136956,104718
136893,104736
136919,104702
136991,104742
136958,104761
136969,104734
136978,104714
137000,104751
136987,104752
137024,104752
137034,104755
137027,104753
136991,104766
137039,104758
137100,104783
137059,104751
137044,104748
137032,104776
137073,104758
137170,104798
137184,104787
137229,104832
137206,104785
137181,104813
137188,104791
137177,104800
137208,104821
137222,104822
137200,104822
137163,104821
137164,104783
137216,104811
137170,104812
137120,104780
137075,104743
137057,104714
137075,104766
136773,104635
136685,104620
136629,104614
136634,104613
136624,104586
136594,104556
136578,104565
136455,104532
136491,104539
136492,104544
136460,104549
136420,104515
136415,104487
136416,104523
136427,104536
136420,104515
136363,104515
136372,104499
136418,104539
136390,104506
136465,104555
136438,104545
136430,104527
136507,104551
136533,104565
136482,104569
136494,104565
136512,104549
136508,104574
136534,104582
136538,104585
136534,104545
136588,104583
136582,104594
136622,104629
136642,104603
136642,104592
136605,104606
136659,104610
136686,104626
136689,104615
136698,104627
136631,104615
136726,104646
136710,104643
136692,104633
136696,104632
136686,104598
136712,104634
136740,104616
136681,104625
136730,104637
136676,104598
136726,104638
136758,104615
136699,104606
136710,104619
136675,104611
136693,104612
136721,104613
136676,104611
136689,104611
136668,104618
136698,104627
136714,104611
136677,104617
136665,104590
136657,104600
136698,104605
136706,104584
136718,104626
136680,104629
136721,104610
136715,104616
136752,104632
136704,104612
136727,104646
136704,104612
136705,104642
136743,104639
136713,104597
136755,104618
136734,104616
136764,104636
136781,104637
136790,104655
136765,104618
136770,104654
136790,104658
136828,104651
136839,104647
136812,104632
136841,104644
136856,104694
136882,104689
136858,104675
136833,104669
136857,104648
136915,104678
136892,104686
136923,104666
136889,104663
136925,104691
136905,104710
136953,104677
136957,104705
136952,104705
136932,104709
136968,104685
136990,104741
136965,104717
137011,104711
137021,104731
137040,104723
137096,104737
137047,104749
136998,104719
137060,104735
137123,104768
137082,104757
137068,104724
137099,104764
137099,104745
137163,104770
137167,104772
137100,104752
137125,104746
137155,104765
137175,104804
137173,104784
137150,104753
137188,104758
137200,104789
137189,104800
137213,104763
136752,104619
136694,104592
136695,104570
136621,104561
136613,104561
136551,104516
136539,104551
136504,104522
136465,104521
136340,104456
136411,104483
136432,104497
136388,104475
136433,104503
136402,104499
136429,104488
136458,104523
136463,104494
136455,104537
136426,104459
136445,104511
136482,104529
136499,104499
136487,104495
136507,104528
136520,104555
136523,104522
136564,104521
136581,104553
136578,104550
136562,104547
136597,104565
136602,104547
136634,104532
136580,104571
136588,104548
136627,104554
136654,104574
136606,104591
136597,104551
136609,104567
136620,104547
136648,104572
136616,104526
136610,104567
136605,104566
136641,104541
136619,104546
136606,104559
136578,104522
136635,104556
136607,104539
136620,104546
136580,104570
136562,104528
136580,104532
136612,104574
136584,104549
136607,104529
136560,104532
136640,104556
136621,104531
136628,104542
136615,104569
136606,104529
136641,104553
136653,104567
136636,104597
136641,104538
136640,104564
136661,104558
136653,104571
136674,104549
136709,104552
136691,104584
136693,104608
136742,104584
136710,104576
136698,104611
136689,104574
136752,104585
136775,104617
136773,104617
136760,104623
136751,104612
136798,104609
136810,104625
136823,104631
136812,104592
136819,104625
136859,104630
136850,104631
136865,104654
136830,104615
136858,104651
136872,104649
136921,104671
136873,104662
136910,104651
136880,104647
136915,104670
136958,104681
136947,104658
136932,104687
136934,104653
136995,104688
136963,104670
136993,104664
136980,104660
137023,104682
137003,104707
137024,104682
137038,104680
137010,104689
137013,104679
137078,104688
137033,104702
137051,104693
137056,104692
137050,104683
137080,104699
137098,104704
137106,104745
137072,104687
137090,104708
137113,104730
137127,104725
137137,104752
137108,104695
137134,104715
137183,104734
137166,104734
137185,104751
137132,104716
137143,104709
137170,104754
137110,104711
137120,104712
137051,104669
136984,104675
137032,104685
136950,104630
136936,104649
136842,104616
136788,104568
136810,104599
136716,104537
136665,104510
136605,104525
136585,104528
136580,104520
136481,104487
136425,104453
136432,104457
136379,104468
136368,104455
136365,104418
136325,104451
136259,104385
136286,104409
136304,104420
136262,104413
136211,104391
136220,104396
136232,104368
136216,104400
136234,104397
136180,104410
136162,104369
136200,104377
136216,104416
136192,104385
136187,104377
136200,104380
136205,104425
136224,104374
136259,104407
136199,104418
136174,104361
136245,104400
136244,104376
136266,104408
136240,104424
136230,104391
136245,104415
136267,104396
136269,104400
136263,104445
136387,104441
136367,104453
136384,104458
136429,104466
136411,104437
136376,104439
136407,104438
136405,104459
136399,104442
136399,104452
136391,104451
136375,104434
136406,104462
136402,104449
136424,104464
136380,104463
136386,104445
136395,104415
136412,104452
136414,104449
136426,104454
136375,104453
136429,104465
136473,104459
136420,104484
136444,104474
136452,104464
136444,104459
136502,104463
136451,104470
136464,104484
136484,104504
136490,104459
136533,104519
136541,104498
136513,104491
136514,104467
136534,104493
136579,104544
136555,104511
136565,104536
136534,104501
136620,104511
136621,104520
136621,104509
136642,104536
136603,104542
136628,104500
136641,104555
136675,104531
136649,104557
136632,104520
136738,104567
136720,104559
136723,104562
136725,104551
136678,104569
136749,104537
136727,104585
136779,104572
136766,104591
136768,104593
136768,104581
136799,104605
136798,104578
136822,104603
136805,104620
136837,104607
136837,104599
136882,104608
136822,104606
136834,104584
136898,104633
136909,104633
136859,104628
136862,104591
136900,104609
136894,104644
136921,104654
136930,104613
136917,104602
136895,104597
136988,104656
136955,104629
136978,104646
136950,104612
136958,104634
136970,104664
136985,104660
137018,104622
136966,104656
137012,104677
136982,104650
137001,104654
137052,104696
137004,104660
137028,104652
137078,104696
137067,104695
137023,104677
137050,104659
137055,104667
137050,104667
137069,104683
136996,104661
136999,104645
136967,104629
136917,104622
136917,104599
136892,104592
136739,104570
136726,104528
136743,104573
136608,104518
136601,104467
136522,104434
136447,104436
136439,104451
136374,104416
136327,104363
136263,104380
136201,104380
136230,104331
136202,104346
136117,104358
136082,104300
136074,104300
136045,104343
136003,104303
136021,104315
135990,104270
135963,104286
135990,104292
135965,104295
135990,104306
135940,104276
135940,104284
135968,104294
135959,104281
135945,104289
135949,104257
135932,104282
135968,104289
135963,104295
135968,104289
135923,104257
135943,104284
136002,104301
135966,104299
135976,104287
135949,104291
135945,104301
136014,104320
136007,104306
136014,104293
135978,104298
136001,104274
136021,104269
136054,104300
136008,104308
136012,104319
136010,104310
136056,104337
136086,104289
136083,104334
136098,104310
136057,104316
136142,104346
136130,104324
136110,104354
136085,104339
136114,104327
136159,104350
136107,104333
136107,104342
136092,104314
136154,104326
136145,104317
136144,104349
136097,104314
136115,104335
136123,104317
136097,104339
136129,104327
136079,104322
136087,104302
136110,104303
136097,104329
136107,104329
136097,104305
136093,104292
136123,104344
136112,104314
136119,104330
136073,104328
136064,104307
136133,104334
136134,104315
136098,104326
136110,104318
136070,104315
136097,104312
136127,104321
136153,104330
136122,104340
136074,104312
136162,104357
136154,104321
136162,104338
136131,104320
136149,104331
136150,104332
136159,104349
136195,104346
136193,104365
136146,104360
136191,104346
136218,104337
136202,104350
136251,104357
136215,104361
136218,104344
136257,104384
136250,104373
136278,104402
136225,104368
136322,104367
136303,104411
136304,104391
136332,104381
136283,104402
136323,104431
136349,104424
136347,104406
136371,104386
136360,104400
136369,104417
136425,104434
136420,104456
136392,104406
136379,104407
136452,104424
136454,104454
136427,104457
136454,104439
136451,104470
136499,104448
136519,104455
136506,104479
136485,104467
136465,104430
136530,104488
136570,104500
136532,104483
136514,104449
136530,104469
136533,104479
136582,104492
136558,104496
136554,104473
136567,104478
136607,104488
136645,104493
136618,104528
136568,104519
136583,104488
136619,104529
136602,104503
136655,104512
136631,104531
136644,104498
136665,104548
136672,104518
136706,104528
136665,104542
136665,104518
136734,104538
136743,104571
136776,104587
136741,104544
136743,104559
136776,104531
136760,104558
136778,104571
136762,104535
136753,104531
136751,104539
136736,104559
136701,104509
136662,104502
136606,104492
136595,104483
136522,104474
136502,104432
136476,104433
136356,104386
136315,104359
136289,104355
136262,104345
136178,104339
136083,104301
136033,104249
136048,104297
135966,104249
135908,104236
135886,104208
135848,104189
135843,104210
135847,104218
135783,104216
135709,104195
135705,104151
135759,104184
135716,104159
135708,104170
135656,104137
135674,104185
135663,104166
135669,104156
135673,104156
135647,104142
135674,104152
135695,104189
135712,104147
135685,104158
135631,104150
135695,104147
135689,104174
135720,104179
135688,104174
135676,104146
135696,104155
135720,104196
135724,104150
135740,104199
135706,104194
135714,104162
135765,104213
135722,104180
135777,104211
135772,104201
135752,104205
135831,104221
135815,104209
135811,104218
135816,104215
135795,104202
135846,104243
135903,104236
135885,104227
135853,104248
135900,104263
135922,104228
135867,104239
135909,104248
135901,104245
135910,104246
135962,104261
135886,104220
135937,104253
135884,104243
135898,104247
135930,104250
135903,104220
135897,104235
135863,104223
135894,104216
135923,104228
135882,104230
135890,104213
135869,104224
135854,104225
135884,104236
135879,104213
135871,104224
135836,104207
135854,104216
135844,104217
135891,104217
135844,104229
135812,104208
135857,104219
135866,104214
135908,104211
135870,104237
135847,104184
135870,104219
135874,104220
135913,104262
135891,104205
135897,104230
135914,104218
135922,104260
135897,104223
135959,104261
135902,104246
135928,104261
136079,104286
136102,104309
136090,104290
136102,104344
136130,104335
136116,104329
136116,104305
136123,104306
136164,104313
136199,104313
136180,104333
136158,104316
136175,104336
136222,104331
136246,104353
136205,104353
136224,104354
136212,104340
136269,104365
136249,104383
136251,104350
136256,104382
136266,104348
136272,104369
136291,104363
136301,104387
136285,104378
136280,104357
136326,104397
136334,104400
136357,104389
136350,104381
136320,104383
136338,104419
136368,104401
136434,104408
136463,104424
136407,104443
136413,104430
136382,104435
136415,104424
136436,104405
136427,104446
136405,104399
136362,104365
136401,104399
136406,104413
136334,104368
136291,104367
136226,104350
136200,104328
136148,104298
136126,104305
136049,104274
135973,104235
135951,104234
135898,104187
135838,104213
135747,104178
135734,104159
135697,104111
135693,104136
135612,104118
135587,104080
135540,104124
135548,104079
135517,104096
135473,104070
135437,104098
135416,104022
135449,104074
135417,104056
135423,104061
135379,104059
135404,104037
135421,104081
135370,104078
135382,104091
135398,104063
135415,104056
135436,104079
135463,104091
135415,104047
135380,104055
135460,104066
135468,104078
135456,104083
135502,104069
135470,104094
135495,104095
135505,104089
135509,104092
135542,104085
135527,104096
135513,104091
135584,104123
135622,104131
135600,104124
135590,104109
135631,104138
135650,104170
135696,104134
135679,104170
135697,104157
135708,104161
135763,104207
135733,104179
135793,104184
135768,104198
135777,104177
135863,104213
135805,104219
135802,104183
135813,104200
135803,104208
135838,104191
135838,104238
135806,104180
135823,104161
135806,104233
135835,104212
135807,104204
135800,104173
135790,104167
135813,104214
135827,104201
135781,104209
135780,104210
135751,104177
135747,104177
135808,104189
135802,104209
135765,104221
135747,104181
135818,104179
135827,104229
135807,104161
135801,104194
135772,104197
135790,104172
135874,104202
135817,104242
135810,104196
135823,104182
135801,104193
135856,104216
135842,104240
135855,104205
135849,104216
135844,104220
135942,104239
135888,104203
135894,104211
135884,104232
135919,104265
135934,104272
135942,104246
135961,104231
135950,104245
135963,104252
136000,104261
135972,104251
136026,104273
136004,104287
136020,104256
136085,104298
136078,104291
136060,104287
136042,104299
136064,104314
136091,104290
136119,104342
136109,104307
136104,104306
136110,104320
136165,104340
136367,104386
136397,104429
136390,104406
136395,104437
136329,104413
136407,104406
136429,104414
136413,104430
136409,104434
136395,104407
136460,104460
136428,104465
136402,104434
136397,104389
136380,104419
136385,104406
136389,104395
136378,104415
136286,104390
136237,104326
136223,104336
136199,104326
136092,104299
136061,104262
135982,104265
135923,104248
135920,104222
135830,104211
135758,104159
135692,104157
135641,104135
135633,104112
135551,104103
135525,104104
135441,104077
135464,104053
135378,104037
135393,104055
135343,104056
135310,104007
135291,104020
135342,104032
135274,104029
135236,104006
135252,104006
135287,104020
135248,104017
135279,104005
135255,104028
135224,103991
135256,104055
135243,104014
135292,104024
135277,104052
135250,103996
135312,104026
135293,104012
135282,104041
135275,104007
135279,104016
135344,104047
135305,104056
135336,104027
135369,104038
135376,104056
135371,104060
135413,104095
135426,104090
135431,104067
135415,104083
135499,104116
135515,104111
135503,104089
135527,104119
135530,104129
135578,104135
135561,104118
135600,104161
135583,104130
135613,104126
135620,104165
135630,104140
135637,104169
135603,104149
135649,104131
135680,104140
135669,104160
135701,104176
135640,104171
135642,104122
135671,104160
135669,104145
135635,104162
135638,104119
135650,104184
135636,104168
135647,104151
135634,104133
135582,104085
135645,104174
135643,104139
135636,104146
135634,104149
135593,104146
135608,104140
135594,104134
135629,104138
135623,104147
135558,104123
135594,104141
135609,104151
135606,104145
135603,104115
135611,104137
135618,104143
135637,104151
135604,104129
135619,104137
135630,104130
135642,104147
135650,104159
135638,104150
135694,104180
135651,104151
135676,104164
135699,104189
135710,104188
135722,104184
135685,104163
135749,104179
135718,104189
135747,104204
135758,104189
135747,104208
135762,104188
135817,104207
135818,104198
135809,104227
135846,104209
135829,104235
135907,104243
135869,104228
135900,104255
135884,104228
135890,104258
135943,104255
135976,104298
135930,104281
135933,104261
135992,104266
135965,104300
136013,104269
136013,104291
136006,104293
136018,104317
136025,104281
136098,104316
136067,104325
136042,104271
136094,104322
136084,104324
136129,104306
136123,104339
136136,104328
136152,104322
136173,104358
136196,104324
136184,104344
136139,104328
136207,104325
136242,104354
136225,104376
136248,104387
136216,104328
136206,104397
136294,104373
136277,104398
136244,104378
136248,104352
136294,104350
136275,104379
136217,104351
136206,104329
136104,104329
136111,104324
136121,104295
136024,104293
135971,104217
135879,104233
135837,104220
135786,104176
135736,104173
135674,104148
135537,104106
135505,104109
135501,104088
135440,104091
135345,104043
135305,104018
135301,104032
135234,104016
135233,103973
135203,103987
135107,103969
135125,103977
135105,103958
135110,103965
135071,103977
135062,103919
135098,103973
135069,103955
135064,103954
135051,103931
135051,103946
135036,103953
135087,103967
135074,103967
135093,103943
135068,103958
135109,103971
135114,103970
135142,103962
135134,103984
135122,103993
135165,103979
135165,103982
135191,103987
135166,103970
135198,103992
135217,104002
135242,104000
135229,104011
135266,104032
135271,104008
135286,104031
135361,104051
135326,104048
135359,104070
135357,104053
135414,104089
135434,104091
135409,104076
135459,104127
135449,104102
135498,104130
135508,104119
135531,104122
135512,104096
135558,104123
135562,104146
135589,104143
135574,104143
135585,104128
135554,104147
135610,104143
135564,104154
135601,104156
135576,104148
135560,104130
135614,104150
135580,104152
135617,104130
135563,104121
135561,104115
135596,104144
135606,104133
135539,104131
135576,104143
135551,104140
135566,104134
135576,104150
135575,104144
135547,104122
135577,104129
135572,104138
135620,104190
135600,104160
135566,104136
135567,104151
135622,104162
135614,104165
135639,104150
135592,104151
135606,104141
135651,104177
135662,104177
135669,104178
135656,104168
135703,104187
135715,104197
135731,104199
135738,104191
135728,104201
135759,104198
135773,104235
135773,104227
135787,104207
135790,104230
135841,104237
135817,104257
135847,104236
135900,104265
135869,104235
135895,104271
135956,104281
135963,104300
135943,104304
135956,104291
135949,104275
136017,104324
136033,104315
136010,104306
136010,104289
136061,104326
136101,104354
136096,104338
136080,104343
136106,104336
136146,104360
136174,104352
136135,104359
136182,104340
136177,104366
136198,104354
136222,104390
136249,104391
136252,104352
136235,104354
136221,104379
136275,104394
136280,104374
136311,104411
136280,104394
136338,104412
136339,104447
136362,104433
136382,104420
136340,104402
136377,104444
136434,104446
136392,104459
136415,104441
136388,104458
136410,104485
136435,104488
136440,104439
136488,104466
136450,104488
136488,104458
136497,104489
136495,104469
136507,104445
136442,104481
136446,104463
136437,104414
136427,104431
136346,104431
135873,104226
135817,104220
135736,104189
135614,104145
135601,104153
135569,104129
135457,104095
135428,104094
135362,104068
135360,104075
135289,104050
135290,104058
135254,104032
135191,104005
135185,104022
135209,104022
135163,103983
135157,104018
135127,103968
135126,104012
135131,104019
135126,104002
135115,103979
135094,103983
135136,103992
135140,104003
135113,103990
135153,104014
135108,103987
135155,103998
135171,104029
135180,104012
135171,104003
135161,103998
135181,104032
135234,104020
135190,104019
135219,104018
135166,104007
135234,104049
135268,104021
135238,104024
135280,104044
135269,104027
135293,104054
135350,104067
135337,104052
135362,104062
135334,104056
135414,104101
135424,104090
135417,104101
135468,104116
135443,104103
135505,104123
135546,104118
135517,104134
135541,104133
135512,104121
135566,104155
135615,104140
135542,104127
135576,104151
135589,104131
135573,104152
135625,104165
135603,104143
135596,104153
135579,104144
135608,104149
135638,104159
135573,104129
135591,104143
135581,104122
135564,104155
135613,104159
135587,104152
135591,104128
135535,104130
135590,104163
135611,104153
135595,104158
135594,104150
135586,104121
135612,104176
135600,104149
135638,104132
135598,104155
135589,104160
135635,104166
135657,104163
135675,104182
135631,104153
135639,104158
135693,104167
135706,104185
135681,104198
135724,104176
135691,104191
135760,104208
135737,104236
135783,104213
135758,104198
135791,104197
135841,104236
135854,104229
135829,104240
135801,104246
135826,104228
135887,104228
135907,104269
135924,104252
135872,104270
135943,104277
135963,104294
135986,104309
135985,104282
136002,104269
136143,104326
136172,104361
136157,104368
136226,104367
136231,104371
136183,104353
136196,104366
136265,104367
136258,104371
136282,104382
136244,104350
136301,104393
136325,104433
136328,104378
136345,104408
136330,104384
136382,104420
136373,104430
136384,104430
136384,104414
136375,104423
136418,104434
136438,104460
136447,104429
136425,104461
136437,104449
136436,104445
136502,104451
136475,104450
136505,104473
136451,104422
136474,104441
136493,104487
136524,104448
136464,104464
136422,104421
136465,104427
136416,104419
136376,104411
136331,104393
136239,104341
136213,104328
136164,104318
136099,104316
136057,104262
135960,104265
135950,104255
135912,104198
135805,104218
135792,104217
135709,104153
135734,104157
135697,104171
135632,104134
135587,104128
135550,104144
135547,104107
135590,104106
135557,104096
135499,104118
135480,104064
135539,104111
135507,104085
135505,104076
135507,104101
135460,104086
135499,104077
135540,104137
135521,104117
135555,104091
135522,104100
135560,104134
135542,104109
135583,104140
135569,104141
135530,104078
135583,104119
135623,104161
135619,104135
135626,104132
135608,104138
135638,104167
135676,104131
135681,104153
135692,104164
135675,104147
135744,104171
135727,104152
135745,104182
135780,104161
135751,104205
135781,104205
135843,104203
135848,104220
135862,104217
135874,104199
135874,104218
135900,104214
135920,104221
135904,104221
135927,104228
135970,104263
135951,104252
135989,104259
136005,104251
135964,104272
135991,104274
136043,104242
136021,104255
136000,104265
135959,104223
136042,104279
136002,104250
136054,104259
136029,104266
135994,104233
136013,104282
136032,104235
136011,104252
135984,104245
135994,104230
135999,104240
136000,104277
135973,104237
135983,104255
135947,104223
136027,104239
136024,104247
136021,104258
136002,104268
135973,104243
136015,104244
136028,104283
136041,104275
136046,104268
136016,104292
136025,104257
136083,104286
136057,104285
136064,104301
136034,104271
136097,104256
136096,104280
136111,104276
136113,104266
136098,104289
136137,104320
136166,104310
136143,104291
136142,104295
136144,104293
136161,104327
136221,104328
136174,104329
136211,104328
136178,104328
136249,104329
136284,104342
136245,104344
136265,104307
136310,104349
136278,104378
136310,104354
136299,104352
136297,104319
136343,104357
136356,104395
136341,104372
136379,104381
136376,104389
136373,104383
136419,104353
136402,104403
136419,104375
136412,104392
136469,104395
136473,104434
136485,104426
136472,104391
136493,104404
136487,104404
136547,104430
136553,104438
136527,104434
136538,104404
136596,104426
136599,104458
136617,104434
136604,104459
136556,104435
136631,104430
136666,104476
136662,104452
136645,104470
136658,104473
136668,104458
136696,104477
136691,104471
136702,104444
136663,104467
136660,104451
136639,104458
136658,104447
136598,104424
136543,104406
136529,104389
136524,104382
136479,104380
136445,104355
136343,104324
136337,104325
136345,104327
136270,104299
136250,104300
136199,104263
136156,104274
136157,104258
136159,104253
136097,104239
136067,104205
136093,104223
136116,104246
136089,104241
136038,104189
136050,104251
136055,104214
136060,104243
136039,104216
136077,104226
136046,104202
136073,104231
136118,104228
136078,104237
136070,104209
136065,104212
136103,104239
136105,104212
136128,104217
136107,104261
136094,104230
136125,104229
136178,104259
136155,104241
136144,104235
136173,104255
136182,104289
136218,104266
136208,104281
136198,104296
136190,104298
136255,104271
136300,104305
136274,104287
136300,104298
136277,104298
136325,104316
136318,104292
136375,104311
136370,104324
136364,104290
136400,104345
136394,104328
136436,104332
136424,104316
136390,104321
136460,104316
136450,104380
136441,104341
136477,104367
136465,104324
136470,104328
136508,104358
136475,104372
136459,104307
136452,104327
136494,104356
136503,104374
136463,104331
136500,104329
136488,104348
136476,104364
136494,104317
136503,104301
136464,104359
136443,104338
136455,104343
136484,104324
136508,104358
136472,104371
136460,104330
136465,104353
136496,104335
136482,104349
136513,104317
136479,104322
136526,104343
136556,104380
136515,104388
136515,104335
136519,104347
136515,104375
136532,104356
136581,104360
136568,104382
136514,104337
136600,104378
136577,104395
136576,104357
136631,104390
136578,104372
136652,104385
136640,104419
136625,104356
136666,104433
136625,104387
136671,104392
136696,104399
136682,104412
136703,104400
136668,104401
136701,104426
136723,104408
136750,104409
136726,104430
136716,104418
136794,104447
136805,104429
136845,104473
136795,104421
136794,104458
136849,104485
136852,104468
136863,104452
136871,104479
136854,104475
136905,104510
136940,104523
136926,104484
136968,104523
136946,104492
136984,104478
137015,104496
137000,104531
136988,104470
136977,104489
137023,104502
137078,104538
137038,104515
137038,104516
137055,104523
137059,104513
137094,104532
137101,104567
137095,104527
137102,104536
137151,104556
137127,104565
137098,104522
137105,104531
137065,104511
137041,104510
137042,104477
137040,104502
136953,104455
136954,104480
136941,104454
136675,104360
136671,104355
136656,104341
136716,104383
136718,104396
136693,104358
136687,104378
136739,104397
136731,104408
136765,104429
136757,104384
136739,104410
136762,104397
136794,104452
136822,104431
136795,104407
136769,104382
136830,104435
136834,104433
136840,104422
136870,104435
136879,104414
136863,104438
136898,104446
136898,104434
136914,104476
136916,104435
136943,104479
136975,104464
136993,104463
136957,104493
136989,104455
137026,104491
137036,104489
137027,104474
137032,104482
137047,104494
137042,104504
137106,104484
137052,104490
137033,104480
137030,104438
137093,104509
137073,104455
137104,104512
137083,104478
137057,104485
137046,104485
137119,104500
137069,104487
137056,104476
137032,104448
137071,104495
137075,104473
137037,104477
137047,104491
137027,104467
137082,104484
137115,104468
137102,104516
137062,104460
137077,104482
137096,104500
137096,104491
137103,104471
137108,104524
137084,104484
137129,104493
137161,104539
137115,104497
137139,104489
137129,104501
137144,104514
137191,104522
137191,104537
137174,104480
137192,104495
137224,104531
137228,104544
137211,104535
137232,104496
137219,104518
137225,104543
137280,104544
137226,104535
137292,104528
137263,104515
137276,104559
137300,104543
137313,104539
137283,104562
137311,104538
137310,104547
137366,104544
137358,104589
137333,104553
137348,104530
137375,104573
137390,104586
137367,104554
137411,104585
137390,104563
137411,104593
137452,104581
137611,104643
137570,104626
137589,104645
137607,104622
137574,104646
137546,104587
137492,104592
137485,104553
137461,104573
137414,104547
137349,104532
137332,104514
137316,104524
137291,104486
137253,104498
137225,104508
137190,104470
137241,104477
137188,104492
137136,104441
137143,104461
137111,104469
137155,104435
137146,104435
137132,104468
137110,104448
137122,104418
137152,104471
137129,104441
137125,104444
137155,104420
137087,104460
137172,104471
137161,104457
137200,104469
137171,104433
137179,104451
137185,104455
137224,104463
137204,104454
137241,104475
137217,104501
137237,104466
137270,104488
137246,104500
137223,104480
137237,104468
137288,104547
137285,104502
137285,104503
137273,104513
137306,104479
137325,104530
137342,104543
137332,104516
137335,104537
137375,104520
137393,104552
137390,104535
137423,104552
137401,104498
137400,104531
137454,104595
137421,104557
137503,104544
137483,104557
137482,104557
137503,104569
137516,104596
137472,104536
137456,104573
137489,104593
137513,104609
137497,104570
137524,104554
137507,104563
137523,104541
137551,104573
137513,104585
137542,104538
137499,104552
137490,104557
137555,104581
137542,104563
137551,104554
137466,104535
137494,104539
137554,104587
137542,104575
137528,104563
137474,104538
137530,104554
137551,104568
137545,104582
137545,104576
137539,104576
137504,104546
137561,104584
137564,104573
137599,104575
137550,104585
137550,104562
137588,104607
137601,104600
137581,104571
137563,104578
137610,104578
137599,104607
137600,104607
137609,104601
137583,104570
137643,104596
137670,104602
137682,104619
137620,104612
137626,104591
137679,104590
137699,104611
137704,104612
137687,104606
137660,104593
137715,104647
137734,104654
137712,104606
137747,104614
137728,104638
137721,104598
137794,104643
137787,104626
137777,104644
137782,104619
137776,104632
137796,104647
137838,104678
137793,104671
137766,104625
137868,104660
137874,104649
137859,104694
137827,104667
137830,104620
137863,104692
137871,104682
137873,104685
137856,104677
137877,104634
137923,104696
137928,104688
137938,104681
137924,104686
137903,104646
137936,104690
137962,104696
137942,104669
137981,104675
137907,104682
137996,104703
138023,104700
137997,104718
138013,104684
137995,104660
137980,104722
138016,104725
138005,104704
137973,104692
137931,104669
138010,104694
137953,104670
137900,104645
137892,104639
137803,104642
137817,104590
137787,104596
137732,104571
137719,104567
137646,104534
137626,104539
137610,104541
137547,104507
137463,104462
137469,104480
137475,104461
137454,104467
137418,104496
137442,104474
137497,104485
137499,104517
137460,104466
137475,104475
137485,104517
137502,104483
137516,104484
137517,104487
137503,104479
137500,104484
137567,104517
137565,104512
137512,104495
137502,104473
137540,104525
137594,104530
137555,104502
137542,104483
137573,104530
137569,104498
137623,104511
137583,104491
137619,104506
137588,104550
137646,104521
137639,104550
137658,104560
137622,104531
137627,104516
137685,104549
137713,104550
137671,104527
137653,104558
137668,104528
137699,104551
137699,104580
137700,104578
137679,104534
137708,104546
137733,104551
137725,104556
137689,104554
137691,104519
137682,104550
137720,104565
137722,104549
137719,104548
137688,104566
137661,104508
137729,104542
137749,104552
137685,104562
137659,104509
137703,104515
137711,104545
137705,104537
137719,104552
137655,104537
137660,104497
137723,104540
137707,104531
137715,104542
137679,104520
137656,104558
137707,104544
137708,104540
137703,104515
137680,104543
137699,104507
137725,104558
137715,104528
137754,104517
137723,104534
137689,104545
137748,104553
137782,104522
137759,104560
137712,104551
137741,104536
137752,104558
137784,104511
137792,104568
137726,104544
137790,104533
137812,104546
137814,104557
137825,104545
137768,104524
137818,104574
137833,104566
137825,104572
137827,104578
137834,104570
137829,104555
137877,104583
137854,104581
137863,104590
137870,104569
137849,104570
137921,104574
137870,104577
137912,104582
137902,104554
137905,104571
137923,104577
137950,104615
137908,104600
137905,104583
137944,104596
137957,104607
137972,104621
137970,104590
137950,104556
137973,104611
137984,104612
137976,104587
138016,104622
137980,104627
137984,104603
138067,104617
138031,104613
138034,104638
138012,104585
138020,104651
138032,104647
138060,104664
138055,104620
138058,104620
138020,104619
138096,104612
138051,104597
138085,104602
138005,104626
138064,104619
138027,104592
138020,104586
137968,104573
137867,104553
137929,104539
137828,104537
137833,104539
137773,104509
137703,104451
137704,104479
137665,104460
137613,104441
137591,104405
137568,104401
137545,104413
137526,104415
137519,104423
137513,104399
137426,104391
137484,104384
137449,104403
137480,104396
137469,104398
137532,104405
137527,104396
137521,104374
137545,104405
137569,104425
137583,104412
137582,104403
137574,104429
137537,104410
137613,104439
137601,104442
137653,104412
137627,104421
137593,104415
137659,104432
137704,104464
137637,104420
137680,104432
137652,104429
137675,104429
137723,104469
137664,104417
137669,104432
137651,104425
137683,104434
137715,104454
137675,104468
137667,104436
137641,104437
137665,104463
137684,104416
137686,104424
137648,104417
137663,104435
137689,104416
137663,104445
137615,104408
137651,104403
137644,104441
137634,104417
137686,104433
137682,104428
137613,104413
137594,104381
137666,104428
137686,104407
137625,104414
137615,104371
137668,104401
137651,104412
137646,104388
137696,104403
137651,104422
137710,104438
137735,104447
137718,104437
137706,104412
137719,104444
137751,104405
137761,104422
137746,104433
137733,104405
137813,104451
137770,104428
137762,104451
137784,104448
137779,104436
137827,104470
137816,104461
137823,104439
137803,104446
137806,104438
137860,104471
137861,104472
137865,104449
137814,104454
137809,104416
137875,104456
137878,104479
137871,104480
137854,104467
137883,104470
137901,104500
137868,104429
137910,104463
137921,104460
137887,104493
137902,104468
137950,104477
137903,104486
137899,104454
137931,104503
137948,104481
137951,104500
137976,104470
137920,104500
137953,104461
137951,104470
138002,104525
137979,104487
137960,104455
138010,104498
138006,104505
137965,104464
137956,104466
137933,104447
137920,104478
137877,104451
137860,104428
137803,104419
137752,104388
137741,104405
137746,104401
137671,104330
137633,104346
137578,104334
137573,104318
137531,104288
137510,104301
137457,104312
137374,104259
137393,104280
137399,104246
137352,104253
137318,104219
137342,104220
137311,104253
137354,104224
137291,104247
137253,104220
137258,104188
137274,104235
137282,104224
137294,104250
137271,104200
137253,104155
137269,104206
137277,104252
137269,104195
137273,104188
137215,104225
137268,104236
137337,104222
137343,104241
137340,104249
137356,104224
137370,104226
137400,104276
137428,104232
137399,104242
137435,104242
137405,104256
137453,104266
137480,104221
137444,104241
137500,104275
137482,104277
137446,104259
137423,104219
137461,104256
137479,104249
137448,104267
137475,104253
137415,104225
137432,104224
137467,104256
137437,104253
137456,104243
137425,104250
137423,104242
137436,104247
137477,104248
137455,104215
137473,104247
137424,104206
137498,104256
137489,104260
137475,104258
137499,104235
137473,104272
137482,104237
137506,104262
137502,104263
137508,104261
137462,104256
137528,104244
137533,104226
137561,104263
137478,104279
137513,104238
137531,104281
137552,104262
137555,104277
137538,104265
137493,104225
137591,104247
137554,104262
137587,104262
137558,104241
137592,104265
137601,104307
137584,104254
137570,104255
137614,104256
137600,104288
137599,104294
137606,104270
137653,104290
137629,104283
137608,104291
137687,104297
137643,104288
137685,104317
137669,104286
137665,104314
137690,104289
137711,104321
137687,104304
137676,104286
137712,104292
137742,104340
137739,104310
137737,104307
137735,104314
137741,104315
137804,104315
137776,104326
137784,104330
137734,104318
137779,104351
137804,104345
137818,104325
137805,104333
137793,104316
137745,104326
137825,104344
137777,104325
137778,104309
137729,104310
137693,104275
137734,104270
137659,104287
137602,104261
137588,104243
137519,104236
137513,104211
137446,104191
137387,104155
137363,104163
137294,104134
137306,104133
137223,104113
137171,104095
137151,104068
137118,104049
137106,104082
137072,104050
137047,104070
136981,104002
137000,104026
137008,104021
136980,104029
136947,104032
136906,103982
136890,104005
136963,104033
136944,104013
136928,103984
136886,104000
136888,103998
136912,104000
136888,103987
136878,104008
136854,104008
136823,103987
136894,103987
136880,104013
136875,103972
136836,103962
136873,104002
136914,103986
136875,104014
136894,103992
136889,103975
136897,103997
136908,104012
136911,104019
136896,104006
136864,103997
136901,104006
136957,103991
136979,104014
136948,104002
136936,103989
136949,104028
136967,104014
136972,104036
136981,104022
136926,103980
136986,104032
137053,104048
137011,104068
136986,104025
136987,104017
137004,104039
137015,104052
137004,104023
137054,104013
136975,104047
137009,104023
137047,104019
137004,104012
137011,104029
136931,103974
136967,103986
136995,103996
136980,103978
136936,104020
136899,103996
136914,104019
136983,103986
136928,103994
136928,103979
136897,103999
136918,103993
136915,103981
136925,103955
136938,103987
136870,103974
136915,103974
136933,103946
136917,103977
136927,104001
136871,103949
136926,103964
136935,103970
136945,103993
136861,103977
136864,103931
136910,103961
136882,103983
136891,103970
136881,103987
136845,103953
136940,103960
136899,103972
136896,103971
136944,103958
136903,103972
136905,103974
136954,103964
136937,103998
136925,103965
136910,103989
136925,103965
136977,103977
136965,103994
136972,103997
136921,103963
137009,104013
136968,103994
136988,103985
136997,103995
136934,103966
137008,103992
137022,104010
137025,104006
137021,104007
136981,103969
137031,104004
137081,104010
137034,104036
137033,103970
137066,104000
137076,104045
137076,104012
137090,104031
137083,104001
137094,104014
137138,104056
137107,104032
137115,104042
137140,104027
137129,104050
137130,104034
137184,104029
137141,104059
137170,104036
137150,104048
137151,104063
137193,104047
137148,104046
137181,104050
137167,104043
137146,104037
137165,104020
137185,104046
137075,104036
137058,103990
137073,104007
137046,104007
136947,103972
136873,103906
136847,103895
136787,103910
136771,103893
136677,103867
136606,103851
136525,103800
136487,103760
136485,103770
136393,103776
136325,103763
136244,103708
136244,103686
136263,103723
136155,103696
136144,103655
136105,103651
136078,103653
136073,103660
136013,103631
136000,103600
135983,103638
135976,103656
135983,103603
135975,103595
135917,103632
135920,103580
135952,103622
135953,103613
135960,103632
135878,103582
135900,103551
135930,103611
135899,103578
135906,103602
135874,103568
135906,103593
135906,103622
135922,103581
135884,103608
135925,103586
135902,103586
135969,103583
135933,103631
135913,103595
135939,103619
135916,103632
135965,103622
135964,103593
135975,103607
135966,103584
135997,103617
136039,103627
136012,103633
136001,103654
136000,103574
136001,103622
136042,103647
135989,103643
136031,103609
135998,103626
135989,103602
136029,103615
135899,103556
135864,103589
135917,103569
135944,103582
135858,103582
135902,103548
135826,103579
135861,103547
135904,103570
135859,103585
135868,103555
135851,103592
135845,103545
135892,103569
135899,103563
135844,103603
135872,103554
135872,103562
135920,103593
135909,103587
135855,103554
135887,103572
135889,103569
135869,103602
135895,103572
135917,103592
135902,103578
135892,103606
135932,103567
135961,103598
135910,103592
135926,103582
135929,103613
135949,103599
135969,103609
135978,103588
135977,103613
135995,103603
136000,103606
135995,103635
135987,103583
136014,103591
136043,103653
136026,103630
136036,103644
136025,103619
136017,103590
136061,103646
136067,103620
136108,103628
136101,103633
136047,103646
136087,103653
136160,103672
136116,103692
136153,103631
136138,103647
136158,103701
136171,103692
136176,103670
136206,103661
136165,103656
136223,103698
136204,103676
136251,103697
136228,103683
136246,103712
136248,103727
136290,103707
136285,103703
136289,103719
136250,103710
136253,103707
136284,103727
136249,103691
136234,103718
136167,103674
136211,103673
136152,103694
136083,103644
136034,103602
135947,103585
135946,103573
135835,103549
135806,103541
135704,103477
135633,103475
135607,103465
135504,103432
135463,103405
135372,103391
135304,103349
135277,103352
135235,103351
135157,103316
135119,103292
135043,103269
135050,103288
135040,103267
134953,103247
134966,103258
134924,103234
134926,103246
134908,103236
