11111,11111
0,0
82275,82227
111365,112414
111321,112412
111322,112368
111255,112360
111295,112357
111342,112393
111333,112427
111299,112402
111283,112401
111323,112378
111427,112420
111408,112447
111412,112417
111362,112405
111434,112421
111537,112462
111531,112484
111581,112480
111589,112495
111633,112508
111668,112549
111713,112557
111736,112568
111700,112534
111752,112582
111801,112597
111801,112600
111805,112587
111773,112586
111772,112592
111861,112618
111871,112637
111827,112608
111800,112609
111860,112625
111901,112649
111929,112656
111897,112626
111843,112610
111898,112637
111948,112615
111905,112625
111845,112594
111738,112540
111733,112551
111649,112480
111493,112416
111365,112349
111134,112243
111120,112212
111003,112145
110864,112058
110726,112028
110557,111934
110508,111888
110456,111892
110350,111834
110261,111771
110216,111756
110164,111738
110149,111706
110120,111736
110058,111711
110019,111692
110044,111704
110048,111684
110063,111722
109978,111727
109983,111656
110027,111707
110070,111735
110070,111732
110055,111728
110061,111747
110165,111788
110191,111803
110221,111797
110254,111816
110218,111836
110277,111821
110380,111869
110350,111918
110369,111864
110392,111886
110454,111923
110488,111937
110529,111977
110508,111952
110492,111950
110565,111976
110585,111961
110581,112013
110561,111981
110576,111987
110581,111978
110600,112007
110611,112018
110551,112013
110542,111965
110607,112008
110649,111990
110642,111997
110610,112010
110590,112029
110645,112023
110663,112041
110645,112041
110664,112035
110627,111997
110658,112035
110696,112041
110696,112026
110619,112030
110577,111965
110628,112008
110601,111971
110605,112003
110511,111944
110498,111941
110500,111930
110531,111964
110477,111908
110427,111906
110559,111970
111180,112266
111191,112270
111680,112446
111695,112460
111675,112447
111727,112469
111718,112453
111716,112462
111711,112465
111785,112468
111856,112534
111866,112533
111878,112556
111834,112508
111857,112497
111886,112515
111943,112542
111944,112540
111902,112517
111872,112499
111896,112494
111956,112563
111887,112525
111852,112491
111757,112464
111707,112408
111667,112405
111550,112338
111389,112228
111172,112149
111105,112086
111003,112055
110854,111982
110700,111891
110521,111814
110429,111770
110359,111722
110307,111695
110147,111653
110078,111564
110025,111553
109981,111564
109948,111517
109907,111482
109736,111476
109786,111452
109826,111485
109743,111445
109741,111443
109659,111424
109753,111477
109788,111463
109767,111465
109777,111451
109783,111460
109855,111490
109928,111548
109966,111562
109965,111571
109928,111552
110064,111623
110106,111649
110146,111684
110138,111621
110154,111683
110219,111705
110296,111731
110331,111738
110275,111756
110273,111727
110342,111750
110377,111783
110392,111762
110349,111772
110382,111792
110469,111773
110500,111829
110523,111846
110520,111862
110495,111843
110597,111853
110649,111925
110630,111890
110642,111879
110614,111884
110684,111937
110687,111947
110730,111946
110692,111916
110676,111923
110753,111934
110808,111975
110748,111935
110752,111936
110700,111954
110749,111942
110777,111939
110787,111956
110677,111913
110702,111929
110738,111904
110698,111931
110693,111888
110632,111875
110579,111871
110626,111866
110651,111875
110596,111835
110558,111823
110513,111819
110556,111829
110583,111835
110562,111853
110539,111825
110556,111822
110654,111854
110667,111899
110651,111861
110665,111886
110677,111891
110757,111916
110799,111940
110796,111942
110810,111966
110802,111942
110883,111989
110922,112038
110923,112001
110961,112018
110957,112058
111046,112074
111097,112086
111110,112082
111130,112121
111112,112131
111177,112125
111246,112165
111268,112197
111221,112167
111200,112175
111265,112165
111353,112204
111324,112215
111285,112184
111289,112208
111351,112202
111354,112232
111374,112231
111337,112199
111359,112204
111407,112262
111439,112250
111468,112271
111400,112226
111423,112270
111478,112271
111575,112280
111538,112324
111471,112262
111530,112271
111596,112303
111606,112337
111584,112305
111542,112251
111546,112323
111567,112288
111591,112321
111567,112347
111528,112279
111546,112280
111583,112325
111599,112309
111556,112293
111516,112272
111499,112279
111560,112286
111595,112305
111551,112318
111514,112266
111521,112298
111601,112332
111603,112305
111618,112331
111550,112270
111601,112313
111650,112347
111711,112348
111674,112349
111617,112305
111678,112310
111697,112360
111736,112358
111736,112340
111683,112347
111687,112320
111794,112376
111792,112381
111769,112361
111709,112349
111746,112366
111811,112384
111836,112360
111826,112418
111771,112342
111869,112421
111943,112424
111938,112451
111908,112424
111908,112397
111939,112453
112021,112475
112033,112466
112069,112491
111998,112483
112048,112508
112106,112494
112162,112534
112124,112509
112096,112482
112135,112530
112212,112563
112210,112543
112188,112559
112145,112536
112177,112544
112277,112581
112202,112568
112185,112544
112061,112488
112049,112485
111978,112452
111929,112400
111732,112319
111545,112229
111426,112165
111297,112100
111119,111993
111017,111953
110776,111840
110673,111788
110590,111762
110441,111679
110356,111658
110180,111586
110160,111573
110144,111562
110064,111516
110025,111500
109915,111425
109949,111469
109974,111504
109926,111432
109869,111444
109878,111417
109874,111415
109980,111453
109926,111480
109908,111474
109895,111449
109989,111481
110011,111516
109992,111478
110004,111510
109993,111502
110036,111513
110121,111550
110099,111568
110110,111548
110085,111521
110152,111586
110185,111562
110161,111623
110158,111586
110121,111579
110170,111607
110223,111627
110238,111625
110200,111622
110146,111564
110237,111625
110266,111638
110274,111622
110249,111634
110193,111581
110282,111649
110312,111660
110311,111670
110320,111674
110300,111635
110321,111679
110391,111678
110354,111689
110297,111674
110282,111651
110280,111649
110333,111626
110278,111651
110236,111630
110192,111610
110173,111601
110187,111616
110182,111558
110140,111562
110066,111520
110071,111551
110120,111546
110108,111529
110058,111521
110003,111473
110068,111527
110094,111519
110062,111483
110040,111492
109975,111494
110035,111504
110050,111531
110059,111511
110022,111490
110016,111483
110048,111553
110077,111524
110107,111544
110099,111540
110061,111550
110129,111537
110136,111570
110182,111567
110114,111585
110099,111543
110195,111586
110257,111605
110214,111623
110248,111587
110268,111619
110325,111632
110396,111694
110395,111695
110380,111667
110398,111685
110479,111742
110558,111747
110559,111733
110546,111754
110567,111765
110601,111812
110669,111806
110653,111824
110611,111805
110622,111770
110687,111817
110759,111860
110715,111821
110669,111824
110715,111836
110742,111845
110777,111849
110824,111890
110765,111850
110779,111853
110894,111901
110880,111908
110910,111903
110880,111892
110881,111887
110958,111932
110961,111954
110984,111933
110923,111913
110901,111905
110992,111963
111000,111962
110984,111944
110930,111928
110973,111936
110978,111905
111061,111984
111024,111944
110991,111938
111002,111926
111017,111970
111003,111940
111026,111959
110942,111924
110944,111918
110990,111977
111005,111956
110946,111925
110907,111900
110926,111917
110990,111941
111001,111943
110949,111931
110945,111892
110965,111907
111047,111932
111068,111971
111089,111978
111070,111960
111069,111977
111174,112016
111217,112015
111236,112039
111172,112019
111230,112031
111297,112052
111341,112080
111353,112093
111268,112060
111305,112113
111354,112100
111436,112096
111392,112136
111352,112089
111379,112073
111474,112129
111456,112178
111461,112112
111445,112119
111520,112171
111545,112203
111575,112165
111616,112222
111555,112176
111638,112203
111693,112219
111729,112248
111691,112208
111664,112224
111731,112260
111734,112250
111746,112244
111677,112197
111561,112162
111542,112168
111494,112128
111419,112057
111268,111972
111113,111924
111014,111884
110968,111847
110831,111783
110764,111742
110565,111654
110499,111648
110429,111595
110395,111546
110256,111488
110205,111458
110173,111464
110181,111465
110150,111474
110104,111408
110019,111402
110053,111437
110057,111412
110088,111457
110024,111418
110026,111414
110053,111415
110131,111461
110121,111491
110161,111471
110099,111465
110168,111484
110229,111521
110290,111541
110257,111523
110238,111529
110316,111556
110330,111572
110360,111586
110361,111559
110347,111583
110387,111613
110480,111640
110416,111648
110440,111619
110420,111626
110526,111677
110551,111698
110542,111666
110565,111694
110489,111695
110496,111669
110545,111674
110589,111703
110501,111663
110478,111643
110519,111706
110576,111699
110566,111707
110577,111684
110550,111709
110563,111681
110626,111724
110646,111734
110635,111694
110616,111705
110601,111736
110673,111715
110650,111732
110610,111721
110526,111666
110559,111698
110592,111691
110546,111678
110461,111611
110443,111607
110465,111661
110451,111659
110396,111598
110398,111599
110337,111605
110371,111587
110421,111592
110413,111585
110386,111598
110310,111568
110411,111598
110455,111597
110431,111625
110421,111608
110458,111647
110497,111641
110592,111674
110560,111711
110571,111691
110571,111704
110659,111773
110725,111769
110768,111765
110747,111777
110778,111774
110839,111820
110900,111863
110958,111858
110938,111881
110946,111884
111046,111899
111081,111917
111145,111982
111078,111935
111102,111936
111187,111981
111253,111998
111255,112033
111250,112009
111227,111993
111309,112058
111348,112070
111349,112045
111317,112038
111287,112048
111382,112064
111421,112083
111390,112089
111396,112062
111359,112071
111463,112121
111451,112118
111493,112104
111451,112099
111461,112095
111527,112126
111554,112124
111602,112175
111564,112126
111586,112131
111666,112172
111674,112177
111711,112207
111652,112182
111673,112172
111758,112211
111752,112229
111705,112164
111735,112201
111690,112228
111763,112215
111800,112217
111813,112272
111743,112198
111755,112228
111815,112221
111827,112244
111811,112254
111782,112222
111749,112219
111843,112263
111858,112267
111844,112239
111776,112218
111817,112244
111819,112255
111843,112235
111852,112271
111792,112244
111770,112206
111846,112246
111872,112241
111833,112267
111790,112197
111806,112250
111885,112277
111853,112270
111845,112257
111817,112227
111858,112249
111894,112263
111916,112284
111956,112286
111915,112288
111943,112307
112060,112302
112058,112351
112063,112376
112027,112329
112125,112382
112167,112380
112212,112412
112207,112427
112212,112449
112255,112440
112338,112489
112384,112511
112362,112456
112314,112471
112345,112502
112423,112501
112452,112524
112426,112518
112385,112490
112433,112499
112495,112530
112503,112546
112476,112507
112448,112518
112407,112537
112469,112535
112485,112548
112399,112496
112341,112453
112268,112460
112253,112410
112198,112402
112072,112321
111865,112241
111731,112170
111635,112115
111432,112042
111263,111927
111073,111851
111013,111789
110958,111798
110792,111712
110658,111599
110535,111573
110471,111551
110483,111542
110399,111538
110335,111478
110284,111445
110261,111460
110269,111481
110275,111457
110265,111455
110201,111425
110248,111486
110339,111501
110318,111509
110364,111504
110336,111483
110430,111514
110479,111598
110535,111617
110521,111576
110533,111621
110629,111656
110671,111706
110699,111676
110763,111738
110758,111731
110858,111761
110944,111830
110931,111833
110990,111819
110962,111869
111027,111878
111154,111933
111123,111958
111138,111919
111116,111939
111149,111918
111192,111984
111229,111966
111160,111941
111115,111947
111195,111938
111204,111972
111185,111981
111166,111956
111160,111948
111215,112014
111264,111974
111239,112010
111251,112001
111217,111999
111284,111993
111332,112042
111301,112044
111302,112015
111250,112004
111269,112023
111255,112010
111258,111972
111217,112005
111180,111941
111204,111958
111217,111960
111158,111956
111121,111909
111047,111917
111087,111872
111086,111895
111042,111888
110961,111857
110913,111824
110915,111855
110953,111831
110943,111814
110850,111758
110858,111802
110882,111787
110918,111813
110913,111778
110878,111846
110870,111805
110937,111813
111011,111876
110957,111874
110999,111839
110995,111874
111049,111916
111093,111899
111139,111939
111129,111914
111140,111928
111241,111968
111290,112012
111278,112004
111272,111995
111325,111994
111379,112049
111418,112079
111422,112054
111404,112062
111378,112089
111446,112043
111520,112112
111500,112106
111499,112126
111458,112081
111567,112127
111603,112146
111619,112154
111587,112118
111593,112156
111665,112186
111684,112232
111690,112155
111678,112167
111667,112150
111688,112177
111742,112230
111706,112168
111682,112189
111671,112152
111691,112213
111709,112203
111733,112199
111643,112187
111629,112156
111683,112178
111693,112189
111698,112177
111622,112146
111626,112140
111676,112177
111739,112170
111683,112195
111647,112184
111634,112135
111735,112187
111717,112186
111693,112157
111663,112164
111669,112158
111713,112197
111736,112193
111752,112180
111700,112152
111679,112160
111752,112214
111750,112206
111821,112207
111709,112197
111751,112175
111835,112209
111862,112210
111905,112231
111832,112219
111865,112205
111945,112259
111975,112276
111972,112244
111987,112274
111959,112303
112053,112299
112073,112308
112070,112304
112023,112285
112025,112324
112095,112312
112144,112317
112121,112333
112055,112314
112127,112327
112145,112313
112191,112367
112146,112353
112117,112339
112159,112350
112215,112366
112252,112374
112255,112393
112216,112377
112263,112401
112334,112412
112302,112406
112336,112415
112306,112400
112332,112421
112416,112459
112417,112437
112397,112440
112385,112430
112436,112459
112487,112482
112504,112480
112520,112505
112475,112471
112496,112493
112567,112518
112576,112515
112537,112501
112536,112501
112518,112498
112614,112539
112552,112518
112539,112477
112457,112459
112517,112494
112494,112465
112477,112447
112384,112467
112287,112377
112170,112353
112106,112285
112007,112225
111822,112159
111614,112065
111507,111968
111404,111937
111305,111867
111140,111813
110984,111727
110904,111694
110814,111645
110737,111596
110612,111569
110498,111508
110534,111476
110477,111494
110455,111465
110406,111485
110361,111424
110374,111437
110382,111467
110397,111464
110394,111458
110331,111436
110403,111481
110421,111457
110469,111500
110416,111509
110393,111468
110476,111529
110518,111521
110542,111542
110481,111530
110457,111512
110513,111548
110609,111592
110570,111574
110593,111552
110542,111553
110585,111600
110664,111591
110630,111600
110609,111592
110570,111565
110630,111628
110680,111583
110657,111617
110655,111594
110646,111600
110649,111643
110704,111621
110723,111633
110714,111650
110696,111600
110695,111657
110757,111664
110733,111642
110742,111669
110687,111614
110687,111641
110784,111670
110754,111651
110733,111654
110648,111622
110688,111608
110681,111645
110678,111611
110623,111583
110585,111555
110582,111581
110624,111571
110574,111544
110518,111541
110476,111482
110514,111548
110495,111500
110522,111488
110448,111453
110378,111423
110409,111465
110440,111491
110415,111448
110364,111446
110352,111441
110410,111438
110415,111484
110366,111416
110410,111456
110372,111439
110416,111464
110500,111501
110498,111507
110413,111461
110449,111458
110503,111527
110568,111501
110562,111554
110590,111539
110573,111570
110630,111548
110715,111605
110714,111631
110723,111608
110738,111642
110813,111639
110848,111706
110892,111698
110878,111712
110876,111729
110957,111720
111050,111771
111036,111803
111022,111745
111059,111764
111100,111830
111139,111820
111175,111810
111141,111852
111148,111835
111213,111861
111283,111883
111294,111885
111234,111847
111285,111881
111321,111913
111363,111930
111329,111903
111312,111891
111306,111925
111349,111878
111384,111934
111383,111925
111326,111892
111370,111922
111409,111931
111460,111958
111423,111940
111361,111945
111408,111932
111471,111966
111495,111992
111474,111941
111432,111964
111474,111974
111550,111981
111564,112031
111542,111994
111531,111956
111503,111991
111564,112015
111590,112031
111539,111982
111506,111993
111489,111985
111526,111970
111539,111979
111544,111981
111461,111962
111487,111980
111507,111949
111557,111998
111519,111999
111491,111945
111502,111959
111570,111994
111580,112010
111573,112000
111511,111958
111567,112022
111636,112019
111644,112044
111599,112013
111577,112002
111625,112023
111678,112070
111680,112045
111719,112038
111654,112057
111689,112053
111743,112060
111793,112101
111743,112080
111740,112064
111777,112091
111834,112118
111881,112086
111878,112113
111829,112125
111847,112120
111949,112144
111980,112157
111990,112149
111932,112135
112040,112174
112062,112230
112099,112200
112093,112202
112079,112212
112141,112231
112183,112241
112212,112270
112173,112263
112147,112224
112220,112271
112266,112281
112257,112269
112205,112247
112200,112261
112229,112295
112205,112247
112188,112228
112092,112217
111947,112141
111890,112081
111809,112068
111659,111984
111553,111926
111292,111803
111209,111722
111206,111753
111080,111677
110931,111622
110787,111532
110701,111493
110722,111500
110621,111474
110560,111440
110490,111403
110470,111381
110486,111380
110492,111401
110477,111392
110426,111382
110465,111393
110491,111396
110551,111416
110506,111443
110484,111388
110570,111465
110638,111471
110649,111491
110708,111542
110641,111525
110721,111535
110824,111584
110870,111596
110860,111619
110846,111585
110947,111638
110985,111659
111035,111660
110966,111672
110958,111672
111016,111671
111045,111734
111038,111695
111020,111666
110999,111670
111048,111703
111023,111682
111047,111675
111051,111697
111004,111662
111071,111717
111156,111737
111146,111751
111126,111707
111147,111760
111210,111765
111296,111808
111266,111824
111283,111787
111266,111837
111304,111812
111381,111866
111369,111824
111346,111818
111289,111833
111294,111804
111339,111848
111298,111802
111278,111802
111197,111769
111268,111767
111226,111781
111201,111726
111151,111741
111115,111725
111167,111739
111172,111730
111141,111708
111088,111733
111045,111689
111094,111684
111097,111717
111088,111663
111050,111696
110987,111641
111061,111671
111136,111706
111088,111716
111069,111672
111041,111708
111078,111692
111175,111741
111175,111740
111176,111743
111166,111739
111219,111769
111297,111817
111291,111793
111331,111829
111315,111813
111371,111849
111459,111863
111422,111870
111428,111874
111443,111891
111509,111908
111609,111950
111570,111928
111544,111880
111543,111917
111637,111969
111700,111941
111685,111977
111627,111970
111641,111959
111698,111954
111757,112005
111729,112015
111713,111980
111705,112002
111754,112012
111810,112054
111785,112036
111771,112027
111790,112041
111817,112054
111878,112070
111862,112049
111867,112060
111868,112078
111902,112071
111993,112114
111935,112103
111901,112057
111898,112067
111986,112135
111978,112097
111971,112079
111939,112105
111955,112127
111983,112107
112028,112117
112016,112132
111945,112048
111999,112081
112059,112139
112003,112092
112013,112125
111950,112072
111955,112101
111988,112109
112018,112138
112004,112094
111932,112085
111973,112119
111969,112136
112029,112118
112021,112122
111961,112119
111980,112102
112044,112135
112046,112105
112058,112136
112015,112138
112034,112126
112069,112115
112101,112132
112074,112145
111976,112085
112033,112106
112053,112145
112091,112149
112083,112135
111998,112116
112053,112138
112077,112140
112099,112161
112123,112147
112025,112130
112110,112179
112152,112181
112169,112190
112180,112194
112094,112146
112191,112196
112238,112222
112253,112210
112279,112234
112201,112209
112287,112240
112333,112265
112333,112248
112331,112267
112296,112229
112350,112262
112362,112301
112380,112255
112420,112273
112366,112287
112399,112284
112473,112271
112512,112312
112477,112342
112423,112274
112471,112300
112526,112362
112495,112327
112509,112287
112389,112304
112385,112284
112372,112260
112314,112220
112138,112166
111988,112046
111856,111990
111706,111930
111544,111858
111344,111762
111168,111696
111060,111620
110970,111548
110810,111488
110707,111422
110534,111379
110486,111329
110530,111342
110449,111317
110417,111308
110330,111233
110357,111264
110351,111287
110379,111296
110381,111274
110313,111279
110345,111278
110379,111316
110396,111300
110378,111290
110316,111277
110357,111280
110457,111329
110455,111322
110436,111351
110387,111335
110465,111329
110562,111362
110574,111400
110510,111404
110541,111392
110606,111418
110708,111486
110710,111450
110752,111491
110712,111458
110794,111500
110826,111548
110827,111513
110844,111515
110773,111525
110830,111501
110873,111515
110874,111538
110813,111534
110789,111504
110832,111542
110856,111525
110867,111537
110869,111544
110821,111526
110909,111582
110956,111609
110987,111598
110994,111580
110967,111601
111000,111624
111086,111625
111081,111642
111040,111639
111012,111621
111047,111603
111103,111652
111053,111613
111000,111602
110941,111576
111014,111600
111000,111598
110969,111556
110947,111593
110890,111542
110928,111566
110944,111558
110905,111570
110885,111508
110871,111511
110888,111558
110894,111558
110866,111538
110863,111496
110823,111529
110884,111524
110946,111561
110948,111561
110916,111561
110902,111579
110946,111563
111077,111613
111061,111603
111076,111632
111086,111652
111134,111677
111227,111703
111250,111740
111246,111710
111250,111731
111357,111746
111404,111766
111390,111789
111428,111759
111406,111784
111517,111830
111532,111849
111552,111840
111526,111847
111531,111865
111588,111881
111654,111894
111615,111892
111684,111889
111644,111925
111697,111905
111785,111951
111758,111961
111765,111950
111756,111977
111817,111955
111887,112015
111850,111989
111886,112009
111848,111984
111930,112011
111949,112063
111955,112032
111940,112051
111959,112041
112010,112066
112062,112078
112055,112095
112027,112043
112045,112081
112056,112092
112108,112138
112068,112094
112041,112059
112028,112079
112066,112073
112132,112131
112060,112093
112025,112065
111990,112056
112076,112053
112042,112072
112031,112056
111962,112013
111967,112050
111957,112069
112000,112037
111981,112066
111899,112024
111895,112006
111932,112045
111978,112049
111961,112042
111886,111997
111901,112024
111974,112041
111974,112059
111984,112043
111894,112045
111951,112009
111993,112062
111986,112052
111998,112029
111925,112049
111958,112028
112012,112058
112057,112078
112027,112078
112035,112079
112024,112099
112086,112079
112102,112101
112126,112102
112050,112075
112126,112116
112237,112169
112210,112116
112204,112140
112123,112146
112164,112118
112217,112169
112242,112143
112266,112149
112200,112130
112251,112162
112291,112202
112343,112175
112312,112185
112248,112147
112296,112200
112375,112224
112394,112237
112399,112184
112400,112222
112417,112227
112474,112220
112531,112270
112525,112262
112454,112242
112534,112256
112597,112314
112607,112296
112615,112305
112556,112273
112649,112333
112645,112361
112697,112334
112659,112351
112639,112306
112703,112367
112740,112343
112781,112388
112747,112382
112703,112354
112732,112362
112800,112400
112818,112423
112752,112364
112735,112361
112735,112357
112793,112389
112686,112321
112569,112321
112463,112230
112372,112177
112311,112142
112153,112045
111985,112001
111744,111858
111678,111835
111509,111776
111382,111709
111269,111627
111077,111523
111018,111502
110922,111488
110851,111413
110732,111372
110626,111350
110587,111295
110606,111305
110551,111314
110529,111266
110456,111243
110494,111262
110566,111299
110494,111287
110503,111299
110454,111300
110558,111310
110606,111357
110591,111328
110606,111315
110574,111352
110643,111355
110708,111399
110694,111401
110721,111373
110643,111401
110707,111387
110776,111445
110774,111462
110762,111410
110732,111412
110787,111407
110859,111496
110839,111422
110809,111438
110760,111430
110775,111434
110846,111430
110808,111452
110770,111402
110718,111418
110752,111420
110787,111453
110804,111433
110812,111418
110767,111435
110841,111470
110913,111504
110880,111491
110868,111454
110940,111514
110941,111514
111010,111548
111014,111546
111029,111537
111027,111558
111058,111577
111129,111596
111099,111574
111049,111563
111011,111575
111027,111562
111090,111555
111040,111560
110965,111527
110922,111489
110950,111529
110963,111526
110907,111499
110875,111458
110869,111477
110864,111492
110914,111468
110917,111498
110856,111479
110841,111457
110909,111493
110958,111518
110955,111504
110935,111505
110892,111488
110992,111496
111028,111531
111021,111538
111019,111563
110973,111500
111044,111543
111122,111583
111088,111592
111091,111597
111078,111593
111150,111653
111209,111633
111245,111648
111223,111596
111247,111691
111307,111702
111363,111700
111382,111695
111388,111698
111361,111707
111468,111755
111527,111768
111530,111792
111459,111764
111443,111742
111543,111791
111582,111828
111560,111832
111509,111775
111547,111802
111603,111822
111621,111828
111634,111803
111595,111819
111604,111813
111694,111850
111733,111878
111737,111868
111699,111863
111682,111858
111808,111904
111811,111940
111821,111902
111783,111898
111813,111922
111842,111957
111912,111952
111895,111968
111814,111923
111837,111949
111900,111946
111935,111968
111910,111948
111902,111965
111903,111936
111943,111996
111965,111998
111923,111967
111900,111945
111906,111939
111986,111964
111973,112003
111979,111988
111916,111965
111951,111981
112024,112009
112053,112027
112012,112023
111993,112007
112000,111993
112024,112004
112086,112035
112078,112026
112015,111998
112059,112044
112123,112039
112103,112053
112135,112051
112076,112013
112061,112032
112148,112089
112159,112058
112124,112044
112080,112038
112136,112048
112168,112072
112202,112048
112202,112044
112125,112071
112197,112066
112260,112107
112253,112065
112258,112113
112184,112064
112257,112131
112281,112126
112303,112120
112288,112106
112226,112114
112280,112123
112326,112126
112335,112127
112339,112140
112261,112111
112311,112129
112355,112151
112383,112195
112344,112151
112318,112124
112365,112164
112436,112168
112427,112179
112448,112198
112355,112159
112434,112189
112522,112216
112505,112192
112541,112187
112467,112202
112542,112204
112565,112237
112594,112233
112572,112251
112545,112226
112603,112252
112645,112303
112650,112270
112688,112305
112624,112287
112674,112307
112722,112328
112776,112335
112741,112303
112736,112326
112777,112315
112809,112360
112834,112343
112800,112355
112748,112319
112767,112337
112843,112349
112836,112370
112753,112326
112735,112293
112716,112300
112668,112284
112595,112221
112442,112166
112238,112095
112171,112040
112072,111978
111892,111914
111675,111814
111493,111700
111433,111663
111353,111652
111211,111557
111099,111501
110916,111448
110886,111410
110879,111388
110819,111359
110738,111313
110648,111323
110683,111339
110711,111329
110694,111341
110640,111289
110617,111322
110692,111304
110713,111315
110724,111333
110695,111303
110676,111310
110757,111385
110854,111394
110822,111423
110814,111386
110856,111440
110894,111429
110934,111499
111016,111481
111003,111524
111025,111492
111120,111527
111140,111585
111207,111583
111159,111574
111117,111568
111182,111583
111247,111629
111234,111584
111210,111582
111118,111594
111186,111574
111252,111598
111185,111582
111150,111560
111114,111583
111178,111586
111218,111566
111199,111596
111133,111575
111166,111573
111223,111590
111273,111639
111229,111600
111284,111622
111214,111619
111309,111664
111382,111658
111378,111666
111346,111700
111299,111648
111430,111667
111423,111718
111410,111664
111363,111678
111323,111653
111405,111672
111404,111719
111402,111689
111347,111645
111299,111630
111348,111639
111375,111695
111343,111630
111290,111642
111239,111617
111295,111613
111274,111636
111243,111580
111217,111594
111158,111599
111221,111596
111268,111613
111233,111585
111223,111611
111184,111575
111315,111626
111343,111650
111330,111634
111353,111648
111323,111680
111453,111695
111464,111721
111467,111692
111450,111715
111457,111706
111534,111782
111550,111744
111558,111776
111534,111764
111565,111770
111591,111795
111652,111806
111631,111807
111568,111779
111602,111783
111634,111806
111644,111820
111595,111796
111570,111807
111581,111780
111603,111805
111654,111829
111642,111810
111581,111792
111585,111795
111641,111805
111702,111835
111681,111835
111598,111793
111670,111822
111723,111845
111733,111869
111752,111846
111713,111851
111712,111846
111812,111889
111774,111854
111771,111910
111722,111830
111786,111860
111792,111881
111826,111897
111799,111902
111756,111885
111802,111860
111843,111900
111866,111910
111820,111903
111774,111865
111815,111897
111891,111906
111872,111910
111883,111906
111848,111920
111868,111915
111923,111947
111966,111966
111926,111936
111894,111914
111889,111925
111971,111934
111946,111982
111919,111946
111914,111916
111890,111928
111971,111971
111957,111945
111936,111970
111884,111900
111905,111954
111889,111957
111931,111961
111885,111924
111826,111911
111897,111904
111904,111932
111896,111935
111898,111915
111833,111914
111857,111890
111914,111952
111890,111918
111923,111921
111816,111913
111867,111929
111905,111939
111943,111960
111891,111930
111862,111899
111904,111955
111989,111970
112017,111995
111981,111963
111925,111965
112022,111966
112051,112011
112116,112017
112073,112020
112012,111968
112072,112030
112128,112031
112160,112019
112158,112036
112106,112001
112129,112021
112228,112061
112213,112081
112194,112056
112202,112029
112238,112093
112302,112119
112308,112096
112354,112120
112296,112109
112374,112133
112438,112162
112447,112177
112414,112179
112430,112137
112461,112207
112511,112175
112561,112206
112528,112205
112490,112178
112574,112233
112584,112264
112619,112221
112567,112207
112528,112198
112531,112186
112571,112181
112496,112199
112412,112098
112297,112041
112174,112022
112105,111980
111974,111898
111759,111834
111535,111674
111471,111655
111419,111618
111275,111557
111090,111472
110968,111395
110921,111384
110860,111373
110806,111311
110733,111320
110631,111242
110649,111275
110632,111275
110617,111245
110571,111225
110499,111197
110567,111210
110632,111280
110571,111211
110551,111244
110537,111217
110598,111247
110634,111292
110619,111234
110656,111279
110596,111259
110697,111302
110740,111348
110753,111346
110728,111335
110696,111316
110774,111357
110851,111382
110821,111347
110816,111362
110745,111388
110825,111370
110859,111395
110840,111369
110798,111356
110766,111373
110784,111350
110870,111391
110794,111352
110759,111355
110708,111364
110791,111349
110839,111401
110779,111332
110790,111372
110764,111365
110801,111372
110840,111379
110851,111403
110763,111349
110759,111371
110812,111409
110859,111375
110849,111417
110780,111368
110806,111367
110843,111386
110858,111405
110882,111414
110760,111370
110754,111354
110809,111382
110851,111399
110811,111377
110742,111300
110745,111349
110756,111335
110824,111357
110786,111353
110719,111307
110720,111301
110772,111335
110761,111354
110753,111336
110688,111289
110729,111306
110729,111322
110822,111333
110764,111372
110735,111312
110783,111330
110881,111386
110865,111413
110837,111378
110859,111373
110883,111421
110925,111446
111016,111448
110972,111446
110971,111445
111013,111511
111108,111484
111160,111552
111150,111523
111168,111558
111178,111509
111270,111598
111326,111590
111321,111616
111318,111610
111335,111627
111442,111655
111497,111695
111467,111663
111472,111689
111480,111690
111535,111716
111624,111758
111559,111736
111544,111696
111574,111730
111660,111742
111670,111806
111667,111765
111650,111767
111655,111778
111698,111807
111723,111834
111744,111788
111735,111778
111723,111837
111790,111826
111853,111837
111827,111862
111783,111816
111812,111880
111895,111878
111891,111870
111915,111878
111865,111872
111881,111863
111954,111901
111969,111910
111957,111892
111944,111886
111970,111904
112049,111922
112059,111925
112055,111931
111992,111907
112009,111924
112065,111975
112138,111968
112072,111958
112027,111930
112061,111934
112086,111975
112138,111967
112093,111958
112046,111943
112078,111950
112154,111966
112128,111932
112143,111969
112080,111938
112110,111961
112189,111977
112200,112008
112194,111993
112119,111981
112198,112020
112295,112018
112229,112034
112266,112017
112223,112004
112299,112063
112355,112087
112336,112034
112326,112061
112298,112039
112337,112082
112400,112108
112381,112078
112396,112081
112330,112033
112370,112092
112397,112091
112435,112086
112405,112071
112338,112086
112418,112066
112454,112109
112441,112121
112439,112085
112440,112095
112454,112115
112541,112144
112579,112162
112544,112157
112519,112113
112586,112212
112668,112184
112684,112198
112635,112207
112614,112198
112638,112189
112734,112229
112711,112236
112638,112227
112599,112216
112694,112222
112714,112224
112673,112238
112654,112212
112605,112232
112653,112220
112711,112224
112659,112249
112632,112193
112615,112192
112634,112242
112713,112222
112720,112247
112682,112204
112693,112218
112712,112251
112756,112245
112800,112283
112752,112272
112748,112223
112742,112254
112806,112313
112807,112286
112760,112227
112708,112241
112723,112224
112741,112238
112649,112199
112518,112118
112399,112074
112272,111998
112177,111996
111987,111866
111789,111772
111558,111698
111489,111606
111434,111572
111254,111506
111078,111423
110925,111298
110864,111326
110846,111272
110740,111238
110615,111207
110526,111139
110523,111177
110543,111165
110511,111131
110464,111105
110391,111108
110448,111128
110455,111140
110489,111128
110454,111113
110402,111129
110503,111160
110533,111170
110518,111178
110508,111172
110482,111147
110561,111221
110631,111231
110622,111216
110593,111214
110593,111186
110668,111247
110707,111283
110692,111245
110712,111268
110646,111290
110750,111268
110795,111295
110780,111313
110752,111267
110738,111297
110757,111280
110852,111316
110801,111319
110743,111269
110787,111302
110787,111326
110846,111307
110845,111326
110783,111299
110776,111285
110828,111330
110914,111338
110835,111344
110823,111281
110849,111347
110894,111358
110910,111356
110911,111382
110844,111334
110878,111339
110922,111342
110925,111351
110894,111351
110841,111326
110797,111337
110880,111331
110885,111324
110867,111338
110799,111284
110808,111243
110832,111325
110806,111305
110776,111282
110687,111248
110704,111238
110754,111246
110752,111275
110700,111224
110601,111198
110630,111224
110650,111215
110683,111202
110649,111250
110579,111177
110613,111191
110647,111205
110700,111230
110673,111233
110647,111262
110654,111197
110695,111249
110731,111275
110729,111275
110693,111243
110762,111263
110810,111310
110830,111330
110823,111316
110814,111326
110851,111290
110979,111370
110946,111419
110988,111375
110956,111344
110994,111387
111089,111457
111104,111443
111147,111467
111082,111438
111184,111489
111254,111488
111271,111521
111269,111527
111291,111527
111281,111525
111328,111571
111391,111577
111347,111567
111337,111557
111382,111586
111451,111624
111439,111644
111439,111596
111397,111574
111430,111617
111527,111633
111523,111649
111501,111641
111452,111632
111500,111606
111571,111662
111580,111681
111593,111680
111520,111647
111548,111680
111609,111663
111609,111654
111603,111667
111517,111654
111585,111638
111649,111694
111634,111713
111581,111658
111560,111650
111586,111656
111629,111685
111650,111711
111637,111659
111570,111657
111591,111677
111659,111738
111660,111704
111656,111716
111557,111664
111650,111685
111680,111749
111675,111714
111624,111706
111595,111656
111665,111713
111684,111715
111685,111721
111664,111720
111605,111673
111696,111700
111726,111748
111728,111707
111732,111736
111680,111667
111772,111738
111806,111767
111837,111759
111862,111756
111804,111763
111848,111783
111925,111808
111966,111837
111882,111813
111886,111762
111968,111844
112040,111833
111996,111863
111967,111812
111974,111823
112006,111860
112057,111870
112062,111868
112025,111862
112005,111833
112100,111875
112145,111905
112136,111874
112165,111894
112146,111886
112242,111933
112300,111932
112374,111976
112339,111937
112343,111946
112432,112025
112460,112042
112506,112004
112482,112054
112456,111987
112549,112073
112601,112092
112634,112046
112638,112097
112550,112088
112671,112108
112677,112116
112711,112126
112661,112098
112628,112123
112729,112110
112732,112154
112718,112125
112682,112093
112652,112119
112615,112080
112651,112090
112504,112058
112376,111993
112200,111897
112079,111874
111976,111779
111830,111727
111600,111590
111401,111496
111321,111453
111292,111437
111078,111367
110956,111247
110829,111234
110791,111220
110746,111181
110681,111121
110594,111099
110508,111063
110574,111092
110582,111083
110551,111111
110488,111065
110464,111061
110555,111122
110579,111120
110610,111116
110583,111108
110580,111122
110687,111153
110716,111200
110708,111177
110698,111165
110700,111197
110781,111209
110874,111257
110806,111264
110819,111245
110824,111267
110935,111308
110927,111326
110947,111309
110941,111280
110914,111296
110980,111334
111030,111321
111016,111359
110973,111309
110985,111333
111031,111342
111027,111357
110989,111377
110951,111308
111000,111303
110981,111366
111038,111345
111029,111366
110987,111329
110947,111335
111055,111357
111068,111415
111066,111344
111036,111349
110991,111375
111087,111358
111107,111395
111077,111341
111003,111339
110983,111330
111035,111362
111039,111361
110977,111286
110921,111279
110861,111259
110872,111291
110879,111261
110792,111241
110740,111189
110785,111224
110787,111199
110818,111248
110755,111230
110654,111162
110691,111151
110745,111207
110790,111211
110731,111205
110707,111167
110684,111211
110741,111201
110800,111241
110760,111212
110713,111205
110765,111224
110786,111257
110803,111254
110833,111261
110797,111219
110828,111271
110895,111265
110928,111289
110935,111291
110880,111298
110904,111285
110999,111343
111030,111348
110978,111349
110987,111337
111047,111343
111108,111389
111141,111405
111163,111379
111088,111376
111143,111411
111232,111438
111254,111469
111254,111464
111192,111449
111266,111481
111336,111490
111349,111502
111346,111513
111314,111508
111310,111504
111391,111520
111423,111536
111408,111544
111315,111507
111371,111540
111468,111558
111423,111568
111437,111537
111418,111563
111445,111559
111544,111605
111511,111609
111560,111575
111491,111567
111557,111626
111612,111607
111646,111641
111635,111639
111606,111599
111640,111657
111729,111678
111721,111667
111733,111660
111657,111659
111722,111664
111780,111699
111809,111726
111770,111690
111689,111681
111768,111691
111802,111719
111793,111690
111789,111712
111734,111672
111776,111729
111810,111715
111833,111714
111800,111704
111759,111696
111815,111706
111866,111731
111855,111717
111868,111751
111778,111712
111820,111718
111910,111761
111889,111722
111885,111781
111824,111734
111890,111757
111910,111762
111930,111763
111922,111730
111864,111738
111896,111760
111984,111760
111949,111794
111908,111711
111858,111730
111930,111779
111972,111787
111959,111742
111936,111777
111915,111744
111974,111783
112023,111818
111985,111798
111997,111801
111959,111778
112007,111807
112059,111818
112047,111837
112054,111794
111988,111804
112023,111832
112101,111853
112089,111815
112133,111862
112077,111834
112107,111842
112201,111870
112200,111877
112164,111895
112171,111863
112263,111921
112300,111960
112293,111918
112306,111902
112284,111922
112360,111981
112406,111972
112436,111973
112397,111935
112415,111968
112477,112012
112563,112014
112490,111979
112481,112003
112430,111975
112498,111988
112545,112006
112488,111991
112428,111960
112354,111944
112326,111905
112332,111908
112151,111828
112018,111757
111865,111702
111751,111609
111637,111568
111514,111509
111290,111435
111136,111300
111064,111295
110978,111205
110863,111162
110699,111104
110625,111055
110568,111059
110588,111023
110472,111003
110451,110957
110362,110965
110402,110908
110425,110962
110371,110959
110304,110905
110319,110907
110318,110967
110371,110956
110376,110958
110366,110961
110344,110965
110445,110976
110484,111008
110497,111023
110477,111008
110533,111025
110569,111077
110647,111087
110665,111101
110688,111107
110693,111116
110777,111141
110825,111184
110813,111205
110828,111171
110824,111176
110861,111218
110903,111208
110919,111226
110857,111182
110812,111172
110865,111205
110908,111210
110850,111191
110833,111174
110774,111165
110799,111187
110826,111161
110831,111171
110725,111159
110743,111118
110814,111178
110850,111170
110810,111174
110776,111158
110776,111139
110852,111206
110882,111199
110847,111198
110828,111143
110844,111187
110841,111165
110901,111189
110847,111188
110743,111152
110798,111146
110794,111122
110792,111136
110760,111144
110661,111083
110685,111087
110711,111075
110693,111094
110659,111110
110600,111034
110609,111061
110661,111116
110660,111050
110661,111051
110624,111033
110619,111056
110676,111107
110690,111098
110685,111104
110671,111069
110729,111124
110788,111111
110847,111178
110850,111190
110818,111147
110881,111208
110974,111206
110998,111253
110991,111217
110977,111238
111048,111256
111091,111278
111206,111335
111157,111346
111137,111316
111163,111346
111270,111403
111262,111380
111313,111409
111251,111351
111290,111394
111398,111423
111384,111455
111351,111407
111376,111412
111388,111461
111472,111469
111488,111465
111538,111518
111470,111470
111506,111488
111613,111529
111599,111513
111602,111542
111566,111501
111605,111530
111687,111590
111690,111574
111696,111575
111605,111565
111663,111563
111733,111572
111745,111603
111686,111554
111681,111551
111736,111575
111750,111593
111776,111606
111753,111583
111739,111586
111752,111579
111794,111618
111822,111627
111801,111620
111731,111565
111796,111601
111861,111641
111814,111640
111831,111613
111752,111610
111765,111615
111843,111648
111815,111625
111797,111620
111761,111590
111794,111633
111853,111608
111887,111663
111830,111644
111753,111614
111853,111662
111887,111660
111876,111610
111835,111651
111781,111607
111864,111635
111890,111640
111926,111646
111853,111631
111844,111623
111897,111655
111962,111662
111907,111662
111936,111679
111893,111652
111939,111713
111976,111691
112006,111723
111953,111705
111894,111659
111972,111670
111999,111725
111990,111703
112008,111682
111943,111684
111965,111711
112037,111701
112052,111701
112052,111708
112003,111700
112062,111711
112156,111743
112125,111801
112127,111718
112126,111735
112206,111766
112248,111800
112301,111818
112245,111812
112239,111777
112338,111836
112380,111849
112388,111851
112361,111844
112366,111875
112389,111899
112441,111891
112473,111889
112444,111904
112436,111915
112521,111944
112550,111953
112570,111950
112514,111959
112532,111963
112559,111971
112667,112033
112615,112039
112593,111996
112598,111998
112674,112042
112723,112025
112710,112013
112687,112048
112688,112035
112727,112051
112805,112053
112797,112093
112756,112023
112712,112046
112752,112039
112723,112045
112683,112023
112492,111949
112371,111902
112344,111865
112245,111822
112069,111739
111893,111627
111698,111555
111608,111484
111555,111460
111410,111396
111263,111311
111133,111274
111099,111220
111039,111214
110936,111147
110838,111117
110779,111099
110809,111111
110788,111073
110810,111106
110703,111038
110692,111078
110776,111111
110781,111091
110780,111068
110740,111078
110767,111083
110829,111121
110866,111143
110892,111144
110880,111151
110907,111183
111003,111192
111058,111204
111059,111244
111018,111195
111078,111243
111158,111293
111187,111306
111224,111295
111174,111270
111219,111328
111260,111339
111267,111339
111295,111333
111215,111328
111210,111314
111287,111333
111334,111349
111288,111366
111259,111316
111263,111344
111313,111350
111349,111381
111344,111358
111325,111345
111352,111387
111400,111440
111468,111463
111413,111456
111402,111394
111503,111439
111538,111495
111610,111513
111613,111490
111558,111502
111600,111494
111710,111551
111695,111547
111682,111519
111648,111513
111630,111555
111731,111539
111703,111556
111670,111529
111624,111505
111617,111510
111678,111525
111660,111505
111583,111464
111550,111463
111535,111464
111535,111474
111523,111464
111506,111445
111418,111408
111425,111395
111455,111412
111447,111434
111454,111397
111353,111378
111395,111390
111434,111404
111426,111396
111425,111396
111379,111363
111402,111383
111443,111438
111502,111443
111448,111427
111432,111403
111507,111432
111564,111469
111593,111474
111608,111462
111541,111473
111609,111489
111673,111542
111703,111542
111693,111486
111671,111510
111688,111534
111761,111566
111754,111588
111757,111592
111694,111522
111805,111567
111832,111577
111859,111605
111874,111622
111798,111605
111884,111595
111954,111666
111984,111651
111992,111659
111900,111634
111999,111702
112050,111714
112064,111698
112037,111691
112004,111645
112097,111705
112104,111708
112126,111728
112116,111732
112052,111693
112092,111696
112171,111758
112170,111756
112132,111723
112111,111737
112154,111715
112240,111798
112212,111765
112180,111773
112133,111741
112185,111770
112243,111775
112247,111783
112173,111783
112140,111737
112217,111772
112271,111782
112242,111784
112243,111807
112168,111742
112236,111757
112254,111820
112264,111792
112219,111783
112185,111750
112237,111791
112259,111764
112293,111783
112220,111752
112197,111767
112200,111754
112287,111784
112229,111782
112221,111750
112170,111731
112201,111742
112287,111806
112240,111792
112203,111749
112181,111730
112235,111770
112282,111799
112263,111778
112179,111774
112170,111717
112283,111785
112299,111812
112264,111777
112243,111775
112223,111754
112291,111792
112306,111775
112321,111789
112339,111816
112279,111812
112352,111810
112427,111851
112387,111819
112377,111825
112373,111811
112441,111854
112516,111872
112478,111862
112458,111825
112428,111856
112525,111900
112569,111911
112602,111878
112545,111901
112565,111912
112602,111909
112631,111958
112663,111931
112614,111938
112591,111919
112709,111944
112745,111971
112747,111969
112654,111973
112645,111968
112709,111952
112779,112026
112724,111969
112685,111961
112587,111924
112600,111891
112572,111900
112439,111827
112280,111762
112161,111699
112056,111653
111962,111608
111769,111534
111623,111398
111498,111375
111432,111356
111383,111297
111204,111208
111100,111174
110965,111126
110967,111106
110925,111066
110844,111030
110777,111016
110726,110999
110741,110990
110788,111029
110753,110999
110697,110994
110698,110986
110790,111042
110809,111041
110855,111062
110815,111052
110857,111072
110896,111134
111009,111143
110983,111150
111001,111141
111039,111185
111144,111231
111161,111235
111192,111230
111174,111262
111184,111255
111292,111306
111318,111269
111274,111312
111220,111249
111263,111266
111319,111305
111305,111291
111291,111329
111247,111275
111255,111302
111263,111268
111297,111295
111240,111282
111218,111263
111231,111282
111267,111246
111306,111303
111256,111299
111236,111284
111279,111305
111344,111299
111355,111351
111324,111312
111291,111303
111306,111310
111354,111312
111365,111316
111319,111316
111216,111247
111243,111260
111221,111277
111255,111267
111169,111246
111118,111181
111103,111212
111106,111228
111094,111200
111020,111155
110967,111157
110946,111134
111028,111168
110982,111163
110953,111122
110896,111066
110875,111110
110932,111094
110963,111125
110916,111126
110855,111046
110936,111086
110935,111138
110965,111115
110974,111134
110881,111111
110958,111131
111044,111155
111029,111153
111048,111133
110982,111156
111076,111167
111089,111221
111115,111210
111165,111247
111111,111178
111167,111241
111240,111251
111246,111320
111267,111284
111220,111267
111273,111307
111344,111303
111357,111331
111367,111328
111297,111306
111387,111326
111426,111394
111420,111351
111443,111384
111357,111314
111445,111384
111458,111400
111480,111365
111486,111390
111392,111360
111498,111382
111526,111421
111517,111392
111530,111403
111469,111375
111511,111394
111599,111462
111578,111436
111592,111448
111539,111416
111600,111458
111660,111465
111651,111461
111581,111449
111598,111436
111617,111491
111687,111465
111699,111494
111646,111461
111608,111438
111668,111488
111690,111482
111726,111506
111700,111483
111624,111471
111691,111473
111757,111551
111753,111516
111739,111489
111701,111479
111761,111514
111800,111525
111760,111535
111745,111505
111699,111482
111775,111537
111782,111505
111783,111520
111793,111530
111720,111523
111777,111514
111826,111551
111812,111540
111811,111516
111774,111493
111817,111519
111887,111566
111876,111549
111843,111533
111823,111524
111882,111577
111933,111544
111914,111576
111884,111564
111847,111564
111906,111552
111939,111604
111942,111569
111936,111569
111889,111556
111948,111564
112029,111639
111973,111598
111983,111572
111951,111595
112038,111589
112087,111676
112073,111636
112073,111598
112043,111626
112094,111663
112137,111656
112158,111669
112099,111667
112090,111599
112166,111665
112200,111693
112211,111695
112172,111702
112120,111673
112208,111691
112255,111720
112274,111720
112236,111706
112226,111691
112314,111720
112340,111729
112364,111740
112327,111725
112303,111754
112350,111745
112408,111810
112391,111770
112404,111749
112361,111763
112459,111814
112454,111801
112431,111775
112365,111772
112287,111729
112325,111741
112258,111691
112125,111635
111975,111546
111858,111502
111746,111473
111629,111373
111444,111307
111316,111225
111152,111172
111101,111120
110980,111034
110830,110994
110691,110910
110625,110878
110618,110874
110583,110857
110518,110816
110428,110787
110388,110787
110433,110798
110430,110803
110349,110761
110374,110784
110317,110742
110415,110777
110451,110804
110396,110783
110412,110775
110390,110825
110510,110837
110534,110844
110570,110871
110476,110865
110540,110867
110620,110920
110671,110936
110674,110933
110675,110923
110699,110958
110790,110962
110868,111016
110828,110985
110807,110978
110817,110967
110893,111065
110921,111013
110910,111032
110855,111015
110846,111032
110883,111032
110896,111064
110838,111003
110805,110987
110775,110990
110844,110997
110824,110999
110794,110984
110732,110930
110730,110973
110787,110975
110802,111007
110827,110978
110722,110949
110761,110993
110847,111008
110838,111034
110837,111021
110733,110977
110793,110993
110834,111020
110791,110978
110806,111007
110710,110941
110720,110977
110767,110983
110756,110954
110743,110969
110656,110913
110629,110923
110745,110968
110707,110956
110641,110920
110600,110883
110650,110898
110667,110913
110686,110935
110683,110931
110585,110870
110641,110928
110707,110939
110737,110935
110685,110933
110645,110933
110674,110957
110782,110999
110754,110993
110779,110964
110706,110949
110773,110996
110855,111023
110865,111024
110846,111022
110842,110999
110846,111044
110917,111093
110951,111070
110938,111045
110897,111047
110974,111081
111018,111079
111007,111099
111011,111083
110968,111091
111026,111103
111097,111108
111076,111131
111090,111117
111057,111080
111077,111130
111137,111159
111134,111145
111101,111132
111053,111148
111099,111104
111182,111182
111147,111165
111164,111178
111090,111109
111144,111163
111192,111217
111198,111172
111174,111153
111091,111127
111159,111167
111232,111211
111211,111152
111149,111181
111129,111147
111199,111156
111243,111198
111268,111200
111229,111186
111225,111167
111304,111220
111359,111241
111360,111245
111367,111237
111349,111214
111390,111279
111416,111296
111405,111304
111445,111287
111386,111263
111457,111284
111503,111329
111508,111329
111457,111286
111431,111304
111507,111314
111489,111330
111512,111328
111477,111284
111405,111275
111476,111302
111551,111324
111507,111304
111478,111311
111436,111275
111457,111337
111533,111347
111508,111320
111488,111314
111445,111296
111489,111303
111542,111339
111529,111328
111506,111334
111477,111294
111542,111332
111581,111349
111581,111362
111561,111338
111516,111304
111592,111348
111646,111399
111642,111393
111598,111341
111605,111359
111656,111391
111705,111401
111716,111395
111639,111377
111641,111395
111679,111404
111743,111450
111726,111401
111729,111406
111687,111419
111743,111417
111817,111473
111774,111467
111781,111419
111739,111441
111780,111459
111861,111500
111871,111486
111832,111460
111841,111466
111889,111484
111957,111524
111943,111511
111885,111480
111919,111505
111970,111510
112024,111569
112034,111556
111995,111539
111973,111527
112071,111599
112112,111585
112065,111594
112073,111573
112067,111566
112098,111578
112162,111609
112140,111613
112096,111585
112089,111570
112186,111629
112219,111628
112168,111622
112132,111593
112141,111597
112172,111628
112191,111609
112153,111607
112079,111566
112016,111540
112013,111520
111913,111492
111800,111430
111629,111340
111439,111269
111396,111227
111314,111138
111117,111068
110936,110978
110836,110932
110775,110901
110661,110846
110573,110819
110424,110751
110382,110705
110368,110706
110332,110680
110275,110683
110170,110626
110155,110611
110199,110657
110201,110606
110155,110602
110089,110602
110068,110585
110110,110595
110148,110620
110142,110610
110060,110587
110106,110622
110157,110617
110218,110666
110202,110643
110133,110614
110184,110652
110244,110667
110266,110687
110283,110679
110214,110641
110269,110688
110329,110691
110340,110721
110342,110725
110291,110669
110322,110713
110375,110738
110372,110735
110346,110722
110303,110685
110312,110703
110372,110725
110351,110723
110323,110700
110275,110682
110270,110696
110325,110720
110311,110693
110341,110714
110275,110663
110274,110712
110377,110728
110406,110739
110405,110729
110335,110720
110421,110735
110472,110776
110463,110774
110470,110783
110429,110751
110430,110783
110493,110802
110525,110794
110507,110759
110424,110746
110445,110765
110506,110797
110479,110775
110455,110738
110379,110709
110388,110717
110420,110736
110439,110739
110411,110717
110327,110701
110360,110700
110413,110739
110380,110725
110398,110720
110295,110695
110372,110681
110409,110734
110420,110740
110385,110743
110383,110706
110436,110740
110493,110792
110491,110797
110490,110768
110465,110778
110558,110799
110600,110835
110639,110832
110646,110860
110619,110806
110706,110893
110775,110936
110772,110925
110796,110907
110778,110933
110850,110978
110937,110982
110915,111003
110942,110982
110948,111006
111039,111043
111101,111085
111122,111083
111112,111075
111098,111099
111169,111116
111293,111141
111294,111169
111262,111159
111260,111149
111350,111164
111411,111229
111417,111223
111398,111192
111380,111208
111417,111262
111496,111237
111499,111273
111493,111264
111455,111209
111493,111260
111551,111297
111549,111254
111551,111264
111513,111282
111545,111297
111590,111336
111626,111288
111581,111316
111556,111273
111647,111315
111665,111353
111684,111326
111698,111316
111625,111334
111661,111344
111754,111358
111699,111356
111674,111307
111685,111339
111734,111374
111762,111395
111729,111385
111686,111338
111709,111327
111756,111387
111788,111409
111722,111376
111705,111323
111717,111363
111725,111360
111792,111366
111779,111367
111755,111343
111718,111371
111782,111370
111799,111418
111767,111355
111784,111383
111725,111397
111782,111392
111855,111398
111848,111406
111789,111388
111774,111359
111845,111404
111857,111419
111865,111416
111821,111425
111790,111367
111883,111409
111923,111440
111877,111414
111865,111408
111837,111396
111899,111429
111959,111457
111924,111423
111879,111420
111887,111431
111969,111443
112001,111467
111992,111457
111960,111423
111978,111466
112016,111478
112069,111496
112077,111502
112034,111462
112025,111479
112105,111508
112158,111513
112168,111533
112136,111512
112112,111530
112231,111584
112289,111588
112260,111584
112249,111585
112295,111578
112324,111619
112394,111654
112357,111635
112350,111618
112375,111629
112402,111645
112469,111692
112466,111659
112396,111650
112406,111635
112448,111646
112441,111654
112379,111620
112244,111535
112160,111520
112110,111501
111997,111431
111873,111375
111654,111280
111465,111186
111409,111137
111312,111097
111134,111020
110987,110944
110921,110901
110825,110844
110754,110824
110677,110775
110523,110723
110482,110689
110506,110696
110506,110707
110448,110681
110337,110628
110380,110657
110401,110689
110438,110663
110430,110684
110365,110653
110394,110669
110489,110720
110522,110703
110510,110726
110484,110721
110562,110735
110596,110771
110673,110816
110692,110807
110623,110780
110703,110849
110800,110858
110808,110905
110829,110899
110835,110871
110842,110924
110947,110938
110990,110948
110947,110963
110977,110953
110976,110954
111070,111036
111115,111026
111077,111025
111101,111011
111134,111049
111212,111076
111256,111109
111260,111116
111227,111099
111315,111122
111392,111170
111433,111181
111465,111187
111404,111171
111488,111208
111537,111241
111563,111246
111545,111259
111489,111222
111516,111229
111548,111263
111558,111228
111474,111219
111410,111186
111422,111178
111427,111198
111387,111179
111378,111149
111261,111098
111268,111099
111280,111128
111255,111102
111201,111072
111105,111020
111124,111028
111146,111031
111136,111024
111030,110980
111004,110982
110995,110964
111018,110984
111020,110992
110966,110950
110894,110910
110903,110922
110991,110969
110972,110980
110973,110941
110893,110919
110987,110980
111029,111004
111027,110987
111035,110983
110976,110973
111026,111011
111080,111017
111127,111054
111095,111032
111061,111009
111096,111028
111189,111049
111176,111061
111129,111033
111149,111058
111185,111060
111248,111087
111256,111117
111203,111094
111192,111087
111295,111095
111336,111159
111297,111155
111314,111112
111285,111144
111328,111148
111430,111191
111416,111166
111400,111159
111354,111179
111437,111188
111505,111216
111474,111226
111436,111195
111403,111171
111486,111211
111523,111229
111512,111216
111483,111251
111407,111162
111488,111243
111538,111244
111500,111238
111464,111205
111465,111227
111481,111202
111509,111233
111532,111228
111475,111225
111451,111166
111481,111229
111568,111262
111509,111222
111475,111198
111458,111219
111527,111245
111542,111298
111519,111224
111505,111215
111449,111224
111514,111216
111592,111250
111547,111235
111545,111222
111505,111253
111538,111257
111606,111261
111614,111289
111530,111244
111551,111230
111632,111263
111655,111281
111668,111280
111645,111272
111590,111248
111685,111294
111761,111309
111712,111325
111713,111325
111662,111301
111746,111342
111821,111361
111771,111335
111741,111330
111730,111311
111821,111384
111852,111381
111835,111383
111825,111370
111821,111367
111865,111397
111947,111408
111944,111421
111879,111390
111887,111420
111987,111428
112044,111456
112016,111451
112020,111434
111969,111434
112075,111476
112148,111496
112075,111486
112054,111465
112082,111474
112132,111490
112166,111543
112151,111503
112115,111479
112090,111488
112119,111508
112151,111522
112104,111455
111966,111406
111903,111373
111840,111352
111768,111308
111583,111222
111394,111134
111245,111034
111184,111019
111144,110960
110920,110895
110775,110805
110629,110744
110591,110716
110541,110675
110409,110662
110253,110582
110233,110548
110239,110549
110198,110529
110095,110506
110033,110430
110032,110478
110051,110476
110057,110496
110002,110435
109989,110452
109954,110426
110015,110477
110020,110483
110016,110459
109998,110452
110000,110462
110113,110487
110097,110554
110127,110531
110082,110483
110117,110539
110175,110564
110222,110575
110221,110551
110186,110544
110190,110558
110256,110595
110282,110574
110277,110590
110181,110568
110217,110574
110257,110601
110288,110583
110246,110583
110194,110541
110170,110585
110248,110576
110272,110600
110210,110608
110183,110566
110207,110554
110272,110574
110301,110610
110264,110594
110237,110610
110271,110621
110316,110629
110362,110631
110352,110662
110233,110586
110318,110625
110336,110657
110323,110651
110263,110596
110232,110559
110228,110573
110308,110596
110284,110591
110262,110579
110146,110504
110191,110574
110221,110563
110221,110524
110187,110533
110090,110498
110182,110545
110205,110528
110201,110539
110146,110522
110099,110511
110154,110511
110257,110557
110198,110561
110193,110539
110188,110502
110231,110555
110305,110600
110286,110568
110302,110574
110276,110601
110331,110595
110385,110676
110438,110685
110438,110651
110426,110669
110466,110652
110585,110754
110579,110763
110585,110736
110586,110723
110640,110758
110717,110803
110748,110829
110794,110818
110726,110841
110818,110850
110891,110903
110899,110908
110874,110887
110857,110870
110899,110906
111007,110938
110974,110924
111013,110946
110936,110951
111016,110983
111066,110982
111093,111005
111085,110983
111040,110996
111109,110983
111157,111021
111172,111021
111154,111011
111077,111021
111168,111054
111221,111038
111190,111020
111193,111058
111155,111043
111195,111066
111273,111083
111266,111055
111258,111087
111185,111014
111241,111083
111341,111101
111292,111098
111281,111095
111238,111056
111304,111095
111394,111119
111384,111107
111357,111133
111294,111097
111373,111123
111422,111153
111405,111138
111388,111118
111389,111140
111443,111153
111498,111178
111496,111171
111484,111156
111433,111165
111541,111209
111539,111245
111551,111198
111551,111196
111489,111141
111535,111208
111599,111221
111582,111216
111543,111216
111535,111191
111607,111207
111645,111250
111664,111264
111630,111203
111597,111244
111676,111264
111716,111266
111721,111268
111705,111277
111675,111260
111745,111306
111791,111301
111771,111305
111728,111291
111692,111249
111775,111323
111810,111320
111771,111325
111749,111290
111768,111308
111807,111318
111872,111346
111840,111321
111824,111323
111806,111344
111901,111379
111927,111381
111915,111367
111934,111355
111879,111386
111956,111371
112056,111418
111997,111422
111970,111398
112010,111381
112065,111431
112059,111438
112052,111428
112055,111429
112000,111419
112075,111434
112103,111474
112101,111466
112017,111420
112065,111428
112125,111436
112184,111490
112124,111453
112088,111439
112067,111470
112126,111454
112174,111483
112132,111459
112054,111454
112057,111435
112044,111435
112084,111460
111993,111423
111881,111334
111822,111325
111769,111284
111628,111216
111518,111162
111302,111042
111182,110985
111090,110963
110982,110890
110825,110825
110624,110697
110503,110649
110424,110610
110385,110534
110202,110519
110078,110445
110033,110404
109992,110419
109997,110395
109894,110361
109833,110312
109764,110312
109785,110319
109783,110305
109746,110276
109653,110250
109664,110258
109713,110256
109739,110301
109681,110271
109660,110259
109703,110304
109750,110310
109795,110310
109814,110360
109750,110309
109822,110340
109891,110382
109917,110384
109942,110384
109855,110397
109873,110385
109934,110409
109998,110408
109965,110402
109882,110389
109944,110390
109944,110415
109949,110418
109947,110372
109875,110380
109874,110337
109936,110406
109916,110400
109908,110382
109842,110340
109883,110376
109931,110382
109940,110388
109919,110385
109869,110378
109936,110404
110003,110422
109993,110433
110012,110445
109942,110423
109998,110437
110074,110447
110077,110441
110036,110452
109966,110412
109994,110424
110041,110440
110051,110466
110015,110430
109915,110405
109949,110397
110027,110424
109951,110404
109930,110380
109866,110374
109885,110376
109908,110404
109925,110385
109869,110349
109796,110330
109841,110380
109855,110378
109883,110354
109833,110363
109750,110310
109835,110371
109877,110394
109893,110361
109866,110369
109835,110346
109907,110393
109962,110428
109945,110388
109940,110409
109935,110375
109992,110418
110060,110446
110046,110469
110052,110447
110046,110423
110092,110496
110189,110512
110222,110533
110191,110528
110169,110486
110240,110574
110317,110597
110308,110585
110321,110565
110303,110568
110342,110588
110455,110625
110419,110629
110428,110648
110337,110614
110449,110645
110507,110689
110492,110681
110461,110646
110408,110659
110492,110640
110546,110708
110571,110714
110515,110680
110495,110661
110580,110724
110619,110733
110616,110745
110619,110722
110548,110713
110598,110713
110675,110740
110618,110782
110629,110722
110632,110742
110685,110748
110740,110775
110761,110802
110738,110775
110690,110782
110800,110817
110850,110869
110871,110839
110839,110839
110840,110854
110871,110852
110926,110914
110962,110883
110959,110878
110917,110836
111004,110932
111009,110931
111043,110896
111020,110887
110965,110895
111020,110948
111080,110945
111130,110974
111060,110944
111050,110971
111123,110936
111165,110985
111139,111001
111135,110975
111103,110975
111182,111010
111191,111007
111203,110988
111195,111011
111149,110995
111247,111013
111256,111024
111275,111033
111226,111008
111198,111009
111276,111012
111331,111064
111297,111040
111282,111057
111251,111044
111331,111050
111390,111085
111351,111073
111342,111070
111360,111062
111399,111112
111487,111118
111490,111147
111476,111101
111478,111141
111558,111157
111628,111177
111641,111170
111640,111185
111636,111189
111689,111220
111776,111268
111752,111231
111742,111257
111772,111251
111788,111275
111871,111304
111884,111275
111829,111278
111849,111281
111900,111314
111977,111358
111991,111332
111894,111318
111949,111322
111993,111355
112039,111376
112039,111368
111995,111321
112005,111364
112085,111387
112115,111388
112098,111397
112085,111381
112050,111398
112161,111418
112160,111448
112173,111440
112140,111405
112168,111413
112269,111464
112278,111466
112274,111475
112203,111430
112213,111466
112308,111470
112357,111504
112314,111469
112269,111457
112254,111457
112369,111488
112366,111537
112307,111467
112232,111446
112137,111443
112098,111373
112072,111335
111857,111295
111646,111173
111521,111121
111419,111017
111249,110953
111106,110914
110928,110805
110826,110776
110740,110744
110681,110680
110533,110644
110399,110557
110354,110518
110361,110538
110310,110530
110268,110471
110184,110453
110167,110474
110236,110471
110268,110483
110213,110493
110191,110489
110248,110496
110282,110550
110309,110517
110376,110586
110349,110547
110376,110597
110439,110626
110532,110626
110520,110615
110492,110649
110540,110665
110631,110723
110658,110723
110699,110722
110641,110704
110718,110741
110763,110784
110763,110797
110798,110778
110692,110763
110753,110774
110797,110782
110816,110811
110814,110801
110727,110752
110752,110780
110849,110782
110826,110825
110811,110792
110795,110794
110846,110790
110905,110826
110914,110823
110892,110829
110866,110831
110945,110861
111004,110852
111029,110916
111034,110865
110983,110879
111040,110896
111105,110942
111110,110940
111111,110931
111013,110900
111042,110915
111108,110944
111071,110895
111017,110911
110930,110835
110955,110890
110995,110874
110968,110874
110943,110842
110859,110818
110864,110806
110933,110853
110855,110825
110858,110783
110808,110765
110784,110803
110857,110810
110838,110783
110831,110801
110768,110761
110800,110789
110895,110804
110896,110833
110865,110770
110861,110793
110889,110850
110959,110855
111032,110884
110976,110861
110952,110875
111067,110898
111106,110883
111091,110955
111093,110918
111053,110896
111135,110980
111202,110952
111204,110990
111227,110972
111184,110966
111261,110981
111332,110987
111336,111048
111323,111023
111260,111019
111352,111073
111392,111052
111437,111088
111414,111053
111366,111052
111467,111081
111473,111124
111466,111054
111454,111062
111437,111074
111523,111101
111518,111106
111538,111102
111517,111075
111493,111095
111528,111104
111591,111144
111597,111127
111517,111119
111534,111096
111572,111138
111617,111147
111610,111137
111615,111176
111557,111135
111598,111142
111655,111157
111660,111168
111604,111145
111577,111154
111620,111148
111674,111172
111689,111194
111633,111160
111642,111155
111683,111200
111713,111190
111693,111177
111673,111151
111602,111177
111691,111195
111738,111221
111684,111163
111670,111176
111646,111131
111680,111205
111761,111209
111709,111206
111654,111182
111668,111182
111690,111187
111736,111205
111736,111212
111681,111202
111646,111164
111736,111236
111710,111227
111733,111200
111670,111190
111684,111185
111736,111180
111779,111198
111768,111237
111766,111207
111707,111213
111786,111210
111842,111265
111784,111230
111747,111212
111782,111213
111838,111225
111815,111251
111868,111221
111795,111216
111808,111240
111825,111246
111871,111260
111886,111262
111842,111235
111795,111229
111898,111269
111945,111277
111932,111309
111913,111271
111866,111264
112003,111296
112053,111334
112028,111326
112005,111299
111995,111342
112111,111372
112187,111380
112168,111376
112146,111376
112175,111419
112256,111446
112285,111457
112277,111447
112258,111427
112274,111459
112326,111454
112335,111493
112329,111465
112288,111458
112307,111456
112362,111511
112380,111479
112367,111498
112295,111449
112261,111431
112312,111475
112286,111467
112214,111395
112063,111325
111961,111298
111911,111260
