11111,11111
0,0
82396,82446
132909,109465
135964,109449
135938,109437
135937,109437
135878,109455
135902,109410
135889,109403
135895,109408
135867,109410
135884,109387
135929,109421
135918,109409
135968,109417
135953,109401
135952,109414
135984,109442
135978,109389
135977,109398
135929,109399
135862,109366
135858,109346
135865,109345
135770,109319
135688,109292
135629,109262
135669,109281
135650,109257
135563,109251
135550,109194
135534,109215
135587,109216
135559,109195
135566,109232
135539,109207
135561,109226
135684,109273
135699,109300
135738,109275
135816,109310
135813,109347
135893,109319
135982,109368
135996,109373
136010,109360
136109,109412
136143,109453
136202,109421
136266,109466
136275,109482
136313,109486
136396,109529
136437,109552
136430,109556
136460,109534
136493,109558
136563,109604
136593,109581
136637,109614
136568,109607
136614,109621
136661,109595
136699,109650
136689,109614
136723,109658
136720,109659
136797,109625
136793,109681
136802,109697
136829,109668
136863,109721
136901,109690
136909,109714
136929,109691
136914,109710
136912,109685
136951,109715
136864,109688
136834,109648
136795,109629
136721,109618
136612,109593
136481,109482
136310,109424
136104,109330
135867,109258
135608,109114
135317,109027
134930,108875
134562,108670
134201,108539
133844,108390
133400,108219
133025,108075
132575,107901
132213,107748
131914,107578
131599,107516
131290,107381
130980,107230
130766,107158
130552,107043
130390,106965
130165,106880
129978,106798
129889,106745
129805,106756
129685,106688
129590,106639
129577,106669
129510,106642
129553,106645
129517,106652
129490,106603
129504,106608
129542,106633
129600,106644
129617,106648
129696,106679
129688,106687
129779,106754
129900,106749
129975,106762
130036,106796
132808,107934
133139,108032
133031,108030
133128,108029
133121,108032
133160,108096
134265,108525
134338,108514
134357,108535
134350,108520
134343,108533
134386,108561
134264,108507
134191,108455
134113,108402
133937,108350
133725,108260
133437,108118
133204,108033
132916,107905
132565,107754
132225,107620
131807,107454
131485,107302
131203,107211
130865,107075
130580,106953
130287,106844
130071,106743
129930,106647
129719,106579
129572,106543
129448,106463
129445,106470
129361,106462
129335,106442
129334,106425
129329,106405
129391,106453
129403,106447
129415,106460
129494,106485
129515,106498
129582,106544
129707,106562
129769,106577
129815,106627
129881,106688
129957,106717
130089,106722
130126,106755
130196,106781
130231,106829
130336,106867
130432,106879
130507,106907
130607,106948
130659,107017
130759,107055
130922,107060
131006,107121
131072,107165
131197,107210
131334,107296
131420,107301
131567,107333
131649,107379
131791,107457
131897,107542
131981,107549
132116,107576
132212,107628
132273,107670
132390,107730
132469,107731
132562,107754
132617,107817
132631,107816
132725,107850
132774,107867
132808,107883
132836,107871
132866,107889
132924,107911
132926,107911
132930,107918
132935,107886
132931,107911
132927,107950
132876,107883
132861,107864
132796,107898
132740,107824
132723,107817
132662,107800
132616,107790
132532,107731
132521,107773
132438,107705
132422,107694
132377,107675
132291,107668
132297,107625
132257,107606
132265,107611
132219,107604
132197,107608
132162,107593
132181,107603
132194,107578
132180,107593
132164,107611
132169,107621
132188,107597
132252,107630
132253,107623
132252,107606
132285,107644
132375,107660
132383,107677
132397,107674
132424,107707
132494,107744
133846,108253
133908,108326
133921,108316
133890,108292
133865,108275
133902,108287
133988,108319
134004,108316
134034,108336
134114,108390
134158,108421
134267,108438
134311,108456
134360,108496
134381,108492
134483,108542
134498,108556
134536,108509
134527,108536
134493,108568
134503,108539
134460,108496
134324,108438
134169,108377
133919,108306
133731,108195
133499,108090
133219,107974
132919,107835
132553,107734
132216,107593
131898,107440
131544,107299
131208,107148
130870,107007
130614,106899
130333,106830
130088,106677
129833,106593
129653,106540
129484,106465
129374,106391
129254,106351
129123,106322
129014,106302
128993,106248
128961,106259
128922,106221
128968,106309
128923,106244
129024,106276
129014,106285
129097,106278
129118,106331
129139,106311
129278,106376
129338,106405
129403,106417
129477,106437
129602,106486
129630,106532
129809,106586
129879,106594
129966,106646
130002,106659
130154,106737
130249,106780
130358,106798
130401,106831
130488,106893
130623,106939
130698,106967
130796,107004
130894,107060
130989,107073
131087,107133
131234,107176
131303,107227
131384,107252
131492,107298
131642,107307
131762,107365
131855,107434
131928,107450
131998,107481
132114,107541
132235,107591
132251,107610
132310,107625
132384,107651
132462,107696
132499,107663
132508,107705
132517,107705
132536,107711
132617,107712
132595,107761
132592,107723
132574,107738
132582,107715
132644,107717
132650,107760
132666,107747
132677,107752
132717,107761
132827,107793
132881,107814
132900,107839
132907,107852
132977,107891
133021,107866
132967,107871
132983,107849
132965,107839
132954,107855
133021,107860
132989,107895
133029,107879
133000,107849
133030,107908
133081,107934
133132,107932
133215,107930
133233,107984
133324,108017
133448,108062
133565,108124
133646,108176
133717,108192
133860,108224
134062,108331
134136,108370
134259,108385
134355,108458
134477,108512
134617,108568
134767,108623
134850,108644
134960,108712
135069,108728
135180,108776
135304,108831
135338,108836
135367,108857
135455,108896
135551,108907
135627,108963
135698,108958
135676,108991
135754,109002
135839,108998
135881,109035
135909,109066
135962,109075
135990,109100
136061,109114
136103,109115
136131,109160
136129,109137
136198,109174
136268,109181
136292,109212
136288,109211
136311,109213
136357,109240
136403,109228
136361,109214
136295,109211
136226,109151
136206,109144
136088,109093
135963,109037
135768,108962
135509,108850
135363,108789
135134,108704
134848,108548
134526,108481
134205,108303
133934,108210
133656,108111
133346,107977
133073,107872
132712,107770
132520,107638
132340,107588
132064,107474
131850,107394
131652,107309
131514,107270
131395,107214
131277,107158
131166,107096
131054,107083
131048,107058
130995,107032
131008,107028
131001,107043
130978,107047
131086,107087
131107,107105
131194,107117
131223,107171
131325,107171
131453,107248
131549,107293
131660,107342
131740,107348
131871,107432
131971,107465
132089,107504
132196,107532
132335,107617
132416,107627
132557,107708
132712,107731
132787,107793
132895,107825
132980,107857
133102,107923
133221,107961
133348,108027
133397,108034
133489,108078
133647,108138
133801,108209
133897,108240
134003,108254
134098,108324
134249,108373
134388,108426
134457,108465
134574,108460
134651,108523
134811,108574
134849,108614
134898,108612
134940,108644
135015,108660
135068,108691
135111,108716
135155,108703
135157,108705
135187,108732
135261,108761
135254,108709
135201,108740
135168,108703
135137,108719
135177,108677
135073,108652
135074,108658
134983,108638
134906,108603
134913,108615
134863,108558
134736,108514
134702,108528
134682,108489
134658,108477
134602,108477
134594,108452
134569,108498
134588,108460
134612,108485
134622,108480
134612,108451
134633,108503
134651,108506
134688,108518
134723,108533
134692,108498
134693,108513
134709,108494
134705,108519
134684,108506
134718,108504
134681,108527
134694,108502
134734,108494
134731,108489
134735,108509
134727,108516
134724,108522
134738,108503
134750,108516
134749,108567
134735,108494
134830,108567
134820,108584
134837,108570
134845,108547
134860,108588
134888,108602
134947,108571
134976,108607
134954,108623
134975,108593
135078,108643
135103,108664
135132,108656
135157,108675
135181,108694
135274,108733
135260,108741
135285,108701
135351,108768
135309,108729
135389,108764
135374,108754
135354,108724
135296,108747
135266,108705
135225,108667
135147,108626
135008,108584
134858,108535
134625,108420
134452,108336
134231,108253
133993,108152
133673,108049
133325,107889
133070,107779
132751,107666
132439,107564
132079,107420
131776,107270
131502,107186
131257,107056
131018,106953
130786,106886
130624,106782
130538,106766
130423,106742
130332,106703
130316,106665
130230,106661
130287,106658
130297,106658
130352,106668
130333,106720
130373,106708
130431,106720
130494,106756
130563,106769
130628,106810
130726,106881
130859,106897
130959,106918
131085,106987
131135,107049
131250,107084
131465,107189
131628,107221
131765,107307
131870,107331
132061,107427
132214,107508
132427,107586
132573,107607
132742,107704
132859,107767
133045,107814
133227,107910
133337,107929
133476,107992
133580,108058
133729,108088
133896,108164
133985,108254
134077,108255
134202,108265
134319,108325
134432,108338
134532,108404
134528,108412
134642,108437
134756,108492
134804,108517
134883,108536
134869,108518
134913,108567
134980,108568
135006,108552
135003,108558
134942,108551
134967,108542
135014,108573
134953,108528
134956,108521
134893,108545
134872,108500
134869,108499
134831,108481
134805,108459
134750,108457
134734,108462
134765,108467
134716,108461
134698,108400
134701,108437
134669,108426
134684,108417
134683,108420
134616,108397
134531,108353
134549,108369
134520,108353
134484,108349
134489,108339
134373,108329
134391,108306
134416,108302
134369,108274
134385,108281
134289,108282
134324,108289
134400,108289
134357,108305
134408,108280
134409,108308
134441,108349
134474,108328
134535,108353
134535,108386
134499,108367
134611,108412
134631,108375
134714,108424
134709,108434
134697,108471
134749,108460
134846,108500
134829,108482
134893,108503
134840,108476
134901,108521
134982,108531
135054,108560
135056,108580
135070,108608
135196,108608
135278,108644
135366,108670
135395,108714
135486,108751
135574,108799
135692,108794
135765,108840
135856,108880
135865,108883
135913,108880
135944,108909
135840,108854
135791,108825
135673,108799
135543,108757
135364,108658
135207,108567
134963,108500
134673,108374
134415,108280
134152,108145
133859,108046
133507,107923
133197,107768
132940,107663
132665,107553
132377,107439
132089,107330
131825,107184
131650,107133
131488,107072
131309,106997
131154,106971
131008,106873
130963,106865
130915,106866
130855,106848
130794,106813
130807,106800
130807,106813
130822,106810
130779,106787
130788,106774
130801,106803
130877,106839
130859,106847
130917,106844
130973,106891
131025,106893
131084,106944
131183,106962
131227,106986
131243,107002
131356,107030
131432,107045
131538,107112
131573,107125
131664,107132
131782,107221
131899,107255
132014,107294
132136,107325
132181,107383
132288,107416
132464,107480
132578,107515
132682,107573
132780,107631
132890,107670
133078,107706
133221,107775
133343,107815
133401,107872
133551,107944
133711,107953
133853,108047
133907,108066
133985,108089
134062,108147
134179,108145
134204,108170
134236,108177
134247,108183
134230,108182
134263,108178
134208,108188
134148,108128
134100,108103
134023,108103
134015,108060
133913,108015
133845,107998
133764,107972
133694,107936
133662,107923
133572,107890
133474,107872
133406,107828
133386,107805
133343,107813
133292,107783
133296,107768
133203,107715
133215,107759
133238,107737
133202,107744
133205,107727
133187,107737
133266,107757
133254,107782
133274,107757
133340,107774
133318,107804
133388,107798
133456,107854
133467,107837
133516,107851
133488,107869
133525,107867
133586,107887
133589,107863
133624,107918
133644,107924
133710,107946
133721,107929
133781,107943
133795,107977
133752,107997
133803,107988
133880,107984
133871,108029
133882,108008
133874,108010
133933,108021
133986,108048
133971,108045
134009,108035
134028,108095
134083,108107
134184,108125
134169,108137
134242,108152
134323,108190
134439,108232
134509,108280
134590,108293
134640,108306
134706,108325
134802,108361
134818,108371
134852,108352
134775,108336
134715,108326
134639,108313
134511,108201
134355,108141
134153,108080
133934,107994
133700,107902
133418,107774
133157,107639
132850,107528
132517,107415
132273,107297
132036,107216
131740,107086
131447,106966
131198,106892
131016,106803
130807,106717
130614,106647
130441,106552
130353,106546
130252,106501
130217,106460
130132,106406
130098,106404
130043,106414
130065,106405
130076,106407
130088,106423
130105,106410
130165,106462
130280,106520
130331,106526
130403,106552
130441,106557
130533,106612
130669,106671
130732,106661
130831,106722
130931,106785
131030,106839
131158,106879
131264,106897
131354,106958
131417,106964
131524,107013
131673,107061
131750,107096
131875,107149
131900,107194
132009,107195
132146,107242
132230,107290
132301,107334
132377,107333
132479,107388
132612,107449
132713,107503
132806,107521
132853,107543
132942,107566
133053,107626
133091,107623
133135,107665
133155,107647
133243,107705
133280,107699
133300,107751
133303,107715
133277,107721
133312,107726
133301,107720
133288,107660
133280,107689
133197,107677
133165,107648
133194,107657
133122,107614
133122,107604
133051,107617
133033,107579
133051,107565
132996,107574
132997,107574
132935,107558
132976,107561
132965,107563
133013,107560
132946,107547
132973,107583
132985,107573
133001,107579
133043,107585
133050,107578
132998,107588
133058,107588
133071,107625
133083,107612
133110,107609
133110,107625
133148,107642
133204,107672
133215,107654
133265,107657
133232,107654
133309,107703
133364,107731
133363,107728
133394,107734
133412,107721
133468,107767
133450,107743
133494,107758
133530,107800
133529,107798
133575,107815
133626,107807
133643,107845
133670,107841
133676,107862
133751,107878
133850,107886
133895,107944
133939,107955
134000,107956
134114,108001
134193,108077
134299,108072
134373,108117
134415,108146
134553,108208
134687,108244
134751,108264
134868,108289
134888,108330
135006,108348
135070,108396
135089,108376
135099,108386
135037,108386
135062,108353
134941,108337
134853,108295
134680,108209
134508,108132
134330,108066
134076,107924
133772,107807
133494,107723
133126,107584
132824,107442
132542,107316
132163,107206
131826,107063
131559,106920
131262,106818
130969,106692
130732,106588
130478,106496
130263,106469
130143,106365
130031,106292
129902,106267
129845,106241
129766,106209
129735,106224
129739,106187
129771,106218
129722,106194
129797,106240
129860,106237
129938,106282
129986,106316
130060,106332
130147,106386
130270,106425
130366,106467
130465,106518
130602,106540
130689,106618
130842,106648
130980,106680
131089,106767
131176,106780
131302,106875
131451,106892
131575,106913
131664,106994
131717,107022
131876,107075
132033,107112
132118,107158
132178,107163
132291,107245
132360,107259
132494,107296
132573,107349
132635,107383
132657,107415
132761,107409
132836,107462
132910,107474
132965,107495
133019,107523
133079,107543
133154,107556
133180,107554
133223,107608
133257,107625
133288,107651
133353,107629
133404,107660
133387,107669
133399,107695
133413,107676
133458,107698
133394,107649
133431,107648
133344,107671
133335,107662
133362,107632
133296,107623
133264,107605
133249,107596
133251,107585
133217,107585
133228,107555
133171,107564
133086,107526
133130,107540
133152,107533
133120,107538
133064,107535
133097,107526
133127,107561
133128,107531
133150,107567
133115,107549
133156,107560
133155,107545
133183,107577
133142,107559
133157,107557
133120,107524
133211,107595
133234,107567
133266,107575
133263,107624
133278,107573
133332,107618
133395,107642
133403,107646
133444,107666
133463,107700
133518,107703
133609,107724
133651,107739
133742,107786
133755,107822
133878,107853
133962,107906
134033,107916
134115,107943
134136,107970
134291,107996
134360,108055
134434,108033
134482,108080
134518,108111
134633,108158
134655,108144
134732,108200
134770,108196
134846,108208
134939,108263
134950,108264
135008,108279
135067,108285
135108,108349
135153,108349
135240,108375
135194,108343
135188,108334
135135,108330
135061,108279
134950,108207
134795,108158
134542,108051
134299,107956
134037,107861
133752,107733
133486,107616
133145,107505
132805,107345
132507,107233
132190,107093
131894,107017
131605,106863
131318,106766
131055,106671
130864,106570
130622,106491
130408,106409
130288,106364
130206,106321
130089,106262
130050,106242
129989,106230
129972,106233
129998,106222
130083,106239
130053,106245
130084,106254
130164,106294
130240,106353
130307,106378
130393,106400
130421,106438
130571,106468
130727,106507
130786,106584
130909,106620
130982,106635
131104,106701
131248,106739
131328,106761
131414,106798
131527,106862
131552,106891
131688,106928
131788,106956
131886,107007
131954,107036
132016,107079
132119,107088
132279,107159
132335,107226
132466,107243
132579,107301
132716,107339
132816,107366
132917,107405
133012,107440
133117,107473
133258,107560
133343,107602
133402,107621
133485,107630
133567,107680
133663,107710
133689,107744
133709,107729
133734,107714
133773,107774
133812,107747
133837,107760
133825,107763
133774,107771
133795,107752
133864,107730
133808,107767
133760,107738
133746,107730
133740,107743
133743,107701
133693,107703
133630,107655
133598,107662
133576,107649
133567,107642
133513,107604
133500,107606
133434,107602
133420,107587
133429,107581
133379,107556
133356,107536
133340,107546
133351,107528
133383,107564
133398,107567
133458,107588
133411,107629
133514,107614
133616,107682
133637,107651
133689,107702
133692,107695
133796,107716
133845,107735
133877,107773
133879,107773
133930,107784
133975,107811
134000,107816
134049,107812
134052,107863
134037,107834
134077,107859
134156,107876
134191,107871
134234,107931
134244,107942
134341,107964
134443,107981
134481,108007
134498,108013
134569,108028
134661,108096
134753,108105
134737,108121
134831,108152
134849,108145
134933,108203
134988,108196
135053,108221
135082,108220
135113,108276
135141,108290
135207,108280
135243,108303
135273,108322
135284,108363
135364,108377
135395,108332
135455,108369
135446,108381
135414,108374
135479,108392
135498,108412
135446,108384
135400,108327
135387,108368
135294,108311
135178,108254
135043,108186
134819,108111
134578,108020
134346,107893
134116,107807
133773,107644
133404,107523
133060,107368
132736,107237
132326,107086
131986,106957
131586,106765
131185,106633
130919,106551
130616,106392
130330,106265
130097,106196
129823,106080
129731,106021
129559,105964
129463,105936
129391,105915
129362,105882
129410,105897
129367,105872
129388,105910
129479,105912
129471,105956
129599,105989
129672,106014
129761,106038
129827,106117
129893,106098
130030,106151
130110,106224
130182,106232
130276,106249
130374,106332
130476,106351
130577,106377
130652,106421
130702,106469
130846,106491
130948,106520
131052,106601
131162,106662
131202,106636
131363,106733
131497,106749
131561,106794
131696,106829
131786,106886
131905,106906
132015,106964
132094,107006
132225,107059
132239,107060
132361,107138
132496,107165
132579,107192
132611,107194
132683,107251
132756,107258
132823,107297
132843,107278
132846,107296
132848,107287
132899,107322
132918,107301
132905,107309
132885,107290
132844,107296
132849,107296
132890,107301
132825,107282
132812,107280
132766,107244
132703,107222
132710,107216
132665,107201
132616,107203
132563,107172
132574,107153
132549,107176
132515,107127
132518,107107
132482,107134
132506,107141
132553,107141
132529,107149
132543,107146
132568,107149
132592,107186
132608,107206
132631,107184
132673,107187
132655,107225
132713,107215
132756,107230
132770,107266
132777,107271
132839,107260
132890,107298
132943,107313
132966,107324
132940,107325
132963,107339
133002,107355
133037,107337
133065,107384
133089,107377
133064,107361
133148,107369
133170,107398
133168,107363
133203,107388
133183,107389
133220,107431
133240,107412
133280,107443
133234,107451
133264,107445
133325,107460
133354,107481
133386,107478
133413,107481
133439,107506
133531,107561
133595,107583
133632,107579
133674,107570
133739,107618
133817,107670
133842,107666
133912,107670
133967,107705
133986,107741
134070,107756
134095,107733
134120,107787
134178,107778
134173,107803
134265,107811
134320,107852
134347,107834
134378,107857
134415,107890
134465,107915
134522,107904
134543,107949
134578,107949
134618,107941
134653,107967
134635,107970
134618,107958
134511,107905
134419,107863
134283,107818
134107,107722
133909,107644
133668,107558
133384,107443
133201,107356
132917,107268
132644,107153
132354,107044
132087,106948
131869,106813
131647,106729
131410,106629
131211,106557
131034,106510
130868,106422
130782,106350
130663,106316
130569,106292
130494,106266
130487,106281
130463,106270
130477,106249
130436,106273
130520,106253
130574,106334
130589,106323
130664,106332
130687,106393
130798,106376
130873,106426
130956,106468
131055,106514
131058,106522
131205,106549
131379,106617
131419,106685
131536,106702
131641,106744
131816,106824
131987,106909
132081,106928
132284,107010
132398,107065
132527,107144
132718,107201
132815,107244
132950,107284
133005,107328
133162,107391
133308,107423
133389,107447
133502,107482
133541,107530
133638,107546
133722,107590
133836,107600
133842,107663
133885,107620
133961,107694
134032,107714
134076,107672
134107,107722
134064,107734
134081,107735
134104,107726
134163,107737
134160,107716
134139,107727
134159,107745
134200,107733
134142,107717
134102,107709
134047,107692
134063,107671
134037,107666
134001,107679
133933,107637
133874,107614
133863,107603
133799,107554
133749,107559
133647,107496
133599,107466
133567,107469
133529,107456
133465,107433
133404,107418
133348,107362
133323,107356
133274,107367
133222,107309
133159,107311
133122,107268
133158,107308
133135,107248
133064,107267
133043,107256
133019,107239
133052,107239
133077,107262
133068,107274
133113,107274
133130,107305
133193,107315
133206,107304
133260,107339
133284,107360
133270,107354
133354,107374
133388,107394
133382,107407
133397,107395
133449,107426
133544,107438
133502,107441
133547,107489
133533,107438
133615,107481
133634,107508
133684,107507
133704,107542
133743,107536
133782,107576
133863,107607
133904,107585
133947,107606
133961,107638
134050,107681
134125,107697
134151,107718
134180,107717
134184,107701
134228,107748
134300,107774
134304,107756
134300,107775
134304,107755
134338,107803
134395,107788
134445,107799
134488,107814
134489,107850
134561,107823
134593,107848
134708,107885
134750,107933
134800,107942
134924,108003
135042,108059
135094,108082
135181,108103
135193,108116
135311,108122
135344,108157
135313,108139
135257,108107
135201,108076
135077,108042
134972,107962
134777,107883
134516,107787
134262,107695
133979,107574
133741,107457
133400,107336
133100,107185
132810,107102
132523,106962
132270,106877
131995,106787
131799,106677
131600,106610
131421,106515
131305,106470
131159,106432
131063,106371
130921,106348
130902,106316
130874,106330
130851,106289
130870,106284
130859,106337
130887,106341
130949,106350
131047,106403
131117,106410
131140,106457
131220,106482
131323,106482
131452,106564
131477,106571
131596,106592
131655,106669
131779,106677
131907,106744
131973,106762
132046,106836
132171,106868
132270,106905
132385,106936
132512,107000
132580,107070
132722,107079
132834,107134
132932,107172
133016,107208
133189,107296
133249,107300
133391,107344
133449,107393
133564,107421
133609,107453
133753,107480
133821,107543
133858,107538
133904,107546
133968,107604
134064,107626
134073,107626
134147,107633
134171,107648
134173,107662
134239,107671
134258,107690
134281,107677
134279,107706
134272,107684
134293,107723
134338,107705
134288,107685
134270,107665
134305,107703
134307,107694
134276,107673
134275,107687
134205,107651
134189,107622
134229,107678
134195,107647
134151,107604
134189,107637
134186,107648
134223,107651
134224,107647
134241,107670
134257,107642
134235,107683
134313,107677
134320,107676
134281,107672
134301,107685
134364,107670
134356,107690
134368,107645
134314,107684
134270,107662
134242,107649
134205,107658
134173,107603
134151,107587
134069,107558
134008,107551
134062,107549
133977,107535
133956,107503
133874,107507
133811,107448
133857,107448
133758,107449
133735,107424
133659,107407
133662,107396
133688,107391
133640,107364
133621,107376
133582,107363
133617,107383
133612,107372
133617,107384
133600,107382
133570,107348
133613,107367
133646,107378
133658,107385
133635,107396
133577,107371
133609,107363
133674,107382
133635,107391
133614,107361
133619,107369
133620,107399
133640,107356
133631,107352
133610,107349
133559,107352
133592,107366
133644,107383
133625,107368
133629,107335
133621,107353
133592,107367
133613,107369
133635,107338
133601,107334
133568,107324
133540,107333
133494,107301
133361,107238
133279,107199
133088,107106
132952,107028
132718,106947
132492,106860
132205,106767
131897,106623
131650,106508
131410,106431
131103,106311
130843,106164
130565,106061
130335,105981
130128,105895
129938,105814
129748,105724
129597,105647
129536,105621
129455,105616
129412,105595
129357,105571
129345,105576
129360,105573
129442,105589
129468,105606
129544,105648
129562,105664
129669,105698
129744,105710
129771,105747
129849,105787
129889,105801
129956,105846
130017,105856
130079,105861
130074,105871
130142,105896
130204,105917
130278,105961
130348,105974
130390,106023
130441,106013
130562,106100
130658,106108
130775,106150
130844,106195
130939,106244
131106,106307
131197,106350
131309,106380
131431,106441
131520,106505
131650,106535
131757,106578
131878,106611
131976,106684
132053,106671
132168,106755
132280,106748
132354,106814
132396,106818
132474,106849
132536,106896
132638,106930
132632,106873
132688,106926
132713,106965
132777,106958
132796,106951
132879,106997
132841,106974
132819,106980
132860,106987
132862,106970
132773,106979
132777,106961
132753,106953
132725,106921
132726,106910
132668,106895
132623,106888
132619,106873
132578,106879
132531,106838
132530,106828
132471,106809
132480,106836
132481,106823
132484,106807
132494,106788
132456,106796
132428,106803
132479,106815
132491,106792
132533,106819
132502,106848
132503,106828
132596,106856
132658,106870
132678,106923
132723,106902
132809,106947
132901,107004
132969,107013
132995,107048
133032,107048
133138,107113
133171,107140
133236,107136
133284,107166
133303,107184
133362,107201
133419,107230
133429,107243
133436,107220
133455,107186
133490,107264
133497,107261
133492,107248
133496,107237
133482,107221
133492,107257
133535,107275
133515,107257
133548,107243
133544,107249
133558,107264
133586,107265
133632,107265
133636,107305
133605,107298
133676,107298
133720,107316
133772,107328
133810,107357
133846,107377
133902,107433
133942,107399
133958,107425
133982,107441
133984,107434
134029,107455
134087,107457
134061,107466
134033,107452
134001,107431
133972,107393
133908,107363
133802,107343
133638,107257
133483,107191
133322,107097
133068,107011
132863,106893
132579,106809
132257,106688
131988,106572
131717,106470
131451,106320
131124,106180
130826,106118
130610,105979
130354,105893
130120,105792
129942,105728
129743,105622
129618,105600
129511,105530
129384,105464
129322,105464
129230,105443
129225,105457
129227,105407
129249,105434
129275,105464
129328,105482
129382,105496
129473,105516
129593,105594
129645,105609
129730,105682
129865,105712
130045,105761
130086,105839
130230,105848
130383,105963
130534,106003
130654,106053
130775,106085
130883,106135
131002,106208
131162,106228
131277,106317
131393,106337
131510,106396
131601,106459
131760,106493
131851,106542
131961,106560
132032,106594
132102,106637
132245,106695
132347,106745
132405,106748
132471,106820
132555,106827
132671,106873
132757,106923
132790,106919
132834,106933
132918,106996
132963,107001
133009,107001
133056,107036
133037,107048
133084,107044
133149,107047
133144,107061
133112,107045
133131,107058
133127,107080
133156,107066
133159,107070
133153,107067
133087,107024
133123,107036
133106,107055
133065,107017
133037,106982
132940,106990
132946,106969
132905,106948
132879,106900
132823,106922
132774,106886
132782,106887
132732,106861
132734,106859
132660,106829
132637,106851
132626,106824
132651,106826
132669,106817
132621,106833
132577,106818
132636,106829
132695,106823
132705,106835
132706,106889
132684,106891
132746,106856
132799,106896
132848,106889
132798,106904
132851,106912
132908,106963
132947,106981
132996,106968
133071,107014
133073,107029
133186,107043
133262,107083
133304,107090
133428,107151
133470,107173
133614,107212
133739,107287
133801,107338
133870,107353
133978,107366
134113,107449
134193,107480
134277,107506
134372,107551
134397,107582
134513,107595
134629,107640
134676,107660
134685,107675
134693,107657
134823,107734
134820,107736
134856,107722
134866,107739
134864,107752
134965,107776
135021,107793
135067,107797
135097,107816
135133,107851
135179,107881
135245,107881
135294,107883
135260,107913
135195,107867
135154,107842
135050,107810
134953,107740
134790,107683
134594,107591
134356,107495
134156,107408
133874,107303
133579,107144
133281,107061
133004,106921
132717,106835
132395,106681
132140,106575
131829,106504
131617,106387
131379,106291
131192,106193
131044,106158
130864,106067
130809,106043
130693,106005
130626,105968
130538,105927
130521,105932
130489,105961
130476,105947
130509,105942
130518,105966
130530,105940
130601,105972
130675,106025
130679,106005
130747,106043
130761,106070
130871,106117
130958,106114
131048,106195
131081,106194
131188,106245
131331,106288
131380,106336
131539,106378
131643,106417
131731,106493
131871,106523
131995,106570
132085,106634
132178,106645
132304,106662
132426,106755
132496,106796
132605,106837
132662,106853
132755,106923
132868,106954
133006,106964
133069,107016
133130,107045
133272,107072
133376,107118
133446,107169
133498,107153
133536,107211
133574,107216
133667,107233
133700,107250
133731,107255
133741,107266
133731,107273
133742,107272
133738,107256
133716,107237
133735,107254
133690,107257
133687,107248
133637,107216
133623,107215
133567,107194
133589,107193
133561,107199
133510,107149
133498,107183
133435,107131
133446,107155
133442,107133
133427,107102
133402,107106
133340,107099
133357,107077
133337,107099
133356,107095
133334,107087
133305,107110
133333,107083
133364,107134
133382,107082
133438,107134
133381,107126
133427,107140
133517,107176
133546,107164
133562,107173
133537,107180
133599,107171
133637,107202
133685,107215
133656,107215
133628,107224
133689,107219
133704,107246
133733,107233
133700,107229
133727,107249
133728,107246
133756,107287
133778,107280
133778,107265
133808,107304
133845,107297
133878,107298
133964,107333
133947,107367
133989,107354
134011,107352
134057,107371
134088,107385
134101,107422
134155,107411
134193,107442
134260,107446
134231,107471
134309,107484
134303,107481
134408,107529
134453,107532
134516,107551
134552,107585
134627,107624
134692,107642
134805,107662
134842,107706
134890,107714
134913,107733
135003,107758
134990,107774
135028,107749
134937,107708
134905,107708
134820,107696
134678,107590
134523,107536
134273,107422
133991,107280
133794,107222
133460,107094
133091,106919
132753,106778
132382,106632
131985,106467
131606,106295
131265,106198
130937,106054
130637,105916
130432,105843
130171,105730
129964,105639
129753,105553
129610,105473
129504,105455
129367,105399
129271,105382
129187,105329
129115,105314
129141,105302
129160,105300
129115,105316
129113,105302
129158,105353
129192,105346
129250,105350
129332,105408
129349,105410
129445,105466
129520,105486
129585,105499
129706,105553
129723,105575
129804,105604
129919,105637
129976,105674
130050,105674
130092,105729
130208,105793
130311,105816
130398,105831
130540,105913
130608,105950
130712,106002
130838,106041
130942,106079
131062,106101
131172,106175
131270,106225
131436,106255
131486,106328
131580,106339
131665,106382
131772,106403
131880,106455
131997,106526
132051,106514
132115,106558
132209,106610
132310,106619
132380,106679
132458,106686
132525,106709
132610,106777
132652,106773
132709,106780
132730,106841
132746,106836
132772,106815
132795,106842
132800,106816
132789,106839
132765,106836
132740,106792
132758,106819
132745,106784
132700,106793
132668,106746
132655,106783
132638,106754
132625,106730
132589,106745
132526,106714
132568,106731
132554,106722
132549,106699
132548,106734
132540,106709
132571,106740
132561,106733
132604,106730
132556,106729
132504,106709
132585,106758
132616,106734
132590,106754
132554,106740
132545,106711
132648,106743
132662,106764
132664,106772
132697,106776
132668,106762
132791,106809
132817,106847
132845,106828
132878,106824
132922,106859
132970,106886
133061,106903
133093,106936
133129,106959
133150,106988
133236,107000
133262,106993
133305,107053
133323,107035
133357,107051
133418,107104
133428,107073
133448,107095
133446,107108
133468,107100
133521,107110
133553,107139
133566,107165
133537,107174
133512,107112
133578,107150
133574,107140
133578,107141
133579,107124
133578,107144
133604,107155
133610,107131
133645,107155
133670,107185
133713,107205
133747,107234
133797,107216
133820,107252
133822,107244
133893,107255
133932,107288
133946,107291
133926,107274
133909,107247
133819,107200
133769,107214
133633,107126
133433,107054
133197,106952
132959,106888
132727,106721
132430,106630
132092,106486
131754,106362
131341,106197
131050,106062
130656,105924
130375,105785
130033,105655
129768,105536
129534,105464
129302,105340
129134,105288
128943,105200
128774,105158
128743,105109
128635,105084
128561,105048
128544,105028
128517,105060
128542,105048
128541,105046
128574,105053
128593,105069
128668,105094
128712,105118
128813,105172
128855,105187
128928,105223
129018,105239
129147,105293
129244,105349
129339,105404
129407,105417
129551,105507
129651,105511
129771,105562
129873,105607
129933,105666
130009,105665
130133,105711
130247,105748
130291,105826
130377,105840
130432,105862
130580,105898
130671,105930
130728,105990
130814,106006
130875,106051
130966,106065
131040,106081
131128,106147
131154,106134
131233,106162
131277,106183
131327,106216
131346,106232
131375,106228
131423,106251
131463,106272
131491,106252
131472,106282
131464,106252
131546,106300
131543,106305
131559,106298
131553,106332
131536,106300
131608,106345
131612,106323
131656,106336
131687,106386
131681,106382
131761,106393
131760,106428
131771,106384
131794,106421
131770,106405
131841,106407
131820,106409
131854,106410
131833,106413
131810,106415
131840,106413
131806,106419
131796,106409
131755,106409
131719,106375
131721,106398
131744,106410
131738,106379
131743,106383
131797,106399
131789,106443
131828,106415
131879,106453
131888,106473
131922,106459
132024,106494
132071,106546
132107,106524
132124,106573
132143,106597
132228,106589
132250,106602
132292,106627
132299,106641
132309,106639
132373,106659
132421,106654
132447,106706
132433,106673
132482,106724
132552,106720
132600,106721
132633,106733
132665,106769
132676,106816
132750,106816
132814,106838
132846,106880
132860,106866
132907,106869
133014,106929
133084,106939
133110,106985
133103,106983
133184,106959
133296,107047
133325,107072
133404,107067
133421,107108
133497,107126
133607,107162
133663,107196
133718,107195
133792,107209
133828,107304
133929,107305
133976,107321
134033,107345
134045,107339
134129,107391
134164,107401
134217,107399
134220,107424
134183,107390
134184,107393
134183,107373
134117,107349
134006,107287
133843,107212
133654,107181
133486,107071
133207,106959
132988,106828
132632,106714
132336,106586
132007,106462
131717,106359
131342,106194
130997,106076
130711,105943
130452,105818
130190,105729
129919,105617
129689,105536
129540,105443
129405,105407
129290,105371
129160,105301
129081,105277
129062,105274
129076,105284
129053,105284
129003,105239
129063,105255
129089,105320
129136,105333
129217,105356
129230,105350
129267,105398
129288,105402
129387,105428
129424,105440
129457,105460
129462,105467
129585,105531
129609,105543
129651,105534
129737,105564
129721,105582
129873,105627
129962,105657
130042,105713
130090,105729
130183,105745
130326,105804
130476,105860
130502,105920
130639,105932
130773,106017
130880,106054
131018,106128
131108,106158
131245,106187
131297,106254
131419,106265
131518,106324
131610,106339
131671,106390
131756,106422
131801,106450
131901,106473
131908,106470
131998,106509
131962,106494
132035,106519
132043,106493
132075,106538
132047,106499
132029,106533
132049,106516
132026,106535
131985,106485
131985,106500
131908,106493
131978,106496
131958,106474
131880,106458
131871,106430
131841,106459
131852,106427
131845,106454
131844,106430
131801,106421
131815,106414
131765,106428
131790,106406
131766,106388
131758,106386
131682,106381
131733,106414
131703,106386
131694,106356
131682,106350
131673,106358
131635,106360
131691,106383
131685,106375
131657,106364
131716,106421
131748,106401
131752,106397
131781,106450
131827,106436
131830,106432
131907,106490
131926,106472
131960,106474
131991,106483
131978,106483
132044,106536
132035,106529
132046,106519
132088,106531
132106,106555
132115,106583
132171,106587
132222,106623
132250,106606
132332,106675
132366,106656
132413,106697
132455,106715
132474,106692
132587,106734
132609,106792
132658,106779
132711,106810
132736,106830
132757,106827
132857,106871
132863,106907
132914,106894
132952,106913
132981,106898
133054,106946
133064,106963
133097,106981
133105,106962
133161,106986
133192,107012
133236,107011
133209,106985
133209,106978
133242,107037
133290,107025
133273,107016
133276,107018
133240,107048
133234,107001
133272,107019
133215,106994
133193,106975
133117,106958
133011,106895
132899,106854
132761,106802
132567,106712
132317,106603
132132,106528
131859,106414
131581,106282
131258,106167
130972,106064
130649,105961
130454,105848
130144,105716
129903,105632
129641,105511
129454,105434
129322,105408
129187,105321
129053,105301
128936,105256
128931,105225
128904,105217
128899,105203
128855,105185
128886,105204
128877,105266
128935,105240
129022,105253
129017,105292
129037,105332
129144,105337
129226,105371
129275,105408
129348,105414
129393,105454
129504,105515
129596,105536
129682,105557
129765,105612
129871,105645
129985,105696
130128,105761
130170,105789
130271,105804
130355,105848
130493,105900
130601,105942
130660,105985
130739,106004
130833,106080
130946,106081
131039,106111
131124,106169
131217,106214
131248,106221
131358,106277
131482,106307
131533,106311
131596,106371
131635,106373
131716,106420
131760,106413
131825,106426
131855,106483
131865,106480
131984,106501
131974,106510
131952,106499
131966,106497
131972,106504
131991,106501
131983,106519
131951,106493
131923,106465
131846,106469
131887,106443
131840,106438
131785,106398
131758,106394
131698,106388
131668,106374
131636,106351
131609,106318
131561,106313
131535,106315
131493,106291
131508,106299
131470,106315
131457,106290
131467,106281
131487,106324
131473,106282
131486,106284
131467,106294
131503,106293
131524,106314
131514,106306
131546,106323
131523,106331
131576,106327
131613,106318
131640,106350
131631,106341
131639,106355
131670,106370
131770,106411
131741,106409
131807,106418
131808,106452
131816,106423
131857,106442
131901,106481
131919,106470
131926,106484
131944,106520
132034,106489
132040,106513
132050,106547
132013,106504
132127,106566
132129,106585
132159,106568
132218,106586
132242,106618
132251,106632
132318,106660
132371,106679
132410,106681
132396,106711
132523,106720
132566,106739
132610,106767
132609,106727
132620,106775
132669,106795
132750,106807
132815,106843
132817,106868
132841,106845
132959,106924
133004,106913
133051,106938
133022,106925
133080,106939
133141,106975
133153,106981
133193,106972
133149,106998
133100,106957
133095,106931
133002,106882
132932,106849
132733,106795
132524,106720
132326,106592
132167,106528
131858,106458
131546,106276
131237,106189
130916,106046
130642,105950
130345,105803
130073,105690
129718,105567
129494,105458
129254,105321
128988,105255
128794,105156
128614,105073
128471,105038
128327,104975
128289,104948
128181,104944
128057,104895
128079,104860
128052,104853
127986,104868
127998,104840
127977,104863
128056,104841
128075,104878
128107,104893
128130,104887
128147,104942
128276,104970
128296,104981
128332,104972
128406,105034
128448,105052
128569,105084
128666,105098
128719,105139
128756,105175
128851,105226
128927,105267
129051,105287
129104,105324
129151,105326
129264,105406
129375,105457
129443,105448
129547,105496
129591,105537
129671,105584
129806,105567
129904,105663
129944,105656
130072,105731
130122,105764
130284,105808
130326,105828
130413,105839
130444,105871
130561,105895
130639,105933
130692,105965
130720,105987
130736,105979
130787,106022
130787,106020
130791,105995
130823,106023
130752,106014
130770,105999
130757,105997
130749,105961
130698,105981
130634,105937
130641,105934
130636,105960
130592,105924
130583,105908
130576,105903
130545,105944
130569,105887
130563,105923
130546,105912
130567,105900
130584,105946
130590,105916
130606,105921
130584,105912
130576,105933
130587,105917
130651,105946
130622,105966
130612,105920
130628,105934
130590,105937
130649,105946
130643,105925
130637,105943
130604,105922
130610,105940
130661,105972
130719,105963
130725,105992
130687,105986
130799,105991
130843,106029
130861,106028
130895,106047
130877,106068
130969,106070
131054,106116
131049,106145
131094,106126
131141,106139
131196,106214
131267,106214
131319,106227
131342,106250
131376,106269
131481,106280
131564,106310
131581,106319
131601,106331
131629,106353
131641,106365
131679,106347
131690,106352
131703,106393
131695,106384
131769,106404
131810,106444
131814,106455
131846,106427
131884,106462
131931,106493
131976,106476
131976,106523
132013,106524
132035,106551
132067,106516
132086,106561
132056,106528
132028,106550
131904,106487
131902,106443
131761,106399
131594,106291
131347,106241
131102,106106
130885,106002
130545,105895
130223,105727
129887,105598
129573,105482
129238,105366
128961,105231
128641,105090
128393,105002
128110,104887
127944,104797
127766,104703
127581,104670
127449,104594
127391,104548
127319,104567
127255,104523
127243,104523
127221,104527
127216,104498
127317,104554
127351,104592
127384,104580
127428,104593
127452,104632
127583,104643
127652,104705
127715,104720
127748,104736
127860,104792
127937,104835
128000,104846
128142,104864
128199,104948
128278,104947
128414,105027
128458,105022
128605,105063
128633,105142
128719,105174
128810,105201
128934,105247
128989,105295
129079,105269
129157,105312
129246,105348
129300,105386
129363,105425
129445,105452
129527,105488
129692,105578
129783,105618
129849,105613
129994,105705
130068,105714
130176,105746
130261,105800
130327,105815
130403,105832
130442,105886
130572,105936
130580,105928
130668,105945
130705,105972
130693,105973
130791,105996
130761,105988
130816,106012
130749,105992
130753,105988
130778,105984
130765,105987
130719,105970
130684,105962
130641,105940
130646,105919
130617,105909
130528,105927
130521,105885
130505,105897
130500,105870
130483,105891
130487,105861
130447,105861
130475,105854
130487,105867
130537,105891
130565,105904
130550,105909
130615,105926
130691,105952
130708,105998
130745,105979
130796,106013
130828,106020
130905,106041
130987,106085
130964,106079
130964,106091
131084,106133
131132,106158
131174,106171
131264,106187
131315,106235
131388,106272
131508,106295
131622,106351
131676,106400
131754,106432
131928,106464
131985,106530
132086,106562
132129,106582
132225,106630
132292,106657
132356,106661
132392,106691
132417,106677
132451,106706
132494,106729
132525,106722
132523,106722
132553,106730
132534,106747
132578,106757
132567,106727
132547,106735
132603,106761
132602,106766
132640,106782
132640,106796
132687,106777
132727,106823
132748,106840
132818,106838
132914,106885
132929,106925
132979,106893
133040,106948
133133,106969
133183,107003
133166,106966
133170,107007
133105,106967
133085,106959
132979,106909
132820,106804
132602,106739
132404,106642
132159,106544
131851,106429
131571,106292
131197,106153
130866,106033
130557,105905
130235,105752
129937,105612
129647,105556
129397,105399
129202,105329
129017,105239
128822,105203
128668,105113
128590,105068
128527,105081
128451,105044
128432,105012
128388,105036
128369,105020
128452,105010
128487,105060
128527,105089
128527,105080
128626,105106
128680,105152
128748,105151
128816,105204
128895,105235
129001,105280
129087,105320
129220,105352
129271,105411
129379,105417
129491,105465
129589,105518
129668,105536
129712,105602
129793,105567
129855,105632
129968,105679
130017,105682
130097,105729
130084,105741
130200,105749
130299,105802
130372,105829
130424,105876
130482,105901
130589,105938
130734,105993
130803,106038
130895,106063
131010,106102
131103,106150
131183,106147
131296,106195
131346,106243
131385,106271
131500,106284
131562,106374
131597,106343
131663,106353
131688,106381
131695,106406
131765,106426
131791,106434
131767,106395
131766,106401
131782,106418
131840,106399
131801,106432
131748,106388
131743,106409
131750,106399
131745,106383
131701,106379
131698,106383
131657,106349
131702,106364
131642,106370
131603,106339
131598,106319
131560,106284
131554,106320
131558,106274
131557,106311
131508,106293
131479,106304
131529,106309
131550,106309
131512,106294
131541,106312
131519,106300
131564,106319
131561,106331
131547,106339
131603,106312
131572,106355
131632,106344
131695,106380
131705,106370
131703,106397
131691,106385
131800,106398
131847,106447
131874,106429
131929,106489
131948,106469
132056,106505
132089,106550
132174,106542
132173,106603
132249,106595
132413,106664
132420,106695
132523,106708
132606,106754
132680,106777
132763,106812
132860,106863
132899,106879
132967,106886
132966,106933
133102,106975
133148,106993
133207,106988
133225,106984
133262,107027
133302,107039
133351,107040
133383,107041
133394,107101
133424,107077
133547,107119
133589,107142
133610,107153
133658,107145
133701,107186
133792,107254
133849,107229
133912,107285
133918,107291
133983,107304
134055,107321
134040,107312
134036,107298
133967,107249
133907,107247
133809,107208
133647,107119
133480,107054
133188,106934
132906,106849
132677,106712
132376,106591
132035,106447
131651,106325
131303,106171
130982,106037
130669,105896
130300,105776
129974,105613
129713,105531
129455,105430
129245,105342
129018,105228
128873,105202
128740,105145
128633,105063
128603,105098
128544,105061
128534,105065
128566,105078
128585,105076
128649,105087
128652,105111
128724,105168
128797,105170
128901,105243
128961,105240
129076,105272
129094,105292
129215,105364
129338,105379
129404,105433
129480,105485
129543,105473
129657,105544
129771,105595
129853,105628
129925,105640
130014,105676
130120,105759
130221,105755
130274,105802
130364,105821
130433,105842
130542,105898
130684,105935
130769,105982
130832,106024
130948,106076
131043,106123
131119,106127
131186,106142
131246,106168
131302,106222
131403,106234
131473,106279
131504,106298
131567,106291
131587,106328
131635,106331
131702,106374
131712,106382
131718,106350
131729,106374
131756,106391
131739,106390
131763,106354
131717,106352
131697,106340
131687,106372
131660,106362
131612,106314
131584,106302
131525,106295
131538,106278
131484,106277
131460,106240
131365,106230
131340,106241
131334,106176
131328,106175
131265,106172
131264,106140
131252,106141
131203,106183
131237,106148
131254,106174
131185,106132
131233,106152
131216,106194
131267,106158
131244,106165
131197,106163
131242,106160
131263,106207
131263,106158
131305,106191
131270,106171
131294,106190
131373,106236
131367,106243
131382,106219
131375,106243
131360,106244
131426,106229
131488,106260
131514,106279
131509,106273
131531,106285
131590,106335
131621,106315
131640,106325
131657,106359
131672,106366
131800,106396
131827,106439
131850,106420
131909,106434
131982,106463
132007,106497
132124,106524
132150,106546
132156,106581
132216,106573
132284,106594
132359,106636
132374,106643
132447,106636
132521,106685
132572,106723
132618,106748
132690,106764
132721,106771
132786,106809
132885,106867
132924,106854
132982,106873
133011,106878
133112,106940
133146,106984
133203,106954
133284,107000
133260,106983
133332,107035
133349,107028
133376,107029
133380,107007
133319,107028
133318,106992
133329,106983
133197,106940
133021,106869
132827,106779
132622,106710
132408,106587
132138,106473
131847,106335
131471,106221
131103,106082
130768,105946
130432,105788
130071,105655
129732,105515
129461,105399
129192,105288
128934,105197
128698,105097
128475,104984
128328,104936
128246,104911
128093,104854
128054,104820
127957,104795
127971,104797
127908,104770
127926,104793
127920,104778
127928,104790
127989,104827
128044,104838
128123,104870
128126,104867
128186,104921
128256,104962
128326,104975
128445,105003
128515,105030
128555,105075
128630,105105
128749,105144
128798,105170
128900,105178
128975,105227
129054,105299
129164,105290
129227,105353
129309,105386
129468,105433
129572,105462
129701,105548
129815,105596
129924,105624
130057,105694
130174,105775
130327,105775
130454,105865
130538,105910
130648,105947
130767,105947
130894,106039
130926,106047
130999,106087
131077,106093
131158,106151
131264,106176
131283,106184
131332,106212
131318,106223
131366,106200
131401,106217
131417,106242
131421,106248
131412,106248
131471,106256
131488,106297
131480,106245
131493,106256
131500,106258
131538,106303
131500,106246
131515,106260
131456,106254
131431,106228
131474,106248
131408,106247
131428,106223
131379,106224
131323,106185
131319,106217
131273,106154
131265,106171
131217,106151
131227,106168
131225,106176
131207,106150
131180,106149
131159,106127
131117,106120
131171,106125
131146,106109
131173,106118
131189,106182
131209,106180
131284,106190
131319,106190
131370,106219
131376,106239
131393,106230
131480,106259
131570,106283
131608,106326
131663,106332
131724,106372
131771,106384
131833,106419
131826,106420
131883,106438
131904,106462
132004,106507
132015,106475
132026,106499
132056,106517
132095,106533
132136,106529
132151,106537
132190,106537
132149,106521
132194,106589
132236,106568
132248,106599
132238,106560
132198,106592
132289,106620
132301,106599
132345,106606
132359,106643
132303,106615
132378,106645
132386,106628
132424,106666
132445,106649
132451,106684
132475,106669
132544,106704
132581,106706
132595,106719
132650,106742
132678,106742
132772,106807
132767,106778
132848,106804
132801,106808
132899,106825
132960,106874
132928,106860
132951,106881
132971,106882
132998,106873
133024,106883
133014,106884
132976,106857
132919,106826
132867,106821
132780,106776
132668,106727
132442,106632
132257,106549
132046,106441
131745,106345
131485,106246
131141,106095
130771,105947
130440,105824
130152,105692
129751,105549
129448,105395
129103,105247
128870,105168
128605,105051
128396,104973
128201,104886
127992,104818
127920,104787
127816,104727
127756,104698
127704,104660
127660,104675
127716,104683
127736,104710
127701,104706
127741,104712
127787,104736
127874,104753
127979,104793
128045,104831
128133,104862
128175,104904
128314,104964
128423,104996
128503,105036
128609,105091
128658,105113
128806,105171
128912,105191
128960,105213
129063,105264
129091,105323
129241,105342
129284,105364
129367,105387
129425,105416
129474,105456
129590,105483
129635,105481
129737,105542
129756,105580
129857,105605
129969,105651
130068,105672
130138,105721
130239,105771
130325,105782
130430,105836
130529,105879
130601,105892
130671,105922
130709,105950
130850,105990
130906,106017
130906,106031
130965,106062
130991,106062
131031,106071
131066,106078
131040,106081
131031,106043
131015,106071
131043,106077
130970,106015
130915,106016
130868,106016
130811,105988
130791,105983
130712,105929
130632,105906
130491,105874
130512,105833
130503,105826
130458,105825
130455,105841
130362,105829
130398,105814
130433,105811
130376,105811
130370,105793
130387,105833
130395,105833
130473,105818
130495,105884
130526,105873
130523,105887
130577,105901
130671,105936
130704,105940
130779,105968
130801,105974
130865,106018
130970,106038
131018,106073
131094,106128
131133,106127
131242,106154
131323,106186
131355,106197
131407,106256
131409,106218
131485,106282
131547,106264
131544,106330
131538,106260
131580,106317
131596,106309
131616,106347
131657,106335
131657,106309
131651,106364
131641,106352
131733,106382
131716,106356
131757,106380
131754,106388
131844,106419
131865,106428
131940,106437
131941,106478
131969,106469
132017,106509
132078,106535
132106,106518
132173,106541
132137,106544
132224,106610
132281,106588
132279,106597
132309,106588
132346,106659
132423,106648
132448,106656
132554,106685
132592,106727
132607,106705
132728,106784
132799,106775
132847,106818
132843,106827
132892,106878
132958,106852
133009,106877
132962,106872
132915,106850
132842,106803
132813,106789
132681,106727
132535,106652
132292,106567
132064,106452
131854,106355
131563,106295
131273,106137
130926,105983
130627,105868
130326,105762
130036,105652
129723,105522
129434,105422
129178,105296
128990,105207
128814,105153
128636,105070
128469,105005
128379,104964
128275,104957
128212,104879
128162,104876
128083,104881
128096,104844
128157,104876
128115,104888
128151,104880
128150,104876
128185,104898
128248,104920
128299,104958
128351,104969
128325,104969
128436,105039
128514,105066
128527,105036
128595,105071
128664,105124
128764,105148
128842,105185
128898,105202
128995,105233
129072,105274
129189,105322
129275,105374
129389,105425
129477,105443
129599,105524
129732,105546
129899,105606
130000,105645
130117,105701
130197,105780
130336,105828
130461,105857
130541,105929
130594,105921
130663,105925
130759,105974
130797,106011
130846,106005
130932,106011
130974,106079
131078,106114
131092,106144
131119,106109
131126,106118
131116,106147
131130,106108
131100,106104
131059,106091
131028,106060
130907,106035
130839,106004
130769,105956
130618,105913
130494,105872
130379,105799
130285,105761
130146,105718
130028,105657
129929,105603
129797,105602
129722,105551
129673,105533
129574,105477
129512,105428
129466,105425
129474,105437
129464,105434
129372,105398
129332,105374
129346,105394
129345,105388
129329,105392
129338,105346
129338,105350
129320,105405
129336,105390
129386,105422
129382,105419
129390,105392
129433,105437
129480,105441
129578,105465
129606,105508
129644,105520
129706,105522
129773,105582
129812,105564
129861,105615
129871,105602
129967,105640
130021,105689
130056,105691
130063,105683
130102,105717
130122,105739
130179,105762
130220,105738
130233,105750
130229,105784
130242,105766
130328,105779
130323,105816
130338,105801
130370,105831
130407,105826
130492,105877
130527,105863
130565,105882
130648,105938
130667,105914
130772,105995
130846,105994
130909,106026
130928,106059
130987,106088
131084,106129
131151,106142
131176,106140
131223,106151
131230,106158
131303,106190
131279,106199
131268,106186
131293,106208
131269,106179
131275,106183
131196,106182
131163,106119
131020,106090
130863,106027
130731,105944
130542,105883
130295,105762
130051,105639
129752,105548
129495,105425
129227,105304
128945,105207
128643,105099
128386,105001
128124,104875
127884,104798
127658,104662
127467,104631
127297,104524
127166,104509
127057,104433
126996,104400
126860,104339
126792,104334
126768,104307
126744,104311
126729,104298
126762,104313
126756,104321
126811,104336
126873,104389
126861,104368
126894,104388
126963,104403
127050,104430
127089,104458
127153,104491
127193,104490
127319,104556
127387,104581
127477,104624
127539,104675
127649,104687
127815,104755
127900,104821
128035,104867
128158,104937
128316,105003
128491,105069
128636,105142
128792,105175
128953,105270
129059,105305
129301,105407
129474,105459
129604,105523
129775,105602
129896,105642
130063,105740
130243,105793
130375,105821
130511,105849
130570,105927
130726,105974
130781,106013
130813,106020
130859,106008
130833,106038
130864,106041
130874,106020
130825,106015
130753,105980
130742,105960
130723,105963
130668,105957
130624,105931
130566,105880
130542,105884
130496,105885
130506,105837
130450,105867
130380,105815
130369,105810
130371,105811
130330,105813
130296,105807
130247,105750
130218,105752
130198,105764
130207,105719
130161,105721
130140,105722
130089,105697
130143,105731
130115,105714
130077,105719
130105,105698
130107,105737
130160,105738
130162,105732
130218,105764
130216,105737
130216,105767
130314,105818
130337,105803
130339,105822
130400,105842
130414,105856
130500,105870
130559,105906
130563,105902
130631,105939
130656,105956
130772,106019
130823,105989
130827,106015
130889,106059
130964,106054
131002,106084
131082,106124
131102,106114
131118,106110
131148,106174
131244,106195
131272,106167
131270,106213
131261,106223
131278,106227
131323,106213
131388,106233
131406,106241
131366,106263
131415,106250
131453,106255
131487,106272
131510,106282
131507,106290
131551,106321
131579,106331
131631,106347
131688,106353
131686,106371
131780,106392
131850,106446
131943,106446
131993,106486
132049,106514
132138,106568
132246,106564
132280,106631
132367,106642
132408,106671
132486,106669
132543,106718
132540,106691
132543,106689
132465,106669
132428,106652
132303,106603
132120,106513
131958,106452
131691,106338
131402,106234
131125,106087
130809,105956
130484,105855
130097,105702
129789,105579
129481,105413
129155,105285
128843,105185
128609,105090
128371,105005
128180,104896
127957,104840
127806,104762
127647,104715
127571,104651
127549,104649
127458,104633
127455,104620
127422,104619
127451,104602
127455,104657
127516,104635
127513,104662
127592,104687
127662,104725
127722,104748
127839,104759
127906,104815
127987,104836
128073,104898
128159,104923
128250,104954
128332,104979
128407,105038
128487,105086
128634,105086
128680,105106
128709,105149
128788,105173
128856,105220
128974,105247
129011,105287
129061,105283
129135,105335
129249,105359
129344,105391
129411,105462
129477,105465
129587,105510
129700,105575
129821,105594
129902,105615
129934,105656
129996,105669
130126,105733
130198,105746
130266,105777
130259,105804
130296,105786
130396,105808
130386,105830
130447,105864
130395,105827
130416,105842
130454,105859
130435,105830
130441,105858
130396,105832
130381,105850
130404,105829
130419,105815
130363,105799
130329,105802
130259,105777
130252,105762
130265,105743
130162,105725
130055,105686
130047,105694
129983,105660
129934,105624
129865,105576
129747,105578
129725,105547
129720,105550
129712,105508
129664,105526
129614,105495
129619,105509
129672,105512
129650,105504
129682,105536
129713,105559
129731,105559
129855,105562
129959,105650
130002,105668
130051,105670
130159,105740
130273,105801
130328,105765
130385,105835
130505,105867
130547,105878
130633,105897
130728,105956
130730,105953
130739,105984
130774,105990
130759,105990
130827,105980
130801,105951
130757,105985
130776,105993
130844,105972
130835,105962
130838,105984
130873,105990
130938,106027
130987,106057
131040,106052
131114,106092
131130,106119
131209,106134
131316,106149
131354,106224
131402,106207
131415,106244
131475,106239
131558,106256
131576,106314
131614,106290
131618,106309
131667,106330
131685,106323
131702,106310
131686,106323
131611,106324
131635,106307
131629,106289
131640,106316
131605,106284
131571,106285
131567,106297
131581,106260
131561,106250
131577,106266
131586,106273
131650,106300
131627,106314
131624,106286
131551,106262
131454,106205
131389,106156
131283,106131
131025,106011
130787,105932
130532,105795
130198,105706
129842,105537
129535,105426
129118,105236
128727,105062
128464,104949
128113,104837
127817,104686
127500,104567
127289,104472
127117,104419
126918,104320
126794,104270
126618,104196
126498,104168
126417,104125
126350,104114
126311,104069
126224,104046
126222,104023
126263,104047
126245,104057
126254,104039
126305,104080
126344,104053
126420,104091
126488,104172
126570,104169
126625,104208
126720,104254
126892,104286
126961,104393
127091,104385
127149,104417
127256,104485
127357,104536
127428,104520
127526,104603
127556,104617
127682,104642
127784,104724
127826,104698
127912,104749
127961,104749
128052,104825
128131,104817
128201,104857
128233,104885
128312,104914
128357,104926
128493,104983
128526,104992
128561,105040
128625,105017
128695,105069
128814,105126
128869,105139
128891,105160
128950,105201
128980,105192
129088,105216
129107,105223
129127,105250
129111,105255
129177,105265
129206,105272
129219,105255
129170,105285
129120,105259
129136,105246
129087,105244
129057,105166
129031,105178
128958,105178
128894,105134
128903,105121
128822,105082
128733,105070
128701,105044
128659,105047
128641,105067
128605,105023
128604,104997
128548,105001
128587,104996
128636,105033
128632,105051
128639,105038
128656,105050
128776,105106
128829,105125
128856,105105
128921,105150
128976,105182
129027,105170
129109,105250
129147,105226
129149,105279
129143,105254
129237,105297
129260,105295
129280,105306
129290,105329
129285,105300
129350,105315
129393,105327
129404,105326
129377,105339
129363,105326
129427,105365
129447,105383
129464,105341
129450,105370
129483,105383
129530,105397
129598,105442
129564,105421
129576,105414
129620,105462
129696,105477
129695,105467
129797,105519
129772,105495
129805,105515
129868,105541
129931,105568
129954,105546
129943,105567
130042,105613
130109,105647
130173,105656
130216,105690
130202,105699
130225,105671
130353,105741
130339,105738
130367,105758
130366,105719
130391,105770
130410,105776
130499,105809
130549,105819
130534,105821
130576,105855
130632,105864
130719,105870
130755,105930
130788,105896
130857,105923
130909,105970
130998,105982
131020,106038
131036,106011
131083,106026
131132,106064
131106,106046
131036,105991
130957,105995
130888,105935
130753,105867
130583,105800
130350,105699
130085,105597
129834,105494
129592,105372
129283,105290
128966,105132
128647,105019
128411,104919
128144,104802
127920,104711
127694,104620
127421,104498
127293,104458
127159,104399
126980,104315
126868,104272
126734,104222
126635,104196
126610,104169
126539,104141
126492,104116
126430,104102
126483,104138
126495,104134
126535,104125
126550,104150
126586,104176
126659,104192
126771,104256
126829,104279
126952,104302
127012,104322
127117,104399
127214,104425
127270,104490
127351,104499
127420,104521
127482,104579
127571,104575
127688,104605
127726,104650
127758,104677
127863,104707
127972,104774
128018,104767
128089,104793
128154,104821
128229,104861
128367,104903
128437,104925
128518,104967
128566,105023
128674,105031
128774,105112
128880,105097
128931,105166
128988,105186
129099,105219
129169,105255
129255,105267
129279,105303
129287,105284
129401,105333
129432,105361
129461,105368
129453,105390
129420,105336
129522,105387
129503,105387
129544,105401
129492,105367
129513,105404
129544,105380
129548,105414
129555,105389
129560,105377
129543,105443
129586,105393
129582,105412
129563,105419
129566,105403
129530,105407
129591,105412
129536,105424
129541,105381
129464,105391
129485,105355
129476,105374
129457,105358
129425,105348
129369,105341
129304,105280
129317,105307
129298,105303
129276,105287
129253,105288
129203,105306
129239,105294
129262,105278
129276,105288
129293,105302
129301,105313
129349,105288
129341,105323
129384,105310
129322,105346
129361,105329
129413,105343
129428,105341
129368,105332
129342,105327
129377,105321
129412,105343
129455,105363
129463,105363
129473,105362
129540,105429
129644,105469
129646,105464
129736,105502
129818,105503
129908,105594
130020,105584
130103,105655
130190,105665
130264,105736
130328,105746
130501,105810
130507,105850
130648,105859
130677,105902
130793,105928
130902,105965
130974,106036
131077,106037
131137,106063
131282,106128
131438,106202
131501,106235
131637,106272
131773,106349
131866,106353
132017,106425
132123,106478
132191,106504
132264,106563
132401,106587
132538,106639
132641,106660
132739,106700
132770,106764
132862,106777
132987,106805
133021,106826
133007,106828
132940,106837
132917,106757
132901,106769
132729,106713
132570,106650
132360,106558
132206,106494
131972,106398
131672,106233
131378,106138
131054,106005
130766,105900
130453,105753
130119,105641
129770,105493
129473,105368
129195,105271
128970,105162
128757,105051
128553,105006
128333,104903
128237,104877
128105,104826
128014,104785
127929,104740
127909,104720
127882,104779
127890,104722
127904,104755
127878,104767
127904,104726
128032,104821
128070,104835
128095,104823
128154,104859
128189,104902
128297,104924
128364,104917
128420,104964
128419,105006
128495,105013
128619,105038
128686,105061
128781,105139
128800,105133
128874,105156
129000,105234
129094,105268
129190,105278
129266,105307
129342,105376
129448,105409
129531,105440
129647,105470
129697,105537
129753,105522
129929,105597
129977,105628
130086,105641
130099,105683
130210,105705
130259,105722
130329,105773
130351,105764
130393,105761
130385,105814
130487,105822
130538,105806
130534,105848
130511,105819
130543,105854
130561,105832
130547,105819
130522,105840
130462,105809
130450,105796
130446,105789
130406,105789
130391,105760
130311,105742
130272,105722
130267,105713
130248,105714
130198,105719
130132,105674
130175,105679
130160,105669
130116,105661
130076,105628
130011,105588
130032,105634
130002,105614
129956,105568
129957,105579
129876,105576
129878,105578
129841,105537
129826,105531
129819,105537
129767,105531
129776,105531
129818,105520
129834,105535
129815,105547
129834,105544
129909,105551
129949,105608
130015,105611
130010,105620
130059,105623
130124,105690
130191,105670
130257,105704
130306,105723
130289,105767
130366,105736
130434,105791
130467,105801
130488,105828
130489,105817
130540,105833
130644,105866
130692,105900
130722,105914
130764,105939
130832,105969
130933,105989
131036,106043
131068,106029
131120,106108
131183,106111
131310,106137
131323,106181
131369,106148
131417,106209
131496,106211
131531,106242
131499,106237
131547,106215
131536,106252
131597,106270
131601,106283
131614,106263
131640,106296
131646,106303
131685,106291
131742,106312
131715,106295
131751,106331
131733,106321
131809,106350
131847,106353
131831,106356
131819,106353
131839,106369
131811,106348
131840,106348
131722,106318
131613,106240
131484,106209
131384,106170
131144,106062
130912,105947
130646,105846
130327,105739
130083,105619
129727,105481
129427,105356
129059,105217
128721,105064
128503,104966
128199,104833
127930,104746
127671,104645
127459,104532
127350,104506
127172,104434
127029,104380
126869,104319
126769,104256
126750,104260
126691,104232
126651,104191
126621,104185
126616,104192
126632,104213
126680,104229
126681,104244
126693,104253
126796,104273
126915,104312
126980,104368
127033,104365
127116,104405
127209,104475
127357,104494
127448,104576
127474,104587
127561,104625
127636,104648
127745,104676
127842,104708
127888,104723
127928,104750
128071,104835
128132,104864
128182,104896
128260,104924
128333,104948
128457,104973
128583,105064
128641,105069
128740,105118
128823,105147
128937,105210
129037,105229
129129,105281
129210,105286
129268,105348
129420,105378
129528,105420
129635,105452
129669,105467
129729,105501
129795,105563
129866,105584
129920,105557
129925,105605
129914,105569
129976,105586
130019,105596
129989,105608
130004,105602
129971,105624
130010,105607
130072,105618
130079,105648
130058,105636
130039,105634
130111,105667
130133,105654
130106,105688
130135,105659
130105,105672
130141,105696
130169,105661
130165,105665
130151,105680
130106,105666
130111,105690
130126,105669
130129,105671
130065,105656
130032,105604
130040,105651
130069,105649
130056,105619
130045,105631
129982,105645
130036,105599
130038,105621
129986,105619
129983,105618
129961,105608
130051,105621
130069,105644
130118,105644
130093,105667
130136,105689
130221,105725
130271,105719
130333,105733
130369,105772
130360,105779
130474,105824
130478,105836
130566,105817
130581,105862
130609,105858
130669,105900
130682,105911
130740,105896
130764,105951
130786,105956
130848,105944
130915,105967
130931,105996
130907,106005
130963,106025
131039,106030
131073,106040
131079,106043
131034,106068
131108,106094
131169,106090
131199,106091
131232,106130
131262,106130
131258,106144
131364,106195
131399,106178
131429,106190
131403,106205
131472,106226
131553,106247
131551,106238
131605,106272
131608,106242
131647,106302
131682,106296
