11111,11111
0,0
82352,82482
132684,108597
135664,108593
135641,108582
135671,108601
135626,108600
135679,108597
135715,108571
135769,108597
135726,108583
135819,108630
135827,108660
135849,108626
135910,108672
135910,108678
135947,108666
136033,108710
136018,108699
136050,108722
136102,108725
136134,108750
136146,108762
136179,108750
136229,108776
136236,108795
136257,108819
136223,108806
136312,108793
136346,108812
136325,108814
136351,108828
136411,108846
136388,108851
136465,108852
136462,108897
136494,108855
136568,108903
136617,108939
136673,108966
136701,108928
136753,108987
136785,109007
136828,108998
136874,109005
136908,109054
136927,109065
136975,109062
137039,109109
137049,109088
137079,109088
137124,109118
137122,109084
137165,109132
137116,109113
137092,109076
136999,109033
136902,108988
136851,108986
136691,108945
136545,108839
136381,108808
136228,108704
136032,108675
135832,108556
135623,108503
135362,108398
135205,108307
134957,108190
134770,108127
134479,108041
134273,107916
134136,107883
133909,107748
133679,107699
133483,107609
133316,107567
133146,107471
132978,107397
132856,107337
132731,107332
132628,107243
132644,107250
132534,107269
132526,107206
132550,107210
132547,107205
132566,107244
132616,107229
132655,107284
132672,107277
132751,107312
132844,107326
132895,107335
132981,107405
133011,107426
133112,107448
133179,107458
133295,107544
133379,107591
133459,107583
133575,107639
133707,107688
133802,107731
133883,107797
133992,107850
134095,107881
134246,107879
134326,107946
134419,108003
134506,108001
134639,108053
134695,108105
134774,108111
134856,108134
134886,108162
134991,108181
134989,108221
135057,108188
135132,108241
135132,108292
135192,108284
135264,108281
135296,108313
135341,108312
135016,108153
135845,108505
135835,108505
136811,108880
136852,108873
136835,108893
136529,108756
136322,108664
136177,108595
135973,108527
135761,108463
133681,107577
133605,107581
133597,107582
133647,107562
133665,107585
133736,107634
133724,107623
133843,107660
133916,107670
133972,107729
134058,107757
134106,107778
134258,107824
134318,107881
134420,107894
134494,107952
134544,107953
134679,108014
134773,108026
134851,108058
134954,108075
135044,108132
135110,108211
135164,108177
135291,108232
135376,108276
135451,108318
135538,108399
135626,108361
135778,108446
135875,108488
135970,108525
136151,108614
136288,108632
136415,108685
136548,108743
136672,108802
136786,108863
136930,108881
137071,108937
137164,108988
137238,109028
137411,109097
137465,109096
137595,109177
137653,109207
137710,109202
137816,109216
137915,109302
137997,109309
138073,109352
138084,109368
138180,109375
138256,109420
138312,109426
138346,109406
138381,109471
138421,109496
138473,109459
138509,109502
138517,109535
138508,109507
138561,109544
138599,109511
138638,109547
138611,109551
138650,109567
138699,109559
138674,109614
138710,109585
138741,109580
138756,109592
138868,109633
138848,109654
138892,109640
138957,109660
138971,109675
139022,109744
139060,109692
139094,109716
139099,109753
139163,109738
139247,109776
139244,109792
139294,109805
139330,109816
139349,109816
139436,109836
139430,109862
139476,109872
139539,109917
139622,109913
139625,109945
139702,109946
139734,109971
139738,110008
139829,110004
139902,110019
139990,110042
139986,110074
140056,110097
140122,110114
140170,110109
140247,110127
140282,110176
140318,110202
140378,110210
140416,110194
140459,110223
140520,110255
140517,110235
140629,110266
140631,110304
140686,110290
140707,110334
140742,110335
140780,110345
140845,110372
140890,110366
140874,110392
140912,110398
140951,110417
141018,110404
141010,110441
141093,110428
141073,110466
141132,110470
141209,110495
141200,110457
141236,110507
141270,110506
141319,110537
141329,110523
141365,110540
141400,110566
141406,110552
141460,110552
141500,110580
141508,110577
141467,110586
141459,110578
141407,110559
141373,110501
141290,110495
141212,110464
141066,110417
140997,110389
140817,110306
140687,110280
140567,110210
140374,110166
140303,110122
140111,110018
139959,110012
139825,109937
139682,109893
139572,109838
139387,109787
139243,109718
139008,109647
138894,109573
138709,109538
138499,109430
138340,109386
138083,109316
137920,109224
137821,109207
137668,109099
137616,109109
137559,109073
137526,109097
137545,109057
137553,109062
137611,109087
137570,109113
137622,109101
137666,109114
137700,109135
137745,109148
137803,109160
137829,109186
137903,109202
137932,109235
137979,109214
138077,109236
138071,109294
138161,109297
138206,109295
138296,109356
138311,109369
138401,109390
138504,109414
138591,109467
138676,109517
138705,109542
138820,109549
138901,109569
138991,109605
139065,109650
139170,109681
139203,109688
139299,109734
139330,109739
139391,109760
139485,109778
139546,109834
139605,109840
139711,109848
139728,109909
139725,109885
139822,109927
139877,109944
139887,109958
139958,109933
139957,109996
139987,109995
140040,109979
140082,109998
140091,109983
140056,110026
140113,110058
140124,110005
140184,110023
140149,110042
140153,110055
140122,110032
140147,110008
140163,110030
140134,110026
140110,109995
140116,109967
140143,110030
140076,110001
140079,109981
140055,110010
140078,110015
140094,109985
140080,110007
140086,109987
140033,109997
140084,109985
140048,109983
140095,109986
140057,110018
140013,109974
140067,109969
140097,110008
140071,109971
140110,109993
140082,109990
140167,110014
140129,110041
140127,110029
140174,110018
140180,110016
140237,110039
140284,110093
140277,110056
140328,110110
140367,110107
140432,110152
140465,110126
140564,110169
140577,110200
140622,110217
140712,110237
140743,110238
140823,110229
140864,110298
140872,110268
140973,110327
141006,110320
141072,110383
141127,110354
141128,110393
141235,110415
141285,110396
141315,110427
141387,110485
141352,110453
141430,110455
141523,110516
141529,110522
141525,110528
141555,110551
141613,110542
141684,110547
141693,110602
141696,110604
141754,110592
141798,110608
141872,110623
141857,110666
141829,110621
141874,110631
141950,110647
141995,110645
142036,110681
142001,110734
142042,110691
142094,110724
142086,110717
142125,110700
142157,110695
142149,110757
142171,110718
142228,110753
142284,110754
142249,110747
142302,110771
142296,110800
142283,110737
142266,110787
142237,110732
142224,110708
142150,110680
142102,110704
141963,110631
141856,110587
141793,110554
141632,110498
141537,110472
141345,110407
141193,110327
141044,110280
140963,110268
140783,110169
140704,110145
140495,110143
140422,110043
140304,110021
140167,109972
140080,109918
140003,109909
139891,109859
139856,109847
139755,109804
139704,109765
139561,109750
139482,109726
139373,109645
139308,109624
139179,109571
138995,109539
138886,109470
138803,109402
138715,109429
138593,109379
138499,109347
138519,109339
138550,109335
138527,109343
138545,109326
138558,109373
138590,109391
138703,109422
138704,109408
138769,109419
138749,109461
138810,109429
138813,109449
138890,109468
138894,109455
138902,109506
138977,109509
138996,109509
139008,109547
139019,109529
139045,109544
139096,109537
139151,109584
139200,109598
139203,109582
139247,109610
139293,109626
139366,109631
139378,109657
139420,109667
139461,109668
139484,109683
139547,109711
139587,109723
139594,109749
139613,109736
139700,109737
139679,109758
139769,109812
139739,109787
139773,109767
139802,109805
139807,109787
139836,109811
139822,109809
139832,109786
139804,109812
139806,109794
139830,109798
139802,109785
139787,109790
139778,109781
139755,109781
139726,109733
139686,109757
139661,109732
139622,109730
139618,109719
139577,109690
139565,109683
139536,109667
139527,109661
139524,109678
139508,109655
139471,109674
139478,109671
139483,109663
139504,109662
139468,109670
139513,109657
139509,109701
139583,109690
139580,109714
139579,109695
139592,109695
139647,109749
139712,109727
139717,109755
139725,109720
139741,109735
139768,109797
139822,109767
139842,109770
139878,109805
139842,109790
139886,109802
139928,109814
139963,109827
139990,109853
139955,109841
140018,109865
140021,109865
140058,109849
140111,109860
140077,109907
140166,109910
140183,109915
140218,109944
140219,109924
140309,109941
140327,109979
140394,110002
140460,109998
140484,110033
140485,110043
140557,110040
140599,110047
140625,110059
140694,110071
140697,110107
140729,110088
140784,110119
140786,110119
140818,110123
140842,110174
140893,110140
140949,110156
140936,110180
141003,110191
141020,110199
141047,110223
141058,110232
141115,110201
141167,110230
141143,110254
141214,110268
141290,110321
141256,110279
141283,110295
141356,110306
141381,110339
141396,110364
141439,110323
141470,110340
141481,110358
141523,110384
141546,110370
141574,110370
141577,110381
141587,110414
141591,110436
141664,110408
141645,110412
141632,110433
141583,110389
141562,110386
141548,110369
141436,110327
141364,110299
141285,110281
141189,110204
141060,110192
140919,110105
140815,110055
140597,110024
140434,109990
140310,109903
140219,109848
140035,109820
139853,109716
139749,109731
139592,109642
139473,109593
139260,109511
139143,109459
138987,109407
138806,109321
138565,109238
138362,109150
138174,109092
137964,109005
137766,108903
137594,108861
137408,108804
137260,108743
137200,108701
137184,108719
137149,108716
137196,108728
137221,108756
137283,108756
137368,108774
137413,108829
137456,108803
137538,108874
137651,108880
137758,108924
137803,108944
137881,108993
137934,109004
138061,109064
138142,109092
138216,109130
138246,109125
138375,109167
138439,109201
138529,109224
138587,109278
138667,109290
138734,109287
138841,109350
138916,109383
139007,109399
139103,109454
139149,109476
139227,109509
139317,109534
139401,109545
139447,109551
139519,109641
139565,109618
139683,109641
139701,109686
139715,109682
139758,109693
139845,109706
139842,109756
139891,109731
139904,109749
139924,109707
139967,109780
139971,109735
139971,109728
139926,109737
139973,109746
139979,109752
139953,109746
139945,109714
139887,109737
139922,109715
139902,109748
139857,109711
139885,109740
139818,109699
139840,109681
139828,109705
139776,109680
139807,109678
139756,109644
139753,109682
139772,109697
139754,109703
139723,109655
139715,109633
139701,109631
139731,109628
139715,109646
139719,109658
139665,109624
139700,109629
139694,109647
139741,109616
139697,109674
139689,109621
139784,109654
139752,109674
139784,109696
139799,109689
139778,109683
139839,109671
139929,109710
139881,109734
139959,109759
139943,109761
140036,109748
140044,109771
140103,109800
140125,109772
140157,109826
140214,109803
140278,109835
140251,109852
140314,109845
140339,109875
140384,109885
140390,109875
140451,109907
140464,109910
140449,109930
140525,109937
140568,109967
140587,109945
140617,109986
140603,109966
140710,109981
140715,110002
140737,109965
140798,110016
140793,110031
140887,110051
140875,110051
140929,110068
140963,110079
141005,110085
141062,110123
141047,110149
141078,110112
141126,110166
141129,110136
141181,110161
141203,110146
141255,110175
141257,110193
141276,110165
141319,110210
141347,110224
141363,110224
141401,110216
141428,110261
141436,110262
141454,110251
141463,110253
141498,110243
141479,110293
141460,110243
141466,110266
141414,110200
141346,110198
141279,110148
141244,110120
141050,110108
140958,110035
140854,110008
140722,109964
140592,109929
140426,109863
140312,109792
140138,109740
139988,109722
139881,109665
139709,109601
139642,109552
139499,109543
139361,109458
139239,109413
139182,109409
138998,109348
138862,109245
138768,109245
138617,109172
138454,109105
138360,109056
138161,109035
138090,108956
138028,108940
137910,108944
137877,108887
137785,108905
137813,108848
137874,108888
137826,108906
137820,108911
137848,108870
137880,108919
137930,108899
137997,108948
137982,108964
138021,108988
138074,108976
138127,108994
138210,109006
138221,109066
138239,109051
138351,109102
138417,109109
138485,109119
138553,109153
138576,109157
138698,109214
138748,109238
138860,109257
138887,109276
138960,109298
139034,109341
139103,109366
139214,109416
139264,109427
139281,109448
139391,109443
139454,109488
139479,109514
139536,109513
139559,109526
139601,109567
139601,109539
139684,109563
139672,109585
139690,109545
139741,109583
139721,109569
139751,109598
139744,109578
139663,109597
139725,109556
139703,109583
139649,109539
139632,109542
139630,109569
139561,109514
139527,109543
139535,109481
139487,109470
139435,109489
139396,109450
139384,109409
139316,109441
139276,109405
139239,109391
139240,109418
139212,109369
139190,109374
139123,109328
139144,109345
139122,109350
139140,109326
139089,109370
139088,109341
139093,109307
139117,109328
139110,109322
139108,109374
139066,109325
139089,109319
139134,109314
139154,109335
139137,109325
139207,109363
139182,109394
139253,109367
139289,109380
139307,109381
139315,109412
139328,109404
139411,109437
139433,109461
139443,109433
139494,109464
139515,109496
139554,109503
139571,109483
139617,109537
139651,109526
139694,109541
139731,109554
139743,109550
139793,109604
139811,109579
139848,109570
139914,109613
139901,109642
139970,109630
139999,109669
140003,109668
140078,109684
140083,109679
140138,109697
140175,109715
140162,109730
140255,109738
140279,109769
140293,109765
140274,109770
140369,109799
140392,109790
140419,109803
140454,109796
140456,109822
140507,109856
140549,109857
140581,109836
140585,109876
140589,109871
140679,109906
140678,109886
140708,109904
140751,109907
140734,109906
140778,109912
140810,109933
140778,109914
140815,109919
140744,109907
140760,109943
140694,109886
140670,109832
140563,109805
140476,109791
140323,109766
140256,109715
140131,109655
139974,109593
139835,109563
139712,109488
139560,109422
139439,109422
139308,109332
139120,109309
139021,109237
138877,109180
138681,109133
138543,109069
138366,109001
138196,108924
138031,108862
137852,108816
137648,108712
137451,108658
137290,108559
137134,108528
136985,108512
136847,108431
136720,108381
136683,108354
136688,108355
136637,108354
136625,108376
136629,108349
136681,108356
136741,108393
136825,108413
136863,108417
136924,108489
137036,108491
137101,108526
137194,108531
137257,108584
137329,108618
137467,108681
137543,108713
137610,108706
137729,108776
137784,108804
137913,108823
137989,108867
138045,108895
138126,108923
138178,108959
138269,108952
138372,109011
138432,109032
138475,109054
138574,109067
138629,109116
138668,109137
138784,109128
138815,109190
138843,109200
138968,109206
138992,109247
139029,109249
139074,109266
139057,109291
139122,109246
139169,109291
139147,109296
139122,109291
139180,109301
139223,109295
139237,109316
139181,109294
139197,109304
139174,109286
139206,109289
139198,109304
139143,109257
139151,109296
139124,109241
139117,109270
139049,109244
139083,109243
139059,109229
139034,109238
139024,109198
139031,109225
138999,109223
139001,109221
138956,109235
138992,109199
138982,109208
138960,109215
138935,109202
138948,109188
138974,109215
138960,109215
138953,109176
138984,109174
138955,109225
138988,109214
139010,109209
139008,109235
138974,109218
139037,109240
139030,109217
139035,109215
138986,109241
139029,109238
139015,109208
139066,109247
139105,109225
139131,109267
139096,109284
139165,109259
139211,109264
139238,109303
139237,109284
139286,109301
139331,109351
139371,109366
139375,109368
139447,109374
139486,109381
139545,109451
139563,109416
139601,109423
139638,109475
139673,109462
139728,109491
139812,109482
139831,109532
139880,109504
139918,109547
139932,109553
139959,109550
140026,109587
140024,109590
140050,109578
140139,109630
140166,109613
140158,109632
140222,109644
140240,109674
140294,109686
140322,109694
140336,109705
140399,109686
140398,109738
140437,109741
140503,109799
140562,109768
140602,109814
140664,109804
140677,109857
140723,109825
140752,109869
140776,109875
140806,109882
140828,109888
140868,109864
140925,109884
140899,109884
140886,109890
140883,109881
140812,109849
140744,109837
140662,109783
140570,109760
140480,109731
140352,109651
140225,109640
140020,109560
139870,109489
139718,109457
139577,109383
139408,109311
139271,109260
139092,109221
138996,109205
138839,109105
138689,109078
138535,109023
138424,108966
138250,108914
138113,108824
137920,108784
137728,108718
137547,108621
137339,108569
137111,108452
136940,108393
136711,108347
136501,108281
136390,108172
136252,108121
136107,108119
135998,108046
135936,108065
135959,108008
135911,108023
135841,107965
135865,107986
135864,108012
135852,107967
135881,107989
135873,107975
135911,108014
135954,108059
136046,108051
136067,108074
136147,108074
136157,108106
136278,108122
136333,108200
136363,108183
136477,108245
136530,108281
136617,108297
136709,108285
136789,108326
136852,108375
136893,108406
137013,108413
137100,108478
137140,108487
137227,108478
137267,108520
137358,108554
137415,108603
137439,108614
137528,108635
137568,108648
137595,108643
137631,108679
137645,108653
137701,108688
137701,108687
137684,108692
137713,108688
137692,108687
137680,108638
137647,108649
137661,108686
137584,108626
137557,108606
137515,108608
137440,108588
137413,108533
137390,108533
137363,108556
137271,108496
137209,108479
137127,108484
137122,108436
137038,108418
137033,108422
136972,108401
136953,108356
136941,108395
136904,108367
136897,108348
136880,108349
136866,108323
136876,108333
136825,108327
136835,108342
136823,108348
136806,108318
136826,108353
136788,108332
136805,108326
136778,108305
136784,108326
136775,108293
136792,108296
136736,108296
136748,108303
136782,108302
136755,108324
136796,108284
136800,108323
136757,108305
136825,108291
136845,108324
136909,108337
136904,108358
136924,108376
137015,108367
137101,108412
137105,108469
137181,108450
137281,108495
137342,108542
137398,108581
137485,108589
137560,108613
137647,108652
137672,108636
137761,108700
137804,108708
137866,108729
137861,108765
137975,108750
138038,108795
138052,108772
138112,108788
138093,108830
138206,108856
138228,108859
138232,108860
138281,108860
138365,108907
138379,108907
138453,108908
138501,108967
138477,108952
138532,109002
138578,108994
138617,109047
138650,109006
138722,109059
138718,109068
138765,109065
138810,109084
138829,109047
138857,109095
138880,109139
138919,109082
138972,109138
138976,109139
139024,109126
139043,109152
139061,109184
139085,109158
139131,109191
139137,109160
139154,109202
139147,109182
139154,109164
139145,109186
139097,109158
139025,109131
138984,109103
138891,109096
138758,109022
138638,108993
138505,108921
138432,108886
138219,108826
138110,108779
137912,108744
137740,108639
137573,108585
137390,108501
137203,108480
136985,108360
136861,108307
136650,108230
136448,108149
136290,108110
136098,108049
135916,107990
135790,107890
135662,107863
135536,107799
135479,107771
135434,107746
135393,107763
135339,107755
135372,107738
135334,107736
135384,107778
135379,107744
135397,107732
135511,107796
135461,107790
135533,107835
135609,107831
135667,107820
135714,107903
135768,107948
135845,107916
135913,107957
136012,107970
136032,108007
136115,108022
136211,108076
136250,108093
136326,108134
136387,108153
136446,108173
136520,108209
136591,108208
136667,108249
136704,108265
136755,108295
136843,108341
136926,108348
136951,108370
137037,108411
137116,108423
137146,108443
137230,108475
137286,108486
137315,108533
137390,108550
137442,108551
137525,108588
137539,108586
137590,108618
137596,108630
137690,108633
137742,108654
137748,108663
137753,108634
137804,108699
137799,108718
137810,108710
137882,108682
137851,108728
137830,108716
137900,108694
137882,108691
137873,108722
137866,108721
137852,108709
137923,108747
137918,108723
137902,108717
137884,108726
137852,108722
137917,108722
137895,108735
137912,108684
137936,108745
137926,108735
137906,108723
137963,108725
137971,108765
137956,108743
138007,108743
138026,108797
138036,108793
138070,108767
138059,108793
138088,108811
138105,108780
138135,108817
138146,108782
138155,108817
138189,108825
138211,108846
138242,108866
138284,108845
138254,108863
138299,108901
138361,108861
138382,108880
138419,108891
138399,108909
138478,108932
138462,108931
138529,108935
138541,108949
138610,108984
138619,108994
138640,109036
138674,109038
138708,109040
138745,109026
138856,109073
138859,109062
138908,109106
138891,109128
138928,109108
139030,109111
139061,109168
139120,109169
139155,109173
139200,109193
139244,109223
139244,109251
139304,109238
139333,109247
139376,109298
139423,109267
139504,109316
139497,109338
139520,109318
139599,109367
139631,109380
139643,109390
139676,109371
139743,109393
139752,109407
139801,109448
139803,109446
139864,109432
139899,109502
139906,109459
139981,109491
140004,109506
139994,109524
140073,109524
140108,109555
140129,109527
140192,109590
140220,109569
140214,109607
140245,109592
140277,109612
140339,109586
140330,109584
140263,109586
140266,109588
140282,109569
140220,109577
140138,109541
140077,109491
139995,109482
139924,109456
139774,109384
139657,109328
139568,109327
139396,109242
139254,109197
139115,109131
138940,109109
138772,109065
138687,108961
138602,108951
138457,108929
138331,108823
138206,108809
138052,108776
137892,108677
137810,108627
137619,108591
137496,108533
137296,108462
137165,108377
137046,108394
136885,108287
136763,108283
136657,108206
136629,108196
136547,108190
136526,108203
136520,108163
136532,108187
136543,108198
136588,108194
136618,108246
136691,108233
136742,108282
136848,108284
136889,108303
136984,108359
136986,108354
137045,108363
137172,108424
137225,108427
137245,108458
137315,108476
137397,108528
137427,108549
137504,108560
137579,108607
137606,108604
137691,108640
137800,108640
137849,108704
137929,108740
137980,108729
138083,108783
138175,108803
138209,108851
138251,108822
138344,108889
138402,108908
138472,108900
138544,108946
138602,108975
138626,108972
138689,108982
138761,108996
138761,109004
138835,109042
138835,109081
138866,109037
138918,109050
138933,109067
138995,109108
138953,109109
138972,109083
139067,109131
139014,109092
139032,109119
139007,109095
139061,109133
139019,109098
139031,109098
139007,109133
139010,109096
138994,109105
139008,109064
138993,109079
138990,109119
138958,109089
138955,109076
138951,109099
138906,109057
138920,109050
138937,109068
138924,109071
138947,109080
138919,109066
138914,109020
138900,109073
138924,109077
138924,109076
138929,109064
138909,109058
138897,109063
138949,109065
138989,109093
138995,109095
139020,109079
138964,109108
139027,109130
139031,109080
139099,109106
139087,109127
139116,109127
139117,109187
139146,109143
139221,109137
139218,109193
139222,109185
139299,109195
139283,109200
139292,109193
139369,109226
139372,109246
139386,109268
139456,109255
139461,109283
139487,109258
139549,109289
139543,109319
139594,109331
139603,109301
139642,109328
139636,109343
139694,109358
139751,109359
139787,109360
139801,109417
139830,109414
139873,109395
139938,109409
139951,109453
139959,109441
139970,109436
140014,109422
140077,109470
140069,109491
140076,109472
140091,109491
140180,109491
140185,109535
140189,109541
140265,109520
140259,109573
140267,109563
140333,109556
140358,109597
140365,109563
140423,109581
140419,109611
140446,109618
140469,109631
140435,109587
140488,109597
140485,109628
140426,109588
140388,109575
140351,109557
140296,109538
140207,109502
140094,109475
140017,109450
139894,109351
139804,109363
139695,109335
139542,109240
139413,109187
139279,109173
139171,109114
139029,109066
138919,109016
138817,108972
138655,108927
138578,108891
138474,108864
138335,108797
138236,108790
138043,108722
137935,108644
137882,108638
137725,108575
137554,108499
137443,108484
137262,108425
137148,108366
137054,108348
136937,108299
136843,108267
136772,108241
136760,108207
136720,108229
136693,108201
136701,108172
136730,108221
136771,108232
136809,108255
136805,108258
136867,108275
136961,108286
136989,108350
137027,108315
137084,108398
137144,108372
137245,108415
137335,108416
137392,108477
137423,108480
137498,108523
137646,108575
137686,108595
137749,108603
137863,108626
137938,108676
138010,108748
138095,108706
138194,108766
138255,108801
138318,108819
138399,108845
138447,108863
138543,108877
138591,108895
138619,108911
138720,108978
138731,108988
138747,108974
138811,108998
138846,109017
138874,109004
138928,109019
138915,109043
138899,109009
138960,109047
138982,109038
138996,109033
138946,109064
138990,109027
138954,109057
138962,109054
138959,109042
138928,109040
138942,109016
138944,109041
138892,109031
138898,108998
138860,108996
138834,108997
138824,109006
138797,108986
138784,108967
138779,108945
138734,108935
138669,108935
138708,108934
138631,108887
138622,108890
138624,108921
138574,108910
138537,108875
138533,108885
138509,108874
138441,108800
138468,108852
138457,108843
138406,108838
138366,108804
138338,108768
138366,108815
138329,108794
138375,108830
138393,108803
138349,108808
138419,108848
138483,108837
138496,108851
138534,108884
138558,108896
138639,108923
138648,108925
138732,108963
138770,108960
138774,108970
138861,109008
138910,109017
138932,109030
138995,109055
139020,109043
139068,109065
139132,109084
139167,109131
139221,109134
139214,109137
139314,109169
139353,109165
139389,109177
139442,109208
139473,109229
139515,109237
139598,109274
139613,109274
139699,109290
139716,109315
139735,109334
139834,109326
139858,109378
139881,109379
139937,109383
140008,109421
140025,109448
140053,109441
140096,109447
140165,109482
140191,109493
140212,109474
140256,109522
140289,109506
140329,109544
140355,109519
140413,109578
140434,109560
140395,109587
140406,109542
140450,109591
140409,109563
140394,109517
140299,109496
140227,109519
140177,109481
140094,109413
139991,109386
139854,109315
139761,109316
139621,109257
139498,109207
139396,109161
139240,109107
139138,109062
139053,109027
138875,108998
138733,108951
138651,108892
138537,108850
138436,108837
138305,108737
138192,108732
138087,108683
137898,108622
137786,108562
137669,108520
137513,108433
137352,108429
137159,108330
137041,108294
136901,108227
136767,108190
136608,108172
136502,108085
136511,108066
136453,108086
136480,108089
136456,108097
136538,108105
136599,108147
136640,108149
136751,108211
136788,108250
136862,108250
136995,108262
137076,108339
137134,108344
137227,108402
137304,108417
137420,108467
137526,108484
137575,108517
137654,108550
137751,108614
137841,108613
137971,108653
138041,108714
138099,108713
138172,108735
138253,108771
138351,108806
138416,108850
138464,108872
138525,108879
138646,108897
138642,108924
138742,108954
138745,108950
138817,108964
138922,109026
138903,109004
138943,109006
138989,109060
139042,109043
139043,109093
139049,109093
139065,109064
139089,109071
139118,109078
139169,109070
139141,109096
139123,109096
139141,109076
139139,109105
139129,109088
139136,109080
139170,109073
139078,109082
139117,109089
139154,109068
139095,109078
139088,109034
139117,109088
139092,109093
139084,109052
139086,109060
139084,109066
139097,109048
139061,109093
139033,109025
139090,109050
139048,109038
139021,109051
139057,109064
139078,109034
139049,109068
139029,109041
139057,109078
139088,109074
139089,109082
139077,109093
139050,109054
139087,109066
139110,109081
139131,109071
139161,109084
139152,109105
139121,109065
139225,109111
139182,109113
139187,109100
139241,109099
139217,109149
139251,109127
139305,109137
139310,109107
139360,109154
139321,109182
139399,109167
139377,109159
139424,109192
139416,109162
139508,109242
139511,109228
139569,109224
139576,109258
139569,109236
139608,109261
139614,109275
139672,109275
139692,109278
139757,109316
139747,109305
139774,109305
139815,109327
139824,109308
139874,109381
139859,109338
139902,109360
139929,109357
139972,109391
139924,109390
139984,109388
140060,109386
140033,109409
140050,109405
140110,109417
140139,109455
140182,109478
140155,109418
140189,109448
140259,109477
140265,109491
140331,109504
140298,109523
140349,109503
140357,109522
140368,109523
140439,109538
140419,109518
140444,109532
140407,109562
140410,109535
140437,109518
140358,109524
140306,109485
140245,109475
140189,109404
140126,109382
140026,109373
139883,109330
139739,109276
139624,109223
139485,109165
139334,109126
139169,109075
138984,109012
138870,108933
138795,108880
138577,108886
138483,108812
138312,108751
138237,108700
138063,108676
137912,108559
137810,108540
137636,108482
137471,108428
137326,108376
137148,108287
136956,108229
136828,108195
136656,108136
136560,108068
136382,108047
136328,108018
136296,108009
136273,108000
136301,107991
136334,108004
136324,108038
136375,108012
136447,108093
136511,108094
136560,108098
136621,108112
136670,108124
136779,108170
136776,108218
136876,108196
136889,108258
136988,108252
137054,108312
137087,108325
137219,108372
137251,108378
137330,108382
137411,108425
137437,108431
137538,108491
137589,108540
137618,108514
137744,108548
137779,108585
137837,108598
137925,108608
137960,108689
138067,108663
138095,108715
138175,108704
138228,108746
138267,108774
138342,108769
138382,108794
138413,108786
138496,108849
138496,108815
138544,108850
138559,108878
138593,108863
138587,108855
138616,108880
138600,108863
138604,108899
138606,108870
138613,108863
138588,108894
138593,108862
138590,108875
138566,108847
138614,108845
138549,108871
138565,108831
138551,108825
138557,108847
138521,108846
138470,108813
138545,108831
138486,108816
138471,108827
138432,108810
138430,108800
138458,108820
138422,108792
138421,108794
138363,108803
138406,108792
138424,108815
138415,108775
138400,108821
138390,108768
138443,108838
138455,108810
138457,108831
138450,108808
138445,108808
138523,108879
138525,108852
138527,108866
138554,108838
138622,108887
138617,108890
138665,108884
138683,108886
138732,108897
138706,108929
138730,108904
138803,108928
138781,108960
138853,108971
138853,108961
138933,108991
138962,109044
138979,109003
139019,109003
139016,109027
139088,109072
139096,109070
139140,109048
139200,109123
139185,109080
139245,109144
139285,109121
139348,109132
139354,109196
139390,109166
139411,109160
139483,109185
139489,109191
139551,109206
139550,109268
139602,109263
139667,109272
139649,109252
139707,109310
139724,109303
139785,109299
139807,109322
139851,109337
139886,109353
139865,109336
139945,109368
139994,109379
140019,109370
140037,109376
140048,109383
140103,109398
140124,109436
140108,109388
140161,109436
140154,109433
140225,109446
140231,109477
140211,109451
140255,109472
140283,109452
140302,109478
140317,109493
140327,109473
140283,109493
140308,109476
140300,109460
140296,109415
140248,109444
140161,109455
140061,109380
140041,109371
139882,109292
139826,109281
139672,109232
139527,109165
139443,109138
139318,109117
139152,109044
139009,108994
138859,108961
138730,108905
138598,108807
138456,108816
138350,108752
138191,108698
138103,108648
137941,108590
137859,108563
137675,108507
137529,108441
137383,108380
137237,108329
137013,108256
136901,108209
136726,108161
136626,108122
136456,108055
136325,108012
136261,107979
136180,107972
136207,107955
136188,107959
136235,107962
136182,107977
136281,108007
136315,107996
136363,108017
136410,108043
136465,108048
136517,108092
136582,108127
136615,108113
136672,108147
136723,108168
136813,108200
136831,108217
136913,108241
136990,108260
137041,108284
137074,108307
137154,108327
137219,108324
137272,108354
137310,108404
137370,108400
137474,108464
137555,108494
137609,108509
137656,108515
137788,108582
137844,108576
137902,108590
137985,108640
138102,108686
138159,108697
138257,108730
138313,108771
138357,108785
138435,108822
138495,108835
138571,108857
138627,108886
138667,108878
138677,108925
138737,108894
138793,108924
138786,108919
138834,108933
138839,108957
138845,108968
138908,108978
138920,108972
138893,108998
138864,108962
138924,108972
138933,108974
138916,109001
138923,108994
138890,108960
138958,109016
138932,108982
138913,108974
138935,108978
138960,109031
138977,109001
138993,109026
139007,108990
138982,108998
139030,109032
139005,108985
139072,109034
139066,109005
139058,109048
139040,109025
139126,109073
139115,109075
139124,109066
139112,109081
139153,109073
139173,109089
139221,109076
139224,109118
139204,109093
139246,109106
139276,109129
139298,109132
139354,109134
139324,109157
139355,109104
139395,109149
139418,109165
139426,109185
139434,109196
139463,109160
139559,109214
139532,109233
139549,109222
139572,109205
139622,109245
139659,109281
139632,109239
139720,109262
139712,109250
139752,109282
139781,109304
139789,109281
139829,109319
139858,109342
139862,109330
139921,109349
139972,109369
139968,109375
139989,109355
140014,109398
140041,109415
140115,109406
140127,109403
140099,109439
140142,109413
140240,109455
140244,109470
140227,109460
140269,109474
140261,109493
140311,109459
140358,109510
140332,109494
140357,109500
140354,109507
140416,109500
140419,109533
140439,109512
140464,109536
140448,109524
140495,109524
140523,109570
140537,109539
140550,109561
140544,109588
140561,109589
140618,109573
140620,109566
140639,109595
140683,109612
140657,109611
140676,109604
140644,109619
140591,109581
140650,109586
140571,109580
140526,109530
140454,109513
140322,109503
140238,109402
140185,109391
140005,109355
139889,109293
139703,109261
139592,109166
139490,109117
139303,109125
139156,109049
138993,109003
138904,108947
138778,108905
138673,108834
138542,108837
138419,108774
138341,108729
138267,108702
138177,108679
138107,108675
137972,108627
137934,108603
137841,108559
137750,108545
137611,108478
137543,108418
137454,108436
137323,108341
137207,108291
137074,108264
136993,108267
136866,108202
136821,108176
136749,108185
136719,108133
136652,108172
136670,108167
136736,108176
136805,108197
136851,108215
136886,108212
136980,108282
136994,108276
137127,108289
137152,108341
137212,108354
137312,108377
137322,108400
137412,108447
137447,108419
137552,108463
137611,108487
137684,108523
137759,108536
137793,108574
137842,108569
137952,108590
137981,108635
138006,108627
138052,108671
138110,108662
138154,108698
138227,108687
138206,108710
138228,108697
138249,108756
138304,108698
138381,108752
138335,108781
138337,108746
138345,108753
138384,108769
138396,108762
138393,108762
138383,108774
138429,108782
138444,108752
138441,108797
138443,108779
138458,108803
138443,108799
138481,108794
138482,108791
138450,108773
138414,108767
138490,108797
138474,108779
138456,108784
138448,108776
138437,108775
138507,108767
138479,108810
138454,108787
138474,108811
138445,108805
138474,108830
138494,108794
138521,108779
138490,108833
138507,108793
138543,108827
138524,108822
138550,108807
138618,108849
138579,108856
138627,108857
138677,108840
138669,108857
138690,108886
138660,108898
138726,108896
138760,108887
138785,108921
138790,108911
138845,108950
138857,108937
138932,108940
138909,108955
138963,109002
138939,109005
139038,109023
139067,109029
139090,109008
139100,109044
139152,109061
139180,109075
139213,109059
139284,109086
139260,109074
139305,109121
139357,109092
139418,109163
139397,109163
139435,109138
139472,109175
139497,109142
139549,109165
139566,109200
139549,109210
139600,109227
139658,109221
139705,109262
139711,109269
139751,109251
139765,109261
139817,109314
139848,109281
139869,109322
139862,109303
139904,109312
139953,109367
139977,109360
140019,109342
140023,109374
140059,109368
140076,109367
140099,109397
140163,109383
140153,109415
140195,109423
140214,109450
140250,109438
140242,109469
140258,109449
140308,109436
140331,109497
140301,109484
140299,109464
140280,109443
140313,109418
140299,109475
140241,109424
140174,109418
140072,109357
140004,109321
139955,109316
139835,109271
139721,109248
139582,109209
139418,109142
139321,109072
139208,109052
139010,108972
138865,108933
138781,108889
138650,108877
138550,108802
138409,108766
138326,108738
138210,108718
138137,108671
138015,108626
137961,108562
137850,108567
137757,108491
137686,108491
137575,108437
137487,108416
137313,108371
137179,108288
137116,108283
136950,108240
136901,108178
136780,108181
136706,108137
136703,108112
136680,108115
136679,108145
136667,108122
136713,108156
136766,108148
136817,108163
136831,108208
136871,108210
137010,108264
137062,108268
137106,108314
137141,108287
137209,108341
137288,108368
137408,108404
137432,108438
137503,108444
137532,108472
137647,108501
137733,108518
137768,108542
137878,108570
137899,108608
137959,108589
138065,108646
138126,108655
138125,108674
138178,108673
138328,108730
138324,108742
138386,108729
138426,108798
138468,108781
138511,108803
138521,108830
138553,108817
138623,108822
138597,108852
138664,108850
138649,108856
138677,108863
138657,108854
138640,108851
138701,108847
138648,108849
138666,108860
138661,108840
138627,108831
138641,108841
138609,108822
138586,108823
138541,108803
138520,108820
138563,108804
138516,108792
138506,108796
138513,108790
138438,108774
138484,108784
138442,108782
138431,108770
138444,108749
138393,108763
138438,108759
138418,108757
138398,108765
138396,108787
138376,108734
138365,108739
138392,108713
138383,108750
138320,108720
138339,108749
138396,108755
138358,108761
138353,108704
138340,108750
138344,108733
138394,108770
138375,108746
138402,108720
138369,108762
138419,108755
138443,108765
138422,108781
138460,108744
138457,108775
138515,108799
138502,108794
138537,108818
138596,108792
138536,108834
138612,108832
138614,108829
138619,108831
138684,108876
138693,108881
138707,108850
138756,108890
138781,108905
138775,108874
138809,108902
138864,108911
138891,108947
138908,108941
138953,108957
138981,108944
139007,108972
139062,109001
139069,109017
139140,109023
139148,109030
139158,109053
139236,109057
139231,109058
139274,109035
139260,109071
139352,109094
139347,109105
139402,109084
139404,109143
139418,109112
139461,109109
139499,109165
139486,109177
139494,109123
139478,109150
139456,109111
139479,109130
139444,109129
139352,109069
139276,109064
139240,109047
139099,108975
139038,108959
138830,108900
138685,108855
138606,108795
138463,108750
138273,108718
138108,108615
137940,108555
137835,108517
137637,108463
137479,108381
137302,108355
137120,108273
136948,108224
136743,108103
136548,108072
136322,107926
136142,107885
135971,107830
135749,107744
135531,107651
135373,107617
135243,107561
135162,107537
135088,107520
135056,107478
135047,107475
135047,107461
135074,107480
135090,107487
135155,107530
135144,107529
135250,107545
135321,107594
135381,107607
135423,107643
135501,107631
135561,107669
135664,107728
135745,107732
135799,107781
135875,107784
136001,107844
136055,107876
136156,107887
136248,107967
136299,107955
136411,108027
136485,108055
136558,108065
136635,108087
136731,108129
136789,108135
136863,108185
136927,108188
137005,108189
137018,108255
137109,108264
137161,108292
137213,108326
137219,108282
137298,108314
137276,108377
137375,108363
137406,108365
137386,108385
137445,108381
137505,108412
137509,108416
137555,108432
137543,108436
137546,108448
137591,108469
137650,108435
137636,108458
137637,108418
137611,108454
137638,108438
137636,108458
137623,108450
137651,108428
137589,108477
137615,108438
137622,108456
137588,108427
137591,108421
137562,108444
137552,108428
137494,108439
137496,108395
137513,108393
137435,108416
137459,108380
137416,108340
137438,108366
137421,108368
137389,108356
137396,108380
137375,108358
137378,108345
137370,108333
137395,108361
137369,108388
137380,108344
137432,108386
137427,108377
137423,108391
137465,108409
137538,108406
137545,108451
137569,108430
137593,108448
137629,108446
137645,108505
137661,108487
137734,108469
137748,108500
137782,108518
137874,108542
137866,108554
137848,108538
137896,108580
137949,108604
137986,108584
137997,108595
138034,108602
138028,108638
138106,108644
138121,108644
138138,108629
138200,108698
138215,108685
138276,108725
138285,108691
138335,108700
138328,108748
138343,108762
138394,108753
138451,108759
138508,108785
138489,108811
138520,108815
138591,108827
138621,108831
138657,108824
138667,108875
138711,108883
138772,108879
138788,108862
138838,108873
138820,108911
138864,108906
138910,108943
138960,108944
138933,108967
138979,108955
138977,108980
138967,108945
138995,108950
138920,108949
138877,108911
138796,108916
138742,108843
138647,108839
138493,108759
138355,108732
138198,108689
138064,108585
137939,108579
137705,108487
137533,108411
137339,108348
137209,108283
136987,108201
136785,108173
136522,108022
136345,107970
136137,107908
135918,107814
135650,107716
135440,107650
135271,107600
135084,107490
134923,107447
134857,107402
134801,107423
134791,107413
134835,107400
134842,107442
134893,107427
134974,107445
135059,107507
135088,107503
135208,107560
135233,107571
135353,107615
135436,107634
135527,107697
135572,107700
135698,107718
135726,107769
135826,107789
135879,107818
135940,107808
136023,107868
136035,107894
136145,107913
136188,107945
136209,107953
136312,107942
136326,108028
136382,107999
136438,108033
136509,108058
136564,108073
136600,108087
136698,108099
136753,108169
136838,108165
136849,108197
136925,108198
137004,108227
137065,108240
137153,108299
137218,108333
137217,108332
137330,108364
137345,108359
137382,108393
137439,108402
137475,108435
137517,108426
137504,108435
137553,108446
137546,108440
137545,108430
137572,108425
137592,108463
137568,108427
137535,108448
137553,108424
137512,108428
137520,108444
137504,108395
137417,108379
137436,108414
137429,108367
137372,108370
137350,108378
137309,108373
137332,108339
137289,108325
137316,108348
137277,108313
137243,108308
137231,108301
137276,108334
137213,108295
137237,108330
137229,108324
137211,108334
137264,108301
137284,108385
137292,108347
137323,108326
137354,108389
137379,108364
137400,108410
137411,108404
137432,108424
137450,108435
137542,108462
137542,108460
137569,108437
137614,108453
137627,108507
137628,108480
137700,108487
137705,108509
137726,108532
137725,108515
137786,108483
137809,108587
137821,108541
137875,108571
137897,108579
137930,108562
137963,108610
137968,108608
138031,108619
138095,108669
138091,108655
138199,108698
138194,108699
138233,108709
138273,108689
138363,108758
138353,108739
138414,108784
138436,108766
138462,108797
138536,108767
138567,108844
138585,108847
138589,108817
138634,108844
138686,108869
138726,108856
138754,108884
138723,108872
138789,108888
138845,108888
138853,108947
138844,108937
138897,108946
138909,108953
138948,108977
138931,108945
138961,108934
138992,108983
139059,108987
139050,109002
139101,109008
139119,109028
139138,109045
139148,109016
139184,109047
139163,109010
139085,109005
139065,109006
138982,108976
138908,108931
138808,108902
138666,108832
138514,108788
138401,108737
138214,108674
138047,108629
137866,108564
137682,108472
137494,108417
137334,108355
137164,108279
136934,108209
136723,108140
136537,108057
136279,107938
136063,107865
135792,107774
135578,107680
135356,107624
135153,107503
134972,107450
134840,107412
134705,107374
134646,107331
134648,107337
134606,107318
134604,107321
134576,107329
134618,107356
134655,107378
134734,107413
134767,107414
134802,107399
134878,107409
134966,107485
135021,107470
135052,107521
135120,107525
135219,107544
135291,107606
135342,107651
135403,107674
135491,107670
135538,107709
135669,107715
135701,107757
135773,107782
135790,107806
135886,107809
136004,107904
136074,107891
136146,107927
136224,107943
136341,107994
136402,108022
136521,108061
136625,108088
136722,108161
136782,108181
136887,108218
136951,108233
137021,108251
137111,108312
137201,108331
137251,108339
137274,108351
137344,108380
137342,108390
137439,108406
137417,108388
137474,108422
137477,108424
137526,108441
137487,108434
137493,108405
137488,108424
137426,108409
137448,108403
137473,108430
137418,108367
137409,108393
137364,108363
137313,108376
137319,108348
137265,108328
137261,108324
137181,108314
137192,108320
137146,108304
137122,108307
137087,108266
137083,108265
137050,108281
137063,108234
137028,108254
137017,108246
137006,108236
137031,108263
136995,108273
137003,108223
136998,108240
136950,108249
137003,108236
137021,108273
137009,108218
137024,108246
137005,108230
137036,108265
137028,108239
137103,108296
137070,108304
137131,108275
137127,108301
137114,108278
137137,108312
137183,108320
137208,108329
137268,108367
137310,108357
137304,108350
137348,108407
137355,108372
137428,108375
137483,108427
137482,108436
137527,108434
137541,108454
137617,108478
137669,108491
137668,108520
137695,108525
137716,108532
137829,108568
137807,108556
137888,108561
137896,108602
137951,108616
137980,108629
138003,108622
138040,108629
138037,108655
138058,108634
138125,108672
138153,108652
138200,108692
138194,108731
138212,108687
138321,108698
138329,108750
138350,108715
138347,108747
138433,108777
138461,108807
138473,108756
138523,108781
138505,108812
138587,108834
138620,108835
138600,108837
138669,108845
138633,108856
138676,108854
138758,108898
138685,108874
138729,108863
138655,108881
138622,108858
138602,108841
138534,108798
138377,108773
138284,108686
138194,108695
138039,108603
137889,108565
137742,108477
137508,108461
137315,108352
137184,108269
136922,108227
136721,108133
136501,108020
136307,107957
136019,107888
135756,107745
135523,107645
135217,107572
135006,107474
134792,107386
134547,107311
134408,107250
134285,107221
134230,107184
134181,107177
134158,107153
134186,107152
134188,107198
134198,107161
134301,107219
134299,107214
134347,107225
134433,107284
134474,107274
134558,107282
134625,107321
134670,107362
134688,107367
134778,107397
134889,107427
134923,107485
134984,107486
135051,107478
135170,107522
135209,107590
135271,107559
135341,107610
135389,107631
135473,107658
135567,107673
135587,107727
135642,107725
135755,107769
135832,107811
135874,107831
135956,107820
135998,107880
136093,107868
136160,107901
136223,107946
136257,107964
136289,107978
136412,108016
136462,108046
136547,108072
136592,108098
136611,108094
136684,108102
136756,108170
136799,108193
136848,108146
136842,108174
136886,108188
136966,108232
136967,108214
136996,108246
137001,108238
137033,108283
137048,108248
137077,108241
137071,108304
137058,108269
137097,108268
137113,108283
137052,108277
137073,108266
137063,108271
137008,108254
137008,108250
137039,108261
136969,108273
136907,108205
136961,108226
136944,108231
136886,108207
136894,108200
136824,108179
136851,108211
136850,108153
136784,108186
136769,108176
136750,108146
136754,108177
136733,108166
136705,108124
136733,108138
136703,108167
136723,108117
136752,108138
136738,108167
136746,108123
136745,108164
136788,108145
136786,108163
136828,108160
136843,108201
136828,108193
136901,108206
136936,108218
136933,108218
136988,108213
136977,108276
137047,108259
137122,108265
137123,108285
137170,108276
137194,108294
137191,108336
137260,108327
137326,108335
137317,108350
137322,108381
137370,108362
137416,108398
137445,108428
137457,108431
137465,108423
137523,108420
137583,108465
137547,108469
137575,108465
137619,108477
137671,108504
137651,108503
137722,108501
137746,108538
137737,108526
137800,108576
137842,108554
137863,108570
137885,108550
137894,108618
137950,108583
137970,108613
137989,108587
138000,108605
138040,108607
138073,108680
138058,108654
138101,108637
138107,108637
138120,108680
138112,108662
138091,108633
138140,108665
138071,108630
138014,108605
137992,108595
137970,108601
137805,108495
137713,108480
137553,108448
137429,108359
137267,108309
137053,108252
136875,108186
136673,108119
136488,108059
136285,107961
136034,107880
135778,107783
135560,107663
135320,107603
135047,107516
134822,107382
134620,107321
134381,107264
134224,107180
134114,107134
134026,107109
133913,107067
133885,107038
133864,107011
133900,107041
133866,107063
133879,107031
133899,107094
133924,107079
133996,107087
134006,107107
134076,107107
134141,107173
134212,107190
134264,107211
134335,107202
134397,107228
134454,107295
134531,107316
134613,107308
134669,107388
134723,107361
134842,107398
134929,107470
134957,107477
135005,107479
135076,107484
135178,107554
135220,107576
135319,107611
135398,107606
135449,107654
135523,107682
135681,107731
135717,107726
135798,107775
135843,107810
135962,107857
136017,107894
136027,107832
136142,107872
136164,107918
136211,107942
136282,107934
136262,107988
136297,107944
136335,107984
136376,107965
136402,108007
136390,107992
136371,108009
136345,107970
136443,108012
136421,108002
136353,107979
136374,107997
136379,107983
136335,107995
136324,107997
136285,107954
136295,107982
136231,107960
136242,107950
136259,107942
136193,107926
136156,107902
136171,107917
136162,107911
136124,107906
136156,107902
136103,107874
136043,107883
136080,107891
136054,107898
136026,107864
136016,107848
136009,107851
136037,107893
136033,107871
136059,107889
135989,107878
135994,107840
136069,107900
136056,107874
136054,107893
136059,107875
136106,107894
136110,107895
136158,107907
136185,107928
136169,107947
136199,107929
136277,108002
136298,107995
136367,108009
136341,107994
136393,107980
136447,108025
136469,108039
136512,108040
136535,108074
136584,108061
136646,108130
136695,108130
136710,108109
136765,108147
136762,108167
136845,108154
136853,108192
136877,108177
136900,108200
136911,108200
137004,108245
137012,108238
137041,108254
137061,108286
137084,108259
137142,108295
137139,108276
137165,108302
137188,108301
137263,108322
137322,108362
137356,108372
137363,108362
137391,108376
137477,108434
137513,108426
137515,108426
137596,108468
137572,108453
137624,108465
137692,108515
137740,108514
137730,108514
137740,108511
137814,108554
137834,108563
137875,108581
137943,108572
137898,108563
137952,108601
138008,108591
138009,108615
138016,108603
137951,108583
137949,108588
137896,108557
137772,108503
137661,108480
137529,108400
137391,108385
137199,108287
136997,108217
136826,108138
136597,108081
136440,108015
136239,107933
135986,107820
135758,107749
135533,107640
135306,107572
135078,107494
134792,107375
134528,107279
134334,107192
134169,107156
134003,107078
133835,107004
133758,106977
133690,106951
133669,106945
133670,106948
133644,106923
133640,106934
133684,106961
133735,106994
133767,106993
133801,107002
133840,107011
133912,107045
133970,107060
134094,107102
134159,107145
134206,107166
134256,107174
134334,107195
134451,107265
134507,107266
134523,107298
134643,107338
134699,107361
134755,107391
134867,107421
134896,107436
134962,107460
135041,107469
135134,107521
135215,107549
135224,107537
135335,107616
135417,107605
135461,107627
135527,107656
135603,107674
135662,107723
135730,107716
135760,107752
135781,107774
135840,107792
135908,107796
135925,107821
135975,107835
136017,107837
136018,107846
136027,107856
136071,107878
136082,107856
136089,107875
136078,107870
136104,107880
136128,107900
136120,107884
136109,107895
136098,107874
136115,107888
136157,107903
136145,107881
136138,107894
136126,107907
136117,107893
136163,107916
136112,107881
136083,107905
136039,107886
136063,107882
136061,107857
136027,107864
136032,107830
136006,107881
136001,107858
136017,107858
136008,107846
135953,107838
135962,107835
135987,107831
135988,107841
135977,107825
135984,107857
136010,107827
136006,107847
136043,107834
136003,107843
136046,107878
136048,107864
136099,107878
136095,107881
136131,107900
136150,107900
136171,107923
136234,107936
136265,107965
136288,107951
136323,107953
136334,107964
136371,108010
136415,108002
136395,108002
136474,108047
136464,108018
136476,108047
136554,108071
136522,108048
136563,108032
136593,108085
136628,108088
136630,108103
136697,108109
136730,108104
136778,108141
136825,108171
136889,108169
136924,108185
136940,108230
137022,108238
137035,108254
137125,108277
137161,108298
137194,108283
137238,108346
137311,108331
137294,108371
137364,108359
137350,108375
137405,108398
137446,108369
137456,108385
137468,108404
137479,108422
137504,108408
137544,108415
137522,108430
137549,108438
137564,108430
137577,108461
137632,108460
137631,108449
137650,108479
137690,108485
137697,108463
137743,108518
137801,108532
137769,108511
137798,108543
137781,108532
137743,108503
137770,108514
137710,108489
137584,108453
137534,108413
137416,108350
137268,108319
137122,108258
136954,108201
136801,108144
136597,108070
136430,107998
136206,107895
135933,107806
135741,107757
135508,107641
135208,107531
134970,107451
134704,107346
134433,107221
134235,107158
133963,107041
133814,106982
133608,106915
133558,106907
133493,106861
133388,106841
133383,106823
133380,106824
133352,106833
133443,106865
133473,106855
133474,106891
133561,106904
133636,106934
133738,106959
133775,106980
133845,107021
133905,107038
133968,107055
134042,107079
134149,107099
134172,107134
134193,107161
134297,107185
134382,107228
134419,107238
134457,107245
134490,107263
134555,107256
134648,107273
134691,107349
134755,107377
134818,107384
134914,107410
135013,107439
135055,107471
135137,107508
135250,107551
135300,107572
135424,107611
135442,107624
135539,107672
135599,107691
135643,107709
135733,107722
135785,107770
135791,107716
135798,107775
135892,107794
135895,107780
135933,107791
135887,107819
135908,107818
135919,107787
135947,107792
135935,107792
135899,107817
135872,107779
135874,107782
135876,107737
135859,107758
135808,107728
135765,107743
135796,107742
135782,107745
135733,107729
135708,107721
135661,107715
135672,107706
135624,107707
135589,107676
135588,107665
135537,107648
135538,107672
135542,107651
135551,107662
135459,107640
135443,107644
135497,107637
135509,107620
135478,107662
135464,107607
135520,107651
135513,107651
135475,107630
135504,107667
135486,107614
135525,107613
135555,107638
135587,107658
135593,107649
135572,107713
135601,107709
135675,107742
135690,107719
135738,107721
135768,107723
135848,107761
135890,107816
135903,107780
135919,107818
135936,107782
135994,107833
136024,107829
136011,107847
135993,107836
136065,107844
136065,107846
136116,107876
136108,107860
136116,107876
136137,107875
136140,107875
136204,107902
136235,107938
136249,107915
136245,107940
136331,107962
136319,107967
136344,107956
136385,107947
136387,107982
136461,107979
136471,108016
136507,108034
136528,108019
136525,108049
136600,108067
136626,108062
136661,108064
136668,108095
136708,108107
136778,108137
136788,108113
136836,108150
136876,108155
136884,108200
136908,108188
136990,108225
137026,108218
137015,108242
137053,108220
137139,108228
137180,108288
137218,108287
137238,108271
137232,108311
137346,108338
137361,108361
137386,108380
137428,108347
137422,108366
137472,108388
137439,108340
137450,108362
137423,108370
137339,108350
137288,108304
137212,108289
137045,108226
136922,108146
136750,108107
136630,108051
136408,108005
136182,107870
136036,107817
135758,107717
135559,107644
135335,107563
135040,107467
134797,107354
134594,107250
134328,107186
134085,107112
133929,107022
133726,106950
133623,106923
133465,106890
133369,106799
133334,106796
133265,106789
133218,106758
133298,106769
133262,106781
133298,106769
133319,106784
133344,106783
133409,106850
133448,106823
133476,106864
133565,106918
133611,106906
133696,106931
133799,106985
133854,106987
133904,107061
134017,107067
134076,107108
134125,107124
134226,107176
134273,107128
134360,107205
134479,107213
134546,107239
134600,107293
134606,107290
134665,107323
134755,107375
134794,107339
134893,107406
134956,107408
135040,107455
135090,107432
135151,107482
135248,107542
135259,107526
135333,107568
135458,107589
135506,107633
135515,107649
135587,107658
135622,107683
135664,107680
135725,107693
135717,107725
135732,107724
135773,107736
135819,107702
135829,107723
135809,107772
135774,107714
135810,107745
135838,107756
135808,107729
135808,107761
135752,107703
135784,107704
135766,107713
135754,107734
135721,107675
135666,107697
135666,107689
135680,107668
135653,107661
135645,107685
135621,107674
135604,107665
135617,107661
135610,107652
135554,107661
135552,107670
135544,107651
135561,107640
135572,107654
135521,107651
135486,107612
135540,107624
135531,107665
135525,107657
135550,107641
135559,107630
135574,107676
135579,107632
135595,107671
135645,107664
135627,107683
135679,107671
135752,107700
135772,107726
135760,107722
135831,107756
135872,107765
135966,107804
135951,107791
136005,107833
136070,107867
136098,107864
136173,107868
136196,107895
136234,107924
136233,107908
136323,107956
136350,107932
136381,107960
136446,107952
136520,108006
136554,108045
136557,108031
136612,108050
136630,108086
136661,108079
136716,108055
136748,108114
136783,108116
136805,108148
136797,108127
136862,108155
136872,108167
136936,108180
136903,108190
136945,108165
137023,108194
137010,108234
137026,108205
137068,108223
137116,108215
137171,108253
137160,108231
137194,108270
137205,108272
137282,108291
137308,108298
137283,108336
137277,108309
137301,108328
137359,108319
137450,108348
137422,108362
137488,108361
137482,108375
137532,108407
137584,108399
137616,108432
137631,108433
137662,108447
137720,108488
137734,108486
137778,108477
137813,108494
137823,108523
137838,108519
137820,108490
137820,108507
137745,108471
137667,108447
137628,108409
137539,108380
137384,108306
137235,108268
137071,108191
136953,108175
136779,108079
136559,108018
136383,107935
136169,107869
135953,107802
135743,107671
135488,107643
135250,107508
135024,107412
134790,107344
134606,107278
134406,107184
134256,107160
134135,107105
134028,107053
134013,107057
133978,107028
133929,107021
133956,107031
134020,107035
134002,107050
134077,107086
134104,107097
134133,107094
134238,107129
134287,107159
134354,107185
134408,107197
134484,107257
134564,107257
134645,107317
134695,107321
134755,107348
134817,107365
134907,107416
134937,107422
135005,107446
135014,107446
135110,107473
135165,107485
135198,107521
135253,107510
135314,107535
135334,107569
135427,107587
135485,107606
135546,107642
135593,107647
135636,107661
135751,107714
135796,107706
135896,107785
135922,107817
135994,107794
136072,107828
136135,107870
136161,107844
136231,107909
136283,107917
136353,107923
136339,107972
136375,107974
136379,107975
136442,107969
136512,107966
136471,108025
136471,108027
136515,107988
136521,108018
136547,108020
136490,107973
136517,108007
136472,108008
136448,107966
136436,107956
136433,107973
136367,107957
136341,107954
136306,107909
136290,107886
136253,107922
136191,107908
136156,107850
136156,107860
136181,107851
136124,107886
136077,107828
136096,107827
136119,107827
136107,107872
136121,107827
136124,107852
136092,107838
136116,107839
136159,107843
136162,107880
136141,107862
136156,107880
136172,107868
136248,107870
136193,107906
136258,107902
136231,107916
136278,107924
136373,107898
136340,107935
136367,107940
136417,107970
136449,107977
136513,108013
136547,107974
136579,108014
136601,108002
136676,108044
136670,108073
136704,108037
136729,108097
136766,108108
136799,108097
136832,108148
136876,108110
136900,108141
136951,108162
136983,108167
137062,108202
137053,108176
137105,108222
137095,108211
137163,108231
137223,108250
137240,108264
137283,108265
137323,108289
137354,108327
137362,108304
137438,108359
137430,108361
137474,108369
137512,108373
137576,108367
137618,108421
137649,108424
137665,108419
137713,108447
137797,108477
137796,108480
137846,108478
137903,108525
137905,108520
137944,108523
137997,108560
138020,108552
138014,108571
138109,108567
138146,108608
138208,108620
138202,108626
138261,108631
138270,108661
138281,108633
138319,108701
138326,108681
138372,108713
138422,108693
138417,108692
138404,108705
138423,108708
138441,108740
138428,108701
138446,108669
138349,108680
138322,108647
138238,108622
138156,108573
138039,108525
137918,108483
137760,108417
137600,108383
137444,108291
137251,108271
137090,108208
136877,108135
136684,108041
136536,107975
136285,107886
136095,107764
135873,107731
135577,107588
135390,107539
135152,107435
134881,107340
134618,107218
134406,107167
134264,107087
134090,107023
134026,106989
133911,107005
133937,106989
133893,106977
133867,106978
133867,106952
133911,106933
133932,106987
133981,106973
134002,106999
134055,107035
134138,107018
134206,107061
134256,107106
134323,107082
134402,107148
134474,107186
134529,107223
134622,107243
134717,107270
134811,107292
134821,107343
134919,107331
135041,107371
135096,107434
135140,107463
135231,107506
135306,107500
135394,107526
135484,107583
135563,107584
135605,107641
135707,107637
135815,107675
135836,107729
135874,107716
135981,107782
136060,107790
136073,107797
136147,107816
136198,107839
136221,107879
136319,107843
136353,107861
136320,107902
136339,107890
136424,107914
136438,107920
136461,107931
136492,107927
136484,107940
136447,107900
136479,107948
136502,107925
136451,107938
136441,107914
136471,107923
136472,107943
136426,107945
136431,107879
136368,107917
136365,107899
136338,107921
136305,107885
136290,107854
136307,107847
136235,107879
136262,107828
136253,107864
136262,107832
136228,107855
136207,107864
136256,107859
136255,107816
136291,107882
136264,107897
136280,107858
136344,107889
136361,107907
136379,107890
136413,107910
136406,107928
136491,107944
136531,107936
136540,107981
136567,108035
136616,108001
136688,108015
136719,108021
136761,108067
136738,108063
136782,108099
136847,108097
136865,108123
136870,108092
136937,108100
136953,108147
136993,108166
137012,108122
137077,108148
137079,108183
137080,108155
137129,108199
137133,108170
137179,108190
137209,108230
137191,108216
137246,108250
137293,108248
137346,108245
137318,108283
137398,108299
137444,108309
137494,108296
137527,108341
137511,108355
137611,108352
137656,108387
137656,108407
137694,108402
137717,108411
137789,108406
137827,108448
137835,108472
137833,108463
137887,108442
137942,108502
137947,108485
137980,108518
137990,108496
138062,108507
138068,108566
138097,108574
138133,108579
138143,108575
138153,108579
138230,108581
138280,108628
138292,108606
138315,108647
138347,108650
138378,108609
138402,108650
138438,108660
138453,108686
138480,108673
138519,108705
138533,108720
138549,108712
138561,108702
138568,108699
138573,108730
138585,108700
138545,108705
138493,108652
138491,108688
138410,108648
138285,108587
138191,108592
138041,108528
137921,108435
137754,108416
137626,108320
137436,108282
137206,108230
137089,108115
136941,108094
136745,108027
136518,107940
136312,107845
136171,107788
135928,107677
135729,107643
135472,107538
135206,107447
134967,107341
134816,107273
134583,107215
134450,107111
134259,107097
134167,107028
134138,106999
134073,107021
134075,106985
134095,107015
134079,106998
134152,106998
134211,107061
134272,107068
134272,107073
134396,107113
134500,107143
134565,107184
134647,107220
134696,107257
134832,107293
134914,107318
134973,107344
135066,107368
135118,107409
135245,107442
135341,107471
135400,107496
135486,107549
135566,107572
135674,107600
135764,107651
135849,107661
135959,107724
136035,107755
136150,107788
136194,107822
136281,107829
136378,107891
136409,107918
136540,107944
136589,107952
136642,107972
136698,107977
136770,108004
136790,108052
136883,108050
136867,108033
136942,108064
136924,108106
136969,108049
136995,108091
137029,108087
136987,108104
136998,108104
137053,108118
137067,108108
137033,108121
137014,108088
137032,108079
136985,108122
137018,108111
136962,108084
136985,108095
136980,108078
136959,108075
136939,108097
136944,108088
136959,108061
136984,108095
136940,108065
136954,108089
136977,108097
136929,108082
136938,108085
137006,108128
136994,108096
136993,108076
137010,108098
137030,108142
137033,108090
137072,108115
137025,108138
137050,108099
137073,108111
137075,108119
137101,108132
137113,108143
137069,108155
137087,108111
137132,108170
137098,108160
137129,108158
137119,108165
137124,108167
137191,108176
137205,108192
137179,108167
137220,108164
137237,108177
137290,108195
137306,108215
137320,108231
137341,108248
137345,108251
137417,108219
137426,108255
137425,108293
137428,108263
137478,108276
137498,108332
137520,108312
137582,108306
137579,108304
137617,108336
137636,108326
137676,108358
137679,108342
137743,108375
137742,108364
137827,108438
137823,108415
137832,108393
137888,108418
137932,108447
137940,108432
138011,108488
138040,108476
138012,108503
138039,108474
138108,108520
138110,108515
138138,108544
138153,108526
138249,108538
138239,108574
138304,108571
138308,108600
138352,108591
138425,108633
138454,108620
138480,108641
138518,108626
138544,108670
138547,108676
138627,108689
138626,108694
138637,108712
138603,108697
138647,108683
138592,108668
138567,108659
138515,108633
138429,108623
138336,108591
138257,108542
138096,108482
137985,108439
137780,108385
137662,108271
137493,108250
137363,108223
137144,108135
136975,108057
136775,108007
136622,107921
136439,107860
136171,107782
135962,107683
135761,107610
135529,107494
135326,107428
135100,107344
134859,107230
134678,107159
134521,107140
134318,107037
134276,107016
134160,107002
134204,107023
134162,106998
134179,106968
134209,107018
134222,107008
134283,107045
134370,107080
134431,107084
134499,107108
134579,107163
134688,107154
134772,107253
134851,107247
134981,107308
135057,107352
135152,107379
135263,107426
135401,107440
135476,107515
135548,107544
135633,107534
135701,107559
135824,107633
135841,107661
135937,107653
136068,107726
136138,107741
136180,107769
136254,107793
136278,107810
136383,107832
136440,107863
136461,107868
136523,107884
136559,107892
136629,107912
136679,107924
136674,107972
136698,107927
136728,107960
136777,107953
136775,107988
136767,107959
136780,107995
136829,107986
136781,107979
136806,107962
136757,107976
136748,107948
136743,107960
136727,107962
136680,107939
136649,107926
136611,107928
136598,107875
136541,107891
136565,107881
136470,107860
136455,107862
136433,107863
136457,107819
136444,107853
136388,107860
136379,107826
136468,107856
136428,107803
136426,107839
136416,107829
136459,107847
136497,107871
136497,107857
136536,107867
136515,107901
136504,107898
136559,107858
136589,107904
136577,107880
136584,107896
136567,107919
136601,107894
136638,107895
136629,107936
136605,107923
136619,107927
136694,107934
136742,107933
136705,107932
136726,107940
136741,107949
136816,107973
136789,107951
136839,107961
136848,108022
136832,108004
136917,108002
136915,108035
136962,108026
136957,108017
137008,108046
137064,108089
137068,108051
137082,108068
137109,108121
137140,108116
137187,108101
137225,108129
137239,108147
137262,108150
137317,108183
137370,108175
137399,108211
137364,108225
137419,108205
137429,108239
137480,108215
137532,108241
137557,108250
137533,108249
137557,108293
137598,108289
137678,108289
137700,108335
137738,108324
137807,108346
137864,108375
137883,108361
137923,108406
137973,108425
138049,108438
138064,108482
138144,108493
138210,108516
138206,108518
138289,108554
138375,108558
138415,108592
138462,108597
138527,108611
138542,108645
138586,108610
138628,108682
138595,108679
138557,108639
138578,108647
138539,108618
138463,108624
138323,108536
138255,108521
138114,108466
138028,108401
137862,108376
137684,108299
137558,108251
137411,108214
137293,108147
137126,108063
136928,108042
136797,107967
136699,107907
136500,107877
136336,107776
136164,107704
135993,107640
135829,107599
135606,107485
135440,107428
135258,107368
135121,107301
134950,107272
134838,107199
134793,107185
134713,107159
134673,107181
134691,107158
134721,107193
134705,107166
134784,107204
134782,107211
134864,107203
134932,107259
134965,107279
135016,107249
135104,107335
135196,107339
135281,107375
135355,107407
135416,107459
135455,107445
135607,107480
135662,107540
135712,107558
135806,107570
135894,107610
136004,107646
136047,107677
136136,107685
136213,107753
136285,107754
136384,107838
136458,107805
136541,107854
136604,107901
136696,107919
136760,107942
136867,107960
136897,107980
136913,107993
137003,108034
137079,108050
137074,108063
137136,108106
137138,108094
137201,108107
137225,108135
137273,108112
137271,108132
137257,108119
137221,108127
137272,108118
137227,108102
137207,108099
137173,108113
137145,108091
137128,108084
137107,108043
137043,108049
137018,108022
136955,107998
136941,108000
136920,107966
