11111,11111
0,0
79708,79649
96594,96429
96640,96466
96648,96452
96608,96454
96614,96409
96592,96387
96623,96483
96625,96442
96632,96457
96604,96392
96634,96408
96647,96482
96670,96446
96641,96449
96622,96413
96650,96402
96685,96466
96740,96453
96733,96453
96688,96464
96711,96432
96760,96523
96777,96482
96816,96499
96796,96480
96758,96496
96818,96531
96873,96523
96822,96542
96834,96539
96827,96486
96848,96560
96852,96544
96846,96566
96840,96489
96852,96510
96880,96532
96899,96532
96882,96550
96886,96517
96882,96552
96878,96524
96940,96559
96936,96524
96914,96552
96862,96556
96978,96568
96958,96576
96933,96600
96970,96583
96953,96544
97022,96587
97035,96635
97040,96596
97011,96599
97021,96579
97097,96639
97108,96646
97170,96650
97151,96654
97138,96687
97205,96678
97247,96721
97252,96696
97264,96720
97203,96704
97337,96745
97324,96780
97404,96745
97352,96786
97330,96736
97453,96802
97430,96830
97465,96828
97443,96775
97439,96809
97460,96799
97481,96761
97436,96764
97327,96729
97307,96687
97249,96740
97159,96652
97063,96583
96973,96550
96829,96450
96740,96461
96648,96340
96469,96326
96316,96247
96184,96131
96053,96134
95955,96049
95783,95977
95662,95910
95500,95843
95402,95851
95335,95785
95158,95739
95074,95643
94953,95636
94887,95603
94827,95575
94705,95526
94647,95491
94541,95433
94541,95433
94424,95444
94387,95388
94346,95364
94284,95387
94285,95375
94295,95359
94243,95385
94223,95355
94226,95371
94283,95380
94319,95421
94306,95374
94341,95391
94344,95420
94426,95446
94429,95456
95168,95744
95035,95664
95033,95668
95124,95694
95225,95740
95209,95767
95755,95976
95863,96018
95896,96047
95898,96064
96196,96201
96178,96141
96175,96139
96184,96142
96231,96199
96201,96197
96234,96214
96231,96182
96242,96174
96314,96229
96311,96242
96327,96223
96278,96221
96318,96215
96370,96240
96347,96250
96345,96272
96290,96208
96349,96263
96363,96231
96377,96269
96295,96218
96293,96183
96294,96264
96327,96243
96310,96197
96298,96195
96245,96192
96212,96137
96240,96178
96206,96167
96231,96158
96163,96132
96179,96098
96221,96158
96192,96150
96184,96149
96136,96081
96142,96122
96153,96142
96149,96168
96173,96117
96100,96084
96148,96132
96178,96162
96156,96129
96118,96136
96123,96104
96166,96138
96156,96147
96164,96084
96145,96127
96140,96091
96137,96094
96219,96157
96189,96166
96199,96140
96138,96102
96165,96161
96199,96169
96268,96149
96219,96158
96211,96122
96226,96157
96294,96195
96281,96211
96260,96144
96267,96167
96311,96197
96306,96212
96283,96217
96261,96121
96234,96145
96172,96123
96138,96115
96076,96059
95981,96026
95808,95950
95738,95906
95643,95834
95487,95755
95293,95732
95076,95567
94998,95566
94819,95498
94616,95389
94412,95261
94141,95180
94010,95099
93818,94998
93553,94908
93332,94784
93082,94704
92856,94577
92682,94513
92446,94454
92223,94357
92026,94261
91917,94215
91777,94174
91671,94117
91547,94004
91483,93996
91412,93968
91405,93937
91391,93959
91384,93945
91291,93890
91383,93920
91432,93953
91419,93961
92117,94245
92186,94292
92251,94345
92247,94354
92310,94349
92261,94387
92366,94382
92403,94405
92431,94421
92430,94445
92388,94400
92517,94452
92507,94471
92488,94443
92462,94472
92416,94402
92471,94401
92468,94456
92394,94379
92386,94400
92320,94373
92323,94367
92332,94337
92237,94370
92212,94301
92158,94278
92135,94271
92134,94272
92075,94216
91996,94221
91915,94124
91910,94155
91819,94137
91768,94063
91692,94033
91565,94004
91537,93968
91500,93985
91381,93899
91287,93890
91234,93792
91255,93841
91189,93825
91137,93766
91118,93789
91038,93755
91097,93744
91084,93799
91011,93699
91022,93728
91003,93673
91009,93694
91047,93755
91016,93693
90997,93707
90983,93662
90988,93694
91021,93738
90963,93690
90973,93712
90963,93650
91003,93701
90988,93734
91008,93669
91005,93686
90950,93687
90971,93681
91029,93720
90981,93708
91024,93693
91014,93691
91023,93697
91103,93705
91094,93721
91143,93719
91111,93753
91210,93783
91327,93824
91287,93841
91377,93876
91361,93818
91484,93916
91489,93903
91564,93944
91526,93943
91526,93911
91587,93974
91620,93978
91610,93964
91554,93978
91560,93936
91580,93970
91594,93979
91555,93926
91549,93930
91481,93906
91555,93926
91525,93980
91520,93937
91583,93938
91507,93949
91604,93962
91683,94019
91629,93990
91650,93976
91594,93975
91636,93984
91672,94038
91653,93982
91639,93972
91541,93935
91581,93982
91595,93983
91524,93925
91517,93919
91423,93857
91430,93902
91392,93920
91375,93817
91336,93843
91227,93813
91278,93831
91250,93790
91199,93807
91144,93770
91141,93737
91131,93778
91146,93766
91099,93723
91125,93756
91073,93676
91141,93752
91198,93764
91219,93785
91218,93778
91229,93779
91286,93800
91345,93847
91347,93836
91337,93871
91339,93834
91392,93878
91404,93878
91408,93879
91356,93871
91325,93868
91380,93877
91392,93887
91350,93903
91291,93822
91280,93825
91281,93813
91259,93832
91211,93762
91189,93766
91063,93718
91130,93767
91093,93733
91090,93718
91045,93679
90944,93682
91000,93667
91029,93712
90963,93678
90970,93659
90890,93602
90962,93649
90921,93675
90904,93620
90835,93594
90733,93558
90694,93501
90629,93478
90391,93361
90217,93280
89891,93181
89686,93034
89426,92904
88964,92711
88634,92495
88229,92358
87932,92167
87611,92009
87281,91817
87013,91684
86683,91530
86571,91423
86384,91346
86242,91223
86127,91194
85964,91082
85959,91074
85879,91068
85756,91006
85742,90989
85726,90929
85714,90974
85673,90947
85693,90945
85667,90907
85578,90917
85609,90878
85623,90922
85533,90837
85501,90816
85377,90793
85412,90794
85385,90816
85322,90766
85283,90717
85190,90699
85254,90713
85219,90748
85263,90746
85255,90711
85324,90759
85406,90813
85500,90847
85538,90850
85586,90900
85671,90936
85762,90970
85830,91013
85868,91018
85893,91046
85965,91093
86005,91128
86113,91146
86112,91161
86173,91199
86164,91182
86252,91243
86336,91279
86381,91283
86399,91323
86456,91327
86579,91389
86674,91435
86687,91442
86736,91476
86783,91510
86945,91593
86990,91624
87078,91652
87123,91675
87113,91686
87269,91757
87330,91768
87378,91786
87379,91809
87388,91809
87470,91879
87479,91874
87516,91869
87528,91879
87489,91898
87608,91943
87630,91949
87647,91947
87617,91957
87628,91941
87685,91975
87721,92012
87677,92000
87678,91976
87660,91984
87740,91995
87778,92002
87778,92041
87747,92015
87773,92016
87804,92049
87849,92094
87857,92071
87907,92080
87883,92067
87996,92135
88043,92171
88112,92165
88106,92220
88161,92202
88255,92275
88310,92314
88374,92314
88373,92355
88421,92347
88473,92404
88551,92454
88571,92441
88570,92438
88640,92473
88708,92513
88752,92542
88783,92524
88857,92583
88861,92603
88961,92627
89029,92651
89026,92666
89059,92663
89089,92712
89162,92711
89182,92771
89143,92742
89181,92701
89153,92749
89242,92771
89274,92799
89299,92819
89259,92828
89309,92815
89381,92860
89440,92880
89458,92864
89478,92933
89553,92922
89610,92983
89682,93018
89688,93026
89708,92972
89694,93040
89783,93081
89812,93063
89789,93083
89763,93047
89776,93069
89757,93071
89806,93065
89737,93081
89719,93015
89724,93005
89704,93055
89675,93039
89668,93004
89583,93010
89603,92950
89655,92993
89632,93032
89622,93003
89628,92999
89651,93016
89688,93016
89713,93040
89719,93027
89662,93041
89679,93006
89778,93076
89711,93057
89753,93063
89724,93046
89740,93031
89770,93102
89773,93063
89770,93062
89732,93036
89711,93037
89742,93062
89752,93060
89723,93031
89707,93050
89707,93058
89737,93056
89785,93067
89762,93069
89720,93064
89748,93051
89824,93107
89858,93094
89924,93150
89952,93170
89950,93181
90071,93211
90134,93277
90111,93254
90189,93256
90185,93314
90220,93301
90316,93337
90277,93316
90270,93308
90308,93333
90326,93365
90347,93334
90378,93360
90355,93371
90382,93359
90430,93405
90461,93397
90461,93425
90419,93390
90451,93413
90537,93482
90545,93460
90553,93445
90512,93461
90567,93449
90602,93476
90629,93495
90555,93488
90550,93447
90464,93459
90451,93399
90394,93416
90238,93326
90090,93230
89893,93163
89772,93075
89541,92973
89327,92834
89075,92771
88885,92624
88714,92588
88495,92453
88353,92359
88106,92257
87983,92220
87930,92139
87830,92127
87715,92061
87646,91989
87603,91990
87574,91971
87573,91952
87563,91971
87477,91911
87505,91952
87504,91945
87560,91951
87492,91929
87472,91939
87443,91906
87531,91949
87528,91967
87508,91943
87514,91921
87561,91947
87608,92015
87703,92029
87735,92039
87747,92071
87840,92101
87965,92169
87997,92207
88095,92223
88173,92260
88259,92317
88400,92371
88421,92450
88460,92419
88537,92457
88566,92485
88665,92517
88714,92585
88684,92569
88751,92580
88734,92595
88806,92626
88848,92621
88794,92617
88801,92621
88876,92660
88879,92641
88893,92662
88904,92659
88861,92662
88925,92633
88968,92740
88959,92715
88929,92709
88944,92649
88960,92694
88921,92666
88951,92697
88916,92700
88935,92649
88948,92695
88950,92740
88923,92683
88922,92656
88899,92666
88942,92686
89011,92742
89005,92728
89007,92769
88999,92681
89059,92753
89071,92799
89083,92775
89067,92771
89047,92723
89028,92779
89043,92754
89025,92756
88958,92708
88931,92688
88883,92720
88896,92670
88854,92685
88837,92654
88808,92625
88754,92630
88800,92605
88771,92647
88752,92605
88785,92638
88776,92645
88829,92644
88862,92640
88805,92616
88835,92621
88848,92633
88856,92663
88826,92658
88810,92621
88773,92616
88790,92629
88842,92655
88835,92664
88842,92625
88820,92668
88842,92664
88927,92693
88937,92672
88946,92734
88960,92676
89080,92759
89122,92803
89200,92817
89259,92858
89271,92867
89370,92932
89480,92958
89483,92960
89554,92968
89575,93028
89604,93021
89660,93062
89671,93048
89679,93053
89662,93053
89675,93063
89696,93108
89690,93046
89683,93051
89600,93044
89680,93070
89754,93084
89716,93085
89718,93084
89725,93050
89761,93132
89808,93117
89838,93135
89887,93178
89923,93154
90022,93220
90140,93259
90179,93299
90253,93355
90303,93389
90377,93436
90467,93434
90575,93516
90601,93490
90589,93533
90723,93580
90768,93580
90818,93607
90842,93658
90809,93625
90922,93678
90964,93675
91020,93708
90970,93740
90960,93684
91038,93745
91059,93756
91035,93767
90988,93707
91021,93729
91026,93749
91041,93755
91040,93757
91052,93719
90980,93724
91008,93715
91024,93765
90956,93741
90963,93692
90904,93699
90943,93696
90887,93707
90867,93646
90834,93656
90839,93634
90834,93652
90892,93672
90870,93648
90881,93687
90867,93642
90881,93705
90947,93726
90994,93694
91046,93762
91034,93730
91156,93820
91212,93832
91317,93868
91334,93897
91335,93882
91458,93924
91514,93959
91553,93997
91536,94007
91570,93976
91663,94068
91668,94043
91705,94099
91703,94083
91727,94056
91739,94126
91780,94096
91759,94110
91742,94066
91722,94092
91770,94079
91781,94136
91757,94114
91800,94102
91767,94071
91824,94135
91870,94166
91842,94145
91876,94151
91884,94154
91946,94214
91996,94192
91955,94180
91960,94183
91921,94135
91900,94149
91825,94102
91755,94084
91606,94010
91394,93911
91273,93863
91105,93785
90919,93696
90653,93566
90357,93413
90147,93333
89954,93224
89677,93126
89470,92998
89200,92852
89088,92841
88882,92750
88705,92634
88575,92554
88409,92472
88359,92408
88269,92427
88192,92376
88124,92291
88118,92284
88112,92288
88086,92309
88091,92285
88096,92272
88080,92275
88091,92301
88173,92337
88197,92333
88214,92332
88278,92353
88337,92435
88442,92437
88499,92462
88500,92504
88510,92461
88613,92559
88706,92578
88725,92608
88774,92601
88778,92630
88829,92672
88940,92686
88934,92673
88957,92681
88933,92683
89008,92741
89025,92760
89054,92761
89050,92752
89032,92724
89081,92785
89135,92793
89096,92798
89100,92811
89100,92792
89179,92826
89214,92853
89224,92838
89261,92865
89274,92876
89383,92932
89474,92985
89511,93013
89552,93021
89580,93028
89686,93080
89807,93151
89862,93180
89909,93171
89960,93207
90059,93269
90165,93316
90200,93325
90275,93380
90289,93399
90340,93418
90401,93461
90402,93443
90428,93440
90430,93444
90488,93521
90537,93522
90480,93494
90466,93509
90455,93453
90497,93509
90514,93501
90481,93505
90461,93494
90440,93440
90431,93516
90482,93493
90439,93477
90435,93459
90387,93479
90424,93443
90444,93484
90445,93452
90446,93457
90418,93461
90417,93446
90438,93470
90431,93467
90457,93474
90443,93444
90502,93533
90560,93518
90520,93510
90568,93547
90616,93538
90713,93569
90784,93642
90836,93646
90869,93672
90885,93682
91035,93747
91129,93770
91141,93806
91222,93856
91222,93847
91347,93899
91418,93929
91443,93951
91463,93982
91530,93955
91648,94067
91731,94084
91738,94096
91780,94093
91800,94117
91830,94139
91888,94201
91908,94166
91893,94153
91877,94170
91909,94160
91952,94216
91924,94169
91897,94168
91853,94149
91921,94191
91892,94166
91858,94164
91863,94140
91775,94123
91804,94116
91792,94129
91709,94097
91691,94055
91686,94045
91660,94062
91662,94082
91638,94060
91588,94053
91581,93989
91665,94074
91685,94042
91615,94051
91663,94018
91667,94060
91680,94057
91731,94093
91743,94083
91802,94100
91795,94104
91853,94147
91902,94186
91945,94172
91990,94215
91990,94205
92047,94213
92109,94257
92134,94257
92110,94266
92117,94240
92166,94311
92207,94340
92251,94326
92220,94286
92211,94292
92225,94352
92275,94337
92230,94332
92173,94310
92182,94269
92187,94352
92206,94342
92212,94326
92206,94301
92194,94300
92202,94322
92252,94350
92258,94340
92235,94326
92224,94315
92354,94392
92416,94401
92428,94395
92458,94422
92486,94416
92557,94495
92671,94544
92747,94564
92754,94608
92782,94565
92919,94637
92991,94671
93030,94730
93064,94702
93142,94740
93177,94782
93250,94812
93254,94828
93277,94815
93335,94818
93406,94894
93426,94904
93445,94915
93454,94921
93463,94902
93542,94926
93572,94955
93571,94973
93560,94948
93595,94952
93661,94990
93691,95025
93659,94976
93696,95015
93692,95007
93711,95016
93688,94971
93622,94983
93550,94894
93434,94877
93381,94860
93240,94795
93122,94709
92899,94632
92707,94578
92585,94453
92390,94415
92160,94254
91882,94187
91645,94050
91438,93988
91202,93853
90957,93790
90714,93676
90456,93539
90322,93503
90098,93371
89944,93275
89740,93192
89627,93100
89540,93057
89515,93031
89387,93027
89367,92940
89328,92942
89397,92985
89412,92981
89404,92992
89476,92969
89488,93024
89575,93028
89629,93089
89656,93119
89709,93122
89734,93117
89858,93212
89920,93202
89950,93222
89996,93241
89995,93278
90080,93263
90147,93332
90140,93340
90155,93332
90186,93340
90216,93360
90315,93400
90298,93427
90290,93394
90344,93422
90379,93462
90435,93481
90438,93497
90456,93465
90491,93484
90594,93523
90634,93596
90632,93546
90665,93607
90669,93614
90779,93647
90795,93675
90823,93637
90852,93677
90857,93701
90991,93737
91021,93745
91059,93788
91043,93732
91114,93800
91133,93820
91201,93841
91218,93842
91237,93854
91235,93875
91308,93911
91327,93920
91288,93902
91307,93890
91296,93886
91302,93916
91321,93915
91322,93930
91250,93867
91259,93899
91282,93899
91265,93938
91225,93856
91216,93881
91171,93845
91225,93864
91218,93884
91207,93895
91159,93835
91190,93818
91194,93880
91236,93913
91186,93887
91201,93855
91132,93848
91235,93910
91234,93899
91246,93893
91224,93863
91239,93902
91327,93921
91346,93923
91353,93933
91352,93935
91378,93925
91414,93985
91462,93976
91444,93993
91451,93946
91485,93966
91544,94051
91605,94050
91615,94019
91605,94068
91598,94063
91674,94119
91717,94121
91737,94097
91737,94122
91760,94114
91857,94192
91872,94185
91909,94205
91862,94195
91933,94206
91988,94259
92034,94263
92067,94256
92070,94261
92112,94287
92141,94331
92180,94304
92236,94352
92199,94341
92226,94374
92275,94391
92312,94381
92327,94410
92279,94356
92289,94403
92332,94408
92359,94409
92312,94412
92284,94365
92299,94421
92354,94435
92342,94417
92318,94385
92248,94379
92293,94382
92307,94423
92334,94384
92315,94418
92258,94375
92253,94354
92308,94401
92293,94390
92280,94409
92245,94376
92243,94383
92235,94372
92269,94338
92264,94374
92233,94357
92230,94351
92315,94417
92320,94412
92336,94386
92309,94412
92328,94409
92344,94426
92393,94435
92379,94439
92341,94421
92397,94420
92438,94461
92474,94470
92468,94477
92425,94466
92471,94444
92496,94504
92516,94492
92529,94492
92489,94509
92547,94477
92560,94527
92565,94502
92552,94529
92545,94505
92567,94478
92617,94565
92561,94543
92556,94511
92543,94491
92588,94538
92613,94549
92571,94538
92587,94519
92534,94507
92575,94511
92596,94556
92525,94512
92559,94510
92525,94502
92527,94509
92579,94530
92564,94524
92578,94493
92596,94514
92624,94579
92719,94602
92725,94606
92756,94633
92749,94569
92853,94654
92858,94660
92867,94649
92858,94675
92788,94591
92750,94596
92676,94566
92553,94504
92405,94424
92244,94332
92034,94264
91864,94198
91595,94064
91369,93975
91107,93834
90891,93759
90672,93654
90402,93507
90181,93414
89922,93269
89757,93215
89606,93128
89439,93038
89309,92971
89170,92876
89123,92855
89056,92864
89031,92811
88986,92811
88913,92745
88963,92782
89014,92772
89032,92805
89020,92797
89049,92785
89060,92847
89129,92851
89244,92875
89238,92892
89305,92916
89379,93006
89444,93029
89543,93039
89562,93061
89642,93060
89708,93112
89784,93199
89809,93185
89904,93234
89892,93208
89948,93249
90047,93299
90031,93335
90093,93287
90051,93310
90083,93340
90156,93344
90159,93369
90138,93347
90123,93332
90106,93375
90137,93366
90143,93349
90146,93390
90121,93347
90172,93385
90187,93386
90241,93388
90257,93393
90242,93417
90335,93456
90379,93472
90426,93497
90428,93500
90452,93507
90525,93551
90572,93578
90614,93553
90596,93574
90614,93576
90650,93595
90691,93629
90754,93668
90718,93652
90709,93584
90789,93692
90790,93667
90819,93713
90783,93707
90784,93659
90831,93730
90875,93741
90929,93761
90894,93739
90870,93714
90955,93777
90968,93776
91000,93791
91018,93778
90962,93803
90999,93768
91007,93798
91002,93771
90968,93787
90879,93756
90886,93722
90901,93760
90813,93695
90842,93714
90752,93638
90807,93695
90803,93710
90820,93673
90843,93702
90802,93714
90878,93708
90954,93762
90960,93775
91018,93793
91010,93818
91126,93828
91220,93909
91278,93920
91307,93929
91319,93936
91431,94025
91481,94029
91551,94039
91573,94052
91573,94085
91690,94111
91700,94124
91740,94155
91764,94143
91702,94112
91789,94166
91805,94214
91800,94148
91837,94196
91726,94138
91815,94179
91766,94187
91792,94169
91792,94185
91736,94163
91791,94145
91804,94200
91796,94195
91811,94160
91810,94178
91846,94170
91922,94225
91925,94196
91905,94232
91907,94225
91967,94268
92037,94281
92040,94298
92076,94313
92075,94300
92133,94343
92140,94345
92203,94370
92185,94361
92190,94399
92250,94381
92241,94417
92297,94386
92285,94426
92237,94373
92317,94412
92341,94466
92322,94444
92329,94407
92305,94408
92318,94427
92374,94464
92312,94452
92322,94415
92298,94428
92353,94408
92340,94471
92310,94405
92318,94415
92245,94406
92309,94414
92319,94427
92317,94443
92279,94421
92257,94394
92331,94409
92375,94489
92356,94446
92414,94461
92412,94447
92445,94499
92519,94526
92506,94551
92561,94523
92542,94528
92608,94562
92668,94587
92675,94565
92711,94619
92660,94583
92771,94649
92797,94654
92806,94657
92816,94667
92836,94679
92864,94673
92920,94715
92911,94722
92880,94705
92878,94655
92874,94725
92886,94690
92871,94698
92869,94680
92845,94680
92869,94685
92914,94700
92911,94718
92919,94684
92898,94684
92951,94738
93005,94740
93061,94781
93045,94755
93035,94765
93082,94819
93177,94839
93192,94838
93172,94824
93201,94824
93269,94870
93325,94918
93322,94890
93348,94927
93340,94898
93370,94945
93450,94944
93400,94937
93402,94915
93343,94908
93328,94888
93309,94896
93164,94811
93006,94753
92812,94651
92707,94603
92545,94565
92281,94378
92030,94316
91749,94176
91519,94107
91301,93982
91010,93841
90761,93728
90453,93575
90265,93508
90113,93384
89907,93328
89709,93229
89566,93081
89481,93110
89401,93034
89306,92988
89288,92959
89217,92948
89293,92946
89275,92975
89297,92992
89314,92984
89352,92982
89467,93078
89506,93090
89586,93119
89634,93150
89665,93167
89800,93194
89848,93258
89925,93301
89948,93279
89980,93294
90059,93352
90128,93379
90134,93417
90160,93387
90161,93397
90246,93417
90261,93455
90299,93485
90297,93461
90318,93462
90392,93535
90438,93528
90442,93511
90508,93546
90459,93533
90547,93574
90622,93629
90611,93594
90654,93627
90615,93602
90728,93678
90741,93683
90778,93690
90771,93723
90759,93727
90843,93742
90948,93787
90899,93801
90923,93781
90947,93795
90997,93822
91007,93871
91008,93809
91040,93856
90978,93778
91038,93831
91056,93832
91032,93860
91005,93815
91028,93831
91043,93851
91047,93850
91039,93861
91001,93827
90975,93799
90994,93843
91018,93837
90973,93781
90941,93793
90900,93759
90936,93776
90922,93780
90907,93767
90889,93758
90834,93729
90934,93776
90875,93801
90872,93745
90870,93758
90842,93721
90866,93749
90918,93796
90876,93760
90907,93747
90909,93769
90965,93801
90970,93793
91012,93814
91032,93825
91023,93795
91099,93850
91141,93904
91166,93890
91255,93912
91207,93927
91298,93954
91380,93985
91399,94048
91446,94022
91488,94074
91549,94093
91657,94138
91663,94114
91702,94149
91693,94169
91782,94210
91805,94189
91806,94245
91822,94211
91847,94228
91906,94251
91896,94284
91898,94236
91903,94272
91837,94218
91888,94263
91959,94284
91913,94273
91918,94249
91932,94239
91964,94295
92001,94272
91996,94264
91999,94312
92046,94338
92109,94338
92170,94402
92205,94378
92195,94386
92220,94432
92314,94432
92362,94479
92358,94484
92399,94475
92401,94527
92450,94515
92550,94541
92511,94549
92533,94563
92532,94564
92614,94628
92695,94608
92684,94617
92675,94633
92679,94601
92767,94675
92796,94649
92764,94685
92719,94649
92760,94655
92776,94677
92832,94707
92775,94663
92727,94670
92735,94641
92790,94706
92776,94699
92726,94680
92707,94626
92662,94637
92763,94648
92699,94668
92674,94595
92631,94591
92608,94614
92645,94586
92650,94643
92660,94617
92618,94587
92651,94598
92698,94660
92772,94651
92765,94680
92788,94676
92776,94696
92929,94742
92971,94735
93000,94766
93002,94794
93067,94776
93146,94839
93187,94852
93201,94871
93196,94891
93208,94871
93252,94906
93278,94904
93268,94905
93246,94903
93240,94915
93303,94908
93264,94925
93266,94902
93266,94915
93275,94886
93267,94917
93286,94908
93276,94876
93218,94885
93194,94871
93282,94907
93292,94918
93239,94898
93289,94906
93219,94876
93312,94928
93281,94936
93304,94944
93294,94894
93328,94927
93362,94956
93431,94977
93472,94980
93507,95040
93543,95028
93616,95088
93697,95088
93707,95121
93728,95129
93786,95150
93887,95195
93916,95211
93909,95206
93869,95155
93845,95162
93816,95177
93739,95074
93599,95051
93414,94962
93237,94863
93060,94820
92812,94662
92565,94576
92256,94445
91943,94272
91745,94229
91388,94036
91075,93915
90827,93782
90497,93625
90349,93557
90109,93411
89929,93316
89725,93209
89602,93176
89533,93128
89405,93046
89337,93014
89289,92967
89204,92960
89205,92917
89220,92968
89201,92928
89213,92945
89178,92946
89296,92944
89304,93022
89348,93025
89370,93011
89425,93003
89519,93062
89514,93084
89570,93094
89608,93122
89579,93109
89694,93132
89692,93177
89738,93197
89738,93184
89768,93222
89862,93222
89905,93312
89917,93284
89953,93243
89989,93320
90041,93351
90100,93343
90074,93372
90081,93343
90148,93356
90187,93434
90201,93412
90192,93442
90197,93440
90175,93411
90295,93429
90241,93512
90291,93449
90284,93461
90307,93469
90359,93526
90358,93476
90377,93507
90373,93503
90378,93510
90427,93575
90485,93557
90509,93543
90478,93575
90520,93582
90575,93602
90612,93639
90578,93632
90635,93606
90676,93667
90725,93691
90769,93678
90768,93716
90757,93723
90781,93690
90838,93743
90828,93750
90845,93730
90783,93731
90771,93746
90835,93705
90778,93735
90773,93722
90735,93672
90681,93689
90712,93664
90690,93692
90639,93606
90615,93624
90627,93627
90628,93637
90656,93657
90563,93620
90580,93573
90577,93612
90572,93609
90586,93588
90566,93605
90528,93547
90577,93605
90615,93658
90637,93602
90676,93662
90670,93672
90724,93660
90845,93738
90890,93739
90928,93761
90928,93777
91010,93800
91127,93858
91113,93861
91188,93900
91185,93898
91220,93942
91252,93912
91309,93960
91270,93966
91279,93959
91293,93968
91356,93993
91325,93975
91355,93949
91312,93983
91348,94002
91357,94022
91393,94006
91391,94019
91341,93945
91353,94001
91396,94001
91377,93979
91329,93986
91303,93940
91291,93981
91321,93960
91330,93971
91267,93947
91215,93937
91230,93927
91281,93950
91215,93934
91186,93930
91161,93897
91177,93928
91254,93938
91256,93926
91259,93897
91265,93942
91282,93939
91345,93931
91377,93999
91358,94006
91360,93960
91352,94005
91412,94012
91398,94004
91425,94019
91366,94003
91363,93977
91415,94021
91412,94031
91404,93999
91373,93972
91411,94001
91473,94048
91464,94042
91497,94046
91459,94025
91502,94021
91567,94110
91601,94081
91638,94119
91622,94121
91698,94171
91748,94144
91828,94228
91772,94186
91768,94200
91788,94215
91900,94214
91845,94221
91868,94224
91862,94197
91865,94243
91874,94266
91858,94208
91859,94226
91765,94179
91852,94204
91851,94221
91847,94202
91874,94232
91834,94211
91876,94265
91895,94232
91921,94271
91907,94251
91906,94265
91933,94237
91990,94311
92002,94278
92008,94301
91964,94287
92033,94299
92047,94328
92064,94329
92076,94309
92062,94313
92097,94353
92158,94389
92155,94354
92216,94362
92185,94383
92223,94427
92317,94419
92368,94463
92352,94484
92391,94432
92434,94508
92519,94555
92539,94550
92533,94561
92564,94524
92633,94603
92669,94594
92755,94654
92743,94614
92723,94636
92746,94659
92817,94687
92803,94672
92774,94665
92768,94644
92751,94657
92770,94630
92721,94629
92567,94580
92434,94509
92391,94465
92252,94420
92050,94353
91868,94187
91606,94108
91413,94012
91278,93947
90989,93806
90807,93722
90485,93590
90331,93511
90185,93435
90008,93343
89826,93257
89599,93137
89501,93063
89387,93079
89317,92968
89158,92903
89079,92849
89066,92840
88989,92815
88985,92806
88942,92752
88857,92728
88906,92771
88909,92741
88922,92757
88900,92779
88920,92785
88985,92791
89030,92794
89081,92823
89074,92891
89146,92851
89200,92896
89331,92966
89341,93005
89446,92984
89467,93060
89558,93058
89632,93147
89701,93144
89760,93171
89736,93175
89838,93238
89910,93240
89928,93272
89934,93257
89955,93264
90020,93345
90053,93300
90073,93341
90053,93331
90035,93340
90047,93323
90120,93377
90084,93349
90092,93336
90030,93312
90086,93364
90117,93350
90145,93381
90092,93354
90106,93384
90136,93400
90196,93381
90188,93380
90201,93391
90150,93367
90227,93416
90273,93437
90237,93426
90197,93426
90162,93359
90204,93401
90195,93396
90195,93400
90178,93412
90120,93350
90217,93365
90171,93426
90205,93412
90202,93405
90187,93395
90212,93432
90273,93435
90250,93463
90240,93417
90215,93380
90221,93448
90256,93419
90237,93405
90210,93408
90112,93359
90161,93385
90143,93388
90108,93389
90065,93310
90019,93328
90047,93328
90018,93303
90039,93332
90014,93353
89995,93255
90100,93341
90095,93354
90088,93359
90065,93358
90042,93320
90127,93353
90144,93384
90164,93405
90171,93381
90130,93345
90231,93424
90232,93449
90291,93439
90289,93471
90277,93458
90349,93501
90363,93516
90405,93496
90397,93536
90364,93496
90419,93501
90410,93519
90437,93538
90394,93544
90343,93491
90356,93516
90387,93523
90340,93495
90344,93471
90227,93459
90217,93414
90212,93456
90119,93393
90066,93405
89976,93294
90007,93334
89922,93322
89838,93263
89817,93250
89730,93197
89754,93234
89741,93220
89673,93181
89648,93150
89612,93116
89627,93130
89631,93151
89588,93127
89602,93130
89587,93092
89611,93127
89637,93143
89631,93125
89667,93146
89635,93119
89694,93155
89726,93204
89747,93180
89783,93188
89753,93174
89770,93212
89851,93273
89826,93212
89835,93225
89764,93182
89822,93215
89833,93255
89779,93198
89784,93229
89747,93182
89761,93227
89810,93199
89816,93232
89782,93189
89769,93201
89803,93247
89842,93228
89856,93240
89818,93218
89809,93208
89849,93234
89942,93259
89928,93289
89932,93232
89915,93245
89976,93319
90016,93312
90033,93274
90026,93338
90002,93303
90081,93379
90123,93395
90090,93364
90155,93377
90134,93372
90227,93403
90274,93468
90284,93443
90235,93440
90230,93415
90330,93464
90314,93479
90310,93439
90308,93484
90264,93462
90301,93476
90372,93494
90365,93512
90363,93487
90362,93479
90492,93522
90504,93585
90533,93572
90558,93604
90572,93589
90645,93608
90719,93637
90746,93688
90747,93648
90747,93673
90811,93699
90871,93726
90823,93753
90824,93672
90764,93683
90767,93716
90741,93661
90620,93593
90533,93597
90367,93485
90220,93408
90103,93343
89811,93240
89636,93130
89384,93019
89223,92940
89012,92811
88787,92731
88649,92619
88477,92505
88387,92491
88329,92454
88211,92416
88154,92308
88048,92325
88027,92311
88002,92283
87907,92242
87863,92197
87785,92181
87761,92160
87710,92173
87676,92075
87641,92111
87556,92026
87628,92103
87596,92090
87614,92070
87575,92091
87585,92054
87614,92110
87676,92089
87641,92129
87696,92128
87709,92146
87771,92166
87830,92201
87840,92176
87841,92212
87842,92202
87973,92274
87975,92285
87993,92258
88058,92267
88034,92316
88092,92350
88147,92361
88160,92355
88160,92362
88165,92338
88276,92426
88288,92449
88261,92422
88330,92411
88292,92450
88388,92437
88409,92508
88404,92490
88481,92531
88472,92519
88536,92549
88613,92568
88641,92621
88687,92588
88680,92627
88784,92660
88834,92708
88791,92674
88827,92688
88807,92682
88871,92704
88906,92737
88873,92755
88873,92688
88833,92718
88859,92734
88870,92738
88806,92709
88796,92675
88826,92662
88798,92713
88828,92712
88779,92690
88798,92669
88769,92626
88788,92732
88803,92681
88765,92635
88734,92628
88669,92624
88698,92653
88653,92630
88583,92547
88526,92542
88477,92537
88528,92592
88510,92525
88500,92532
88486,92507
88512,92508
88580,92557
88692,92631
88622,92598
88699,92625
88741,92645
88806,92656
88898,92721
88913,92761
88919,92753
88948,92799
89056,92818
89088,92809
89112,92847
89138,92818
89126,92827
89151,92881
89242,92902
89266,92896
89235,92895
89207,92899
89304,92909
89337,92959
89344,92944
89325,92968
89388,92983
89481,93025
89538,93078
89527,93036
89540,93070
89546,93073
89656,93106
89660,93131
89672,93088
89671,93104
89646,93126
89697,93149
89733,93141
89772,93157
89710,93148
89726,93138
89806,93180
89856,93212
89826,93239
89851,93195
89930,93230
89990,93287
90051,93297
90119,93317
90106,93333
90090,93310
90199,93379
90203,93383
90216,93363
90250,93380
90232,93408
90284,93429
90319,93422
90311,93450
90341,93409
90293,93431
90390,93480
90370,93496
90415,93476
90338,93477
90363,93453
90393,93474
90395,93491
90362,93482
90331,93461
90353,93428
90347,93474
90384,93490
90330,93435
90312,93435
90256,93412
90328,93433
90279,93424
90271,93406
90212,93403
90202,93413
90278,93400
90244,93428
90248,93399
90258,93416
90260,93428
90369,93452
90415,93469
90465,93507
90497,93530
90541,93490
90589,93602
90697,93622
90758,93623
90720,93655
90747,93659
90803,93643
90838,93708
90778,93661
90823,93672
90740,93695
90782,93672
90817,93690
90767,93666
90725,93635
90726,93647
90711,93620
90728,93639
90701,93637
90703,93636
90714,93630
90761,93684
90787,93649
90793,93702
90829,93712
90853,93697
90970,93741
91024,93825
91021,93763
91061,93793
91104,93842
91222,93894
91212,93911
91288,93912
91304,93919
91321,93954
91396,93981
91426,93990
91462,94005
91465,93991
91558,94017
91606,94094
91615,94101
91644,94075
91665,94109
91696,94075
91781,94173
91772,94169
91807,94146
91775,94140
91688,94131
91691,94089
91634,94083
91464,94002
91305,93915
91135,93846
90932,93778
90649,93601
90420,93512
90080,93337
89828,93215
89605,93119
89307,92991
89092,92816
88828,92697
88609,92591
88489,92550
88368,92458
88173,92376
88041,92272
87929,92238
87849,92199
87763,92159
87688,92106
87571,92063
87534,91994
87508,92042
87460,91982
87438,91969
87365,91923
87397,91940
87419,91986
87443,91951
87459,91992
87457,91971
87522,91994
87540,92053
87575,92016
87611,92088
87601,92042
87679,92058
87711,92111
87831,92133
87792,92151
87822,92150
87886,92192
87947,92239
88032,92232
88079,92304
88067,92284
88146,92332
88206,92380
88271,92390
88231,92389
88263,92356
88306,92436
88347,92438
88400,92445
88393,92455
88363,92419
88444,92483
88470,92506
88524,92502
88531,92506
88557,92526
88569,92530
88677,92587
88691,92630
88703,92631
88709,92614
88762,92639
88788,92668
88814,92696
88803,92636
88792,92673
88801,92664
88845,92685
88807,92694
88785,92640
88759,92651
88709,92613
88755,92650
88769,92631
88763,92645
88687,92636
88708,92608
88786,92666
88736,92612
88790,92654
88763,92636
88849,92682
88848,92715
88904,92681
88919,92729
88918,92701
88949,92715
88948,92752
88990,92753
88905,92717
88888,92709
88885,92689
88880,92713
88838,92704
88753,92668
88698,92635
88676,92632
88684,92624
88670,92594
88622,92589
88594,92574
88562,92549
88591,92561
88617,92557
88613,92585
88606,92554
88652,92608
88719,92625
88729,92619
88736,92634
88742,92606
88805,92667
88865,92696
88888,92698
88878,92696
88875,92695
88893,92714
88940,92714
88908,92742
88915,92728
88917,92704
88912,92733
88964,92755
88997,92735
89017,92770
88972,92747
89055,92792
89087,92807
89071,92825
89089,92781
89149,92819
89127,92813
89188,92882
89249,92859
89258,92862
89205,92861
89282,92915
89317,92919
89348,92952
89325,92900
89304,92899
89336,92939
89337,92953
89362,92913
89320,92883
89297,92907
89294,92882
89346,92924
89292,92926
89284,92899
89232,92863
89256,92891
89253,92906
89274,92877
89257,92853
89232,92844
89241,92869
89295,92928
89277,92873
89274,92893
89285,92883
89263,92878
89280,92901
89302,92894
89261,92872
89236,92857
89256,92884
89257,92910
89303,92890
89260,92898
89234,92880
89322,92912
89341,92973
89370,92935
89360,92947
89402,92921
89466,92978
89504,93037
89552,92983
89568,93047
89560,93049
89611,93028
89685,93092
89668,93103
89632,93079
89643,93068
89665,93073
89672,93111
89712,93109
89678,93107
89651,93106
89701,93112
89720,93116
89707,93112
89717,93087
89666,93100
89687,93065
89777,93140
89725,93109
89705,93138
89697,93074
89744,93148
89758,93134
89752,93165
89808,93148
89752,93152
89821,93154
89884,93207
89870,93180
89902,93207
89876,93182
89950,93253
90029,93258
90029,93292
90058,93273
90066,93291
90172,93359
90195,93341
90276,93411
90286,93414
90284,93361
90407,93434
90445,93466
90477,93501
90459,93478
90498,93464
90514,93514
90582,93551
90590,93545
90565,93565
90592,93514
90599,93582
90644,93552
90638,93567
90652,93576
90543,93534
90585,93520
90512,93476
90443,93491
90286,93412
90119,93279
89956,93265
89814,93174
89620,93049
89432,92941
89169,92845
89038,92772
88846,92654
88652,92587
88433,92478
88245,92323
88136,92290
87996,92231
87845,92137
87715,92081
87533,92012
87467,91942
87388,91908
87286,91842
87199,91791
87053,91747
87065,91729
87051,91740
86974,91682
86984,91672
86910,91686
86961,91675
87043,91690
87006,91733
87033,91709
87071,91718
87140,91766
87209,91813
87195,91799
87287,91841
87252,91842
87347,91901
87402,91907
87433,91936
87501,91946
87453,91958
87552,92008
87561,92015
87607,92027
87636,92022
87599,92047
87702,92069
87802,92122
87782,92114
87852,92157
87800,92105
87920,92169
87956,92221
87992,92249
87989,92225
88028,92236
88108,92272
88164,92317
88167,92279
88187,92309
88185,92318
88244,92340
88267,92398
88296,92349
88278,92370
88256,92311
88297,92365
88332,92408
88295,92378
88326,92420
88331,92374
88374,92398
88451,92445
88442,92413
88440,92438
88448,92461
88526,92477
88575,92539
88574,92520
88626,92522
88606,92554
88684,92554
88712,92615
88693,92576
88675,92566
88685,92518
88708,92597
88678,92581
88702,92565
88629,92540
88621,92486
88645,92570
88580,92539
88573,92531
88543,92513
88575,92475
88631,92526
88632,92552
88626,92525
88625,92538
88605,92542
88666,92543
88704,92589
88698,92564
88784,92589
88718,92623
88827,92635
88891,92647
88915,92661
88901,92705
88953,92667
88981,92774
89042,92723
89032,92756
89096,92775
89119,92756
89204,92847
89243,92829
89289,92879
89299,92865
89329,92905
89408,92928
89478,92962
89459,92999
89437,92942
89490,92948
89536,93007
89544,93013
89542,92969
89527,92998
89453,92940
89482,92996
89556,92995
89525,92986
89516,92979
89540,92996
89565,93017
89635,93060
89634,93046
89684,93059
89656,93088
89768,93111
89858,93184
89882,93162
89882,93180
89888,93142
89957,93212
90018,93277
90012,93221
89996,93240
90015,93225
90083,93260
90089,93291
90049,93287
90020,93239
89963,93186
89987,93231
90015,93259
89944,93201
89877,93159
89815,93153
89829,93181
89783,93163
89758,93109
89711,93122
89634,93031
89728,93118
89762,93141
89731,93089
89747,93107
89774,93078
89872,93182
89921,93202
89940,93174
89996,93232
89972,93213
90084,93285
90087,93287
90102,93291
90098,93295
90088,93287
90110,93317
90178,93302
90139,93340
90105,93294
90103,93306
90109,93308
90100,93320
90066,93259
90075,93262
90007,93268
90061,93284
90075,93324
90037,93254
90039,93288
90033,93248
90076,93286
90102,93302
90144,93285
90206,93337
90160,93312
90309,93383
90335,93418
90382,93415
90413,93454
90432,93465
90466,93492
90535,93479
90530,93499
90558,93515
90527,93493
90560,93562
90579,93520
90609,93549
90588,93549
90546,93472
90597,93549
90588,93568
90558,93522
90567,93541
90567,93534
90642,93560
90629,93568
90600,93555
90671,93553
90598,93569
90682,93593
90680,93600
90666,93594
90697,93566
90674,93609
90737,93604
90773,93630
90795,93637
90726,93640
90749,93596
90829,93648
90801,93629
90830,93660
90758,93642
90692,93602
90647,93548
90582,93545
90372,93428
90229,93364
90039,93246
89853,93167
89637,93079
89419,92952
89164,92786
88892,92701
88700,92603
88491,92504
88247,92348
88081,92267
87834,92135
87725,92086
87608,92007
87459,91961
87369,91877
87271,91871
87258,91853
87244,91841
87165,91801
87128,91745
87095,91746
87085,91771
87121,91769
87124,91757
87096,91752
87153,91775
87203,91791
87262,91859
87245,91835
87321,91874
87326,91836
87464,91926
87472,91971
87498,91949
87617,92006
87596,92015
87694,92058
87733,92069
87801,92092
87790,92129
87800,92083
87846,92142
87870,92157
87834,92156
87848,92130
87845,92135
87877,92158
87896,92170
87927,92184
87940,92144
87877,92162
87963,92203
88047,92223
87999,92216
88030,92226
88006,92221
88083,92286
88111,92269
88090,92266
88129,92273
88147,92274
88160,92312
88212,92352
88205,92316
88175,92320
88187,92308
88236,92345
88256,92327
88175,92308
88212,92274
88167,92293
88197,92313
88229,92328
88177,92314
88220,92326
88211,92309
88284,92357
88316,92381
88320,92372
88396,92418
88416,92407
88484,92484
88582,92495
88523,92463
88570,92525
88546,92478
88593,92507
88608,92509
88539,92505
88505,92454
88458,92422
88492,92480
88486,92445
88475,92455
88410,92447
88399,92395
88491,92458
88533,92465
88477,92487
88462,92419
88434,92432
88483,92496
88530,92502
88534,92465
88497,92508
88505,92477
88538,92499
88568,92505
88555,92481
88535,92499
88541,92472
88534,92516
88570,92507
88513,92490
88553,92494
88507,92465
88620,92544
88560,92520
88569,92501
88568,92514
88576,92519
88667,92552
88629,92547
88684,92531
88665,92569
88692,92569
88757,92587
88831,92627
88805,92649
88863,92620
88859,92636
88894,92697
88982,92695
89016,92713
89018,92747
89026,92748
89107,92770
89126,92786
89133,92777
89201,92810
89201,92818
89239,92847
89289,92872
89273,92834
89284,92878
89287,92870
89321,92883
89333,92892
89329,92879
89319,92908
89352,92889
89437,92955
89431,92941
89399,92911
89455,92932
89426,92967
89527,92965
89485,92993
89507,92944
89505,93004
89501,92963
89574,93018
89656,93011
89616,93044
89661,93021
89677,93062
89721,93084
89791,93104
89815,93124
89797,93102
89887,93141
89919,93213
89973,93204
90006,93207
89992,93205
90050,93230
90134,93307
90128,93278
90152,93301
90184,93309
90212,93321
90260,93368
90290,93347
90263,93343
90232,93328
90260,93355
90266,93384
90308,93378
90312,93393
90222,93315
90224,93356
90229,93354
90238,93361
90213,93334
90176,93305
90188,93309
90189,93350
90219,93369
90250,93335
90209,93330
90255,93346
90305,93385
90357,93414
90377,93410
90396,93405
90414,93442
90509,93457
90511,93509
90503,93472
90500,93455
90529,93496
90587,93547
90580,93517
90608,93507
90582,93525
90577,93513
90686,93558
90651,93588
90647,93526
90678,93576
90657,93561
90707,93616
90715,93613
90705,93553
90692,93613
90735,93611
90785,93633
90812,93653
90809,93660
90868,93624
90917,93661
90977,93727
91043,93752
91082,93752
91112,93743
91171,93799
91222,93828
91260,93848
91268,93841
91233,93827
91271,93839
91237,93833
91247,93850
91134,93833
91039,93729
90904,93677
90781,93640
90655,93544
90422,93464
90222,93313
90000,93231
89759,93127
89570,93024
89310,92852
89025,92773
88817,92633
88669,92564
88463,92467
88285,92355
88146,92279
88019,92264
87968,92168
87906,92135
87818,92113
87731,92048
87706,92073
87694,92023
87703,92045
87671,92013
87594,91958
87618,91999
87659,92018
87689,92085
87683,92015
87708,92064
87768,92083
87860,92135
87938,92153
87950,92208
87997,92177
88061,92209
88122,92266
88185,92267
88216,92305
88178,92254
88214,92286
88290,92343
88323,92346
88365,92380
88333,92371
88416,92389
88458,92450
88544,92460
88579,92495
88603,92499
88618,92491
88658,92567
88692,92559
88711,92536
88683,92568
88712,92568
88758,92588
88752,92571
88718,92565
88723,92575
88740,92599
88828,92622
88812,92637
88827,92622
88825,92606
88844,92637
88881,92647
88893,92648
88887,92659
88854,92638
88808,92625
88874,92629
88819,92655
88809,92621
88740,92561
88710,92597
88703,92532
88704,92549
88630,92545
88576,92490
88534,92492
88561,92472
88549,92500
88513,92437
88431,92446
88475,92444
88479,92436
88514,92460
88492,92473
88460,92430
88520,92455
88528,92492
88563,92478
88589,92488
88560,92460
88562,92467
88638,92517
88610,92502
88637,92527
88596,92479
88601,92520
88610,92519
88621,92484
88572,92519
88548,92446
88502,92450
88529,92470
88507,92492
88534,92446
88480,92434
88503,92468
88511,92445
88566,92469
88578,92485
88573,92478
88623,92514
88725,92574
88698,92584
88769,92538
88782,92571
88794,92612
88857,92644
88893,92664
88898,92625
88870,92633
88913,92649
88958,92701
88899,92660
88926,92639
88874,92619
88830,92637
88883,92663
88839,92635
88789,92616
88776,92553
88818,92616
88827,92602
88846,92613
88850,92652
88812,92621
88907,92640
88957,92712
89011,92699
89049,92723
89107,92725
89196,92809
89259,92818
89295,92837
89295,92850
89285,92841
89338,92825
89351,92896
89360,92878
89351,92847
89303,92828
89284,92876
89296,92875
89261,92855
89253,92822
89194,92810
89157,92772
89148,92814
89120,92784
89114,92745
89079,92717
89056,92741
89126,92748
89142,92780
89112,92776
89144,92741
89129,92801
89222,92793
89277,92852
89262,92841
89283,92834
89321,92844
89420,92897
89411,92908
89395,92875
89434,92883
89408,92899
89480,92935
89481,92956
89462,92893
89431,92928
89483,92908
89495,92951
89516,92934
89480,92942
89436,92915
89489,92955
89515,92964
89517,92956
89500,92964
89422,92932
89524,92938
89564,92997
89578,92984
89590,92991
89562,92947
89646,93047
89649,93032
89719,93042
89753,93057
89743,93063
89805,93093
89916,93121
89913,93149
89890,93147
89921,93175
89944,93164
90021,93229
90030,93196
90007,93195
89996,93198
90032,93246
90071,93213
90029,93236
90037,93217
90005,93197
89994,93182
90024,93217
89991,93195
89969,93174
89884,93133
89973,93192
89974,93179
89984,93206
89928,93156
89875,93172
89980,93205
90031,93221
90029,93235
90080,93244
90057,93219
90153,93251
90253,93301
90294,93356
90334,93358
90329,93352
90445,93404
90497,93432
90467,93415
90479,93428
90402,93355
90381,93378
90283,93332
90171,93254
90004,93179
89771,93052
89601,93004
89392,92916
89139,92741
88895,92642
88630,92501
88443,92419
88219,92290
87973,92157
87774,92053
87570,91971
87497,91897
87336,91853
87214,91747
87095,91699
86981,91621
86987,91635
86960,91611
86878,91570
86833,91564
86816,91548
86858,91567
86852,91568
86912,91600
86934,91592
86932,91616
87018,91649
87108,91676
87171,91750
87214,91734
87238,91757
87322,91799
87410,91872
87462,91867
87455,91880
87508,91894
87598,91943
87631,91966
87670,91969
87695,92001
87676,91968
87722,92019
87780,92048
87766,92045
87797,92061
87787,92027
87777,92055
87834,92069
87840,92065
87812,92067
87791,92031
87865,92095
87872,92096
87911,92085
87875,92105
87877,92113
87972,92141
88037,92163
88092,92198
88094,92207
88143,92185
88250,92281
88310,92323
88359,92317
88411,92341
88390,92370
88441,92348
88490,92416
88506,92394
88467,92416
88414,92352
88473,92429
88485,92398
88456,92392
88398,92363
88346,92299
88388,92361
88372,92350
88333,92312
88294,92298
88249,92284
88311,92327
88296,92296
88216,92283
88231,92265
88142,92212
88149,92252
88159,92237
88138,92214
88091,92178
88058,92171
88081,92207
88047,92197
88069,92159
88018,92165
88016,92162
88044,92167
88040,92173
88047,92180
88049,92137
88028,92165
88105,92175
88158,92230
88156,92225
88152,92226
88187,92219
88238,92254
88303,92295
88325,92308
88348,92347
88342,92289
88446,92400
88490,92420
88497,92411
88540,92397
88537,92390
88606,92466
88614,92461
88631,92443
88656,92463
88632,92477
88699,92485
88759,92525
88770,92527
88784,92528
88797,92532
88865,92601
88946,92623
88988,92591
88991,92675
88991,92616
89072,92671
89112,92699
89144,92709
89130,92697
89152,92728
89207,92715
89256,92781
89197,92740
89214,92758
89193,92746
89248,92773
89226,92771
89243,92772
89255,92757
89206,92722
89267,92784
89293,92790
89282,92786
89290,92778
89231,92768
89329,92819
89354,92840
89368,92829
89429,92839
89426,92839
89478,92900
89538,92909
89556,92923
89613,92938
89600,92921
89687,93000
89766,93012
89754,92987
89771,93045
89742,92996
89833,93045
89867,93081
89815,93059
89854,93081
89811,93054
89884,93073
89909,93110
89884,93090
89900,93054
89823,93067
89870,93094
89894,93094
89841,93057
89828,93055
89794,93039
89856,93045
89856,93086
89851,93074
89850,93052
89825,93065
89901,93100
89933,93120
89935,93126
89982,93139
89953,93136
90033,93192
90069,93191
90072,93187
90086,93195
90042,93174
90117,93203
90122,93225
90162,93235
90135,93219
90109,93190
90201,93250
90235,93259
90193,93241
90217,93235
90175,93246
90234,93277
90294,93265
90263,93291
90275,93269
90261,93277
90335,93305
90379,93317
90383,93322
90414,93351
90416,93339
90488,93397
90552,93414
90561,93399
90624,93435
90611,93445
90700,93470
90729,93500
90742,93513
90716,93507
90721,93500
90811,93535
90826,93555
90842,93556
90840,93528
90777,93518
90853,93562
90884,93575
90839,93571
90842,93558
90831,93534
90875,93573
90924,93591
90886,93569
90877,93558
90828,93550
90875,93560
90846,93543
90767,93527
90682,93466
90531,93394
90469,93376
90334,93286
90144,93210
89923,93090
89701,92991
89535,92891
89335,92782
89074,92662
88795,92549
88601,92417
88400,92333
88223,92220
87964,92106
87772,91995
87619,91892
87513,91856
87398,91797
87301,91718
87211,91708
87057,91616
87069,91642
87057,91584
86961,91557
86964,91533
86920,91549
86991,91567
86943,91557
86973,91526
86919,91557
86899,91485
87001,91572
87023,91587
87001,91606
87020,91564
87043,91608
87104,91617
87142,91662
87111,91632
87162,91636
87160,91640
87240,91677
87222,91718
87264,91692
87249,91702
87249,91671
87301,91733
87366,91767
87345,91731
87386,91772
87378,91782
87479,91813
87530,91819
87524,91851
87524,91825
87559,91853
87625,91900
87647,91885
87664,91929
87641,91857
87663,91907
87698,91951
87731,91948
87755,91972
87770,91973
87728,91915
87805,91990
87844,92025
87817,91989
87860,91992
87799,92009
87877,92017
87898,92037
87858,92014
87826,92000
87829,91947
87847,92006
87852,92026
87819,91963
87798,91991
87795,91952
87857,91987
87853,92009
87840,91984
87860,92003
87812,91944
87855,92003
87854,92024
87801,91972
87746,91942
87771,91953
87787,91957
87764,91993
87788,91941
87775,91959
87725,91924
87786,91976
87848,92011
87788,91973
87786,91942
87803,92006
87872,92013
87879,92035
87898,92023
87843,92023
87894,91996
87954,92059
87989,92063
87951,92052
87992,92063
88020,92068
88090,92140
88169,92154
88152,92160
88179,92142
88153,92147
88272,92221
88306,92203
88296,92228
88289,92235
88277,92197
88348,92262
88338,92243
88315,92216
88286,92200
88248,92207
88297,92217
88297,92223
88247,92181
88198,92171
88205,92179
88231,92199
88253,92205
88211,92163
88204,92175
88198,92197
88317,92230
88350,92236
88349,92257
88393,92252
88406,92288
88525,92332
88601,92343
88603,92404
88653,92397
88631,92397
88752,92469
88792,92462
88775,92468
88788,92468
88765,92490
88859,92506
88840,92492
88833,92495
88851,92516
88825,92499
88848,92513
88887,92520
88829,92487
88798,92464
88780,92454
88822,92507
88837,92492
88763,92467
88753,92462
88725,92448
88759,92468
88754,92445
88679,92427
88690,92426
88701,92430
88761,92459
88765,92463
88771,92459
88780,92503
88814,92471
88856,92515
88903,92532
88957,92551
88974,92557
88997,92587
89099,92626
89144,92684
89187,92671
89157,92652
89186,92651
89273,92700
89286,92734
89252,92687
89217,92673
89213,92679
89279,92697
89255,92714
89215,92691
89201,92665
89170,92681
89230,92705
89244,92702
89220,92682
89144,92652
89170,92666
89200,92666
89192,92681
89192,92679
89159,92666
89121,92651
89205,92681
89217,92671
89207,92675
89204,92671
89187,92669
89264,92735
89293,92704
89295,92719
89266,92696
89253,92707
89344,92730
89331,92743
89320,92738
89286,92719
89303,92695
89388,92770
89394,92780
89391,92778
89396,92782
89438,92811
89507,92827
89528,92856
89586,92846
89578,92877
89631,92877
89719,92920
89690,92949
89714,92933
89676,92907
89699,92942
89757,92942
89734,92955
89684,92921
89689,92908
89643,92908
89717,92955
89765,92972
89714,92955
89718,92899
89759,92936
89767,92966
89822,92998
89850,92966
89882,93016
89881,93012
89946,93078
90017,93098
89964,93070
89992,93040
90014,93091
90093,93121
90111,93132
90057,93140
90027,93074
90047,93109
90074,93092
90066,93102
89957,93071
89904,93011
89825,92952
89741,92945
89620,92906
89444,92798
89239,92645
89045,92593
88908,92520
88687,92391
88432,92294
88185,92126
87958,92013
87768,91935
87567,91869
87351,91723
87149,91582
86967,91497
86862,91432
86686,91330
86583,91300
86438,91234
86323,91187
86291,91154
86246,91097
86193,91048
86104,91036
86087,91056
86133,91066
86164,91051
86207,91083
86194,91099
86286,91126
86381,91185
86483,91206
86535,91265
86554,91231
86656,91334
86791,91366
86843,91458
86855,91422
86883,91452
86960,91462
87016,91531
87034,91544
87062,91548
86989,91495
87030,91553
87086,91570
87140,91607
87151,91588
87077,91545
87090,91554
87141,91553
87169,91593
87111,91573
87097,91560
87081,91556
87092,91552
87093,91586
87057,91545
87014,91541
87024,91519
87018,91556
87071,91565
87069,91559
87074,91541
87086,91554
87153,91602
87230,91636
87227,91630
87220,91628
87272,91668
87357,91688
87409,91732
87409,91713
87366,91710
87410,91738
87477,91762
87492,91772
87470,91765
87439,91744
87477,91763
87514,91770
87478,91763
87441,91751
87381,91709
87370,91706
87371,91712
87312,91700
87260,91678
87223,91627
87166,91596
87178,91605
87144,91584
87114,91574
87039,91526
87031,91530
87063,91538
87052,91552
87016,91526
87004,91507
87041,91528
87104,91569
87102,91554
87060,91539
87092,91568
87113,91559
87145,91574
87177,91607
87163,91589
87171,91601
87210,91615
87232,91640
87290,91661
87307,91640
87253,91605
87296,91664
87359,91675
87378,91717
87372,91687
87347,91677
87395,91715
87459,91719
87494,91763
87505,91771
87477,91756
87563,91798
87601,91820
87618,91835
87676,91856
87673,91847
87740,91883
87781,91903
87820,91920
87824,91933
87857,91947
87885,91948
87927,91996
88001,91979
87990,92027
87977,91979
87953,92037
88012,92015
88048,92029
87986,92006
87976,92009
87936,92017
87989,91997
87968,91976
87895,91988
87852,91953
87841,91948
87837,91968
87865,91933
87798,91902
87759,91917
87728,91895
87774,91908
87752,91895
87757,91890
87717,91851
87780,91906
87775,91909
87786,91950
87778,91908
87801,91921
87818,91928
87912,91948
87904,91945
87933,91955
87899,91924
87911,91969
87947,92010
87988,91990
87932,92028
87900,91954
87939,91964
87990,92046
87982,92003
87961,91992
87897,91958
87925,91949
87975,92010
87985,92005
87968,92000
87946,92001
87945,91993
88026,92035
88016,92041
88012,92014
88032,92027
88038,92053
88101,92040
88106,92063
88089,92049
88120,92057
88133,92086
88187,92113
88220,92116
88223,92103
88214,92141
88248,92163
88338,92174
88372,92213
88382,92228
88416,92189
88446,92201
88480,92265
88546,92271
88538,92282
88518,92232
88577,92283
88616,92303
88636,92339
88581,92313
88590,92314
88578,92303
88611,92301
88596,92293
88603,92333
88581,92270
88570,92314
88652,92338
88630,92341
88665,92338
88647,92336
88675,92377
88770,92385
88780,92406
88761,92405
88769,92396
88776,92423
88854,92415
88816,92426
88831,92425
88780,92420
88795,92409
88791,92466
88791,92414
88776,92426
88709,92362
88729,92401
88740,92438
88737,92410
88736,92400
88712,92351
88744,92408
88794,92427
88825,92416
88818,92414
88764,92405
88845,92452
88889,92472
88877,92458
88816,92468
88805,92396
88777,92412
88757,92382
88684,92327
88580,92302
88410,92178
88315,92159
88156,92073
87944,91972
87668,91841
87483,91729
87270,91627
87085,91525
86911,91445
86615,91292
86417,91196
86254,91106
86119,91017
85977,90929
85821,90858
85661,90766
85624,90724
85526,90696
85415,90635
85359,90598
85253,90573
85234,90518
85299,90595
85265,90511
85291,90528
85230,90542
85287,90530
85374,90620
85388,90605
85407,90618
85376,90629
85473,90614
85568,90717
85574,90713
85612,90749
85613,90726
85687,90775
85747,90797
85788,90826
85795,90862
85776,90819
85892,90874
85924,90931
85958,90922
85946,90900
85988,90927
85990,90960
86044,90950
86045,90975
85980,90964
85949,90897
86025,90938
86026,90947
86070,90986
86064,90975
86004,90949
86103,90960
86138,91044
86163,91008
86186,91028
86180,91012
86252,91061
86317,91109
86317,91104
86387,91138
86344,91129
86370,91121
86490,91200
86442,91180
86459,91175
86394,91185
86481,91180
86499,91183
86522,91206
86515,91214
86486,91218
86523,91200
86555,91252
86558,91245
86517,91195
86517,91213
86526,91235
86532,91212
86517,91195
86484,91198
86407,91170
86455,91220
86485,91198
86416,91159
86399,91164
86339,91121
86416,91156
86383,91162
86391,91158
86382,91122
86369,91136
86383,91144
86476,91201
86469,91184
86492,91176
86515,91197
86566,91256
86666,91302
86691,91285
86694,91310
86700,91262
86796,91360
86814,91386
86847,91380
86894,91381
86868,91424
86939,91408
86961,91454
86974,91460
86994,91448
86934,91448
86966,91432
87036,91512
87025,91487
87018,91480
87029,91441
87086,91533
87108,91502
87160,91545
87160,91516
87174,91555
87282,91574
87298,91620
87316,91626
87344,91619
87332,91638
87388,91653
87427,91703
87428,91691
87405,91695
87380,91660
87465,91731
87535,91719
87530,91730
87532,91743
87540,91733
87575,91755
87623,91802
87651,91787
87666,91804
87698,91798
87725,91841
87778,91875
87746,91831
87769,91859
87722,91821
87783,91890
87786,91882
87774,91877
87766,91849
87737,91841
87739,91876
87743,91855
87716,91852
87667,91810
87647,91796
87640,91814
87641,91820
87595,91762
87537,91757
87496,91720
87504,91740
87513,91761
87463,91710
87413,91701
87399,91668
87485,91728
87498,91706
87450,91707
87452,91724
87400,91686
87482,91713
87505,91727
87489,91726
87488,91727
87442,91688
87509,91767
87562,91750
87522,91745
87531,91738
87542,91749
87595,91770
87628,91768
87618,91793
87592,91763
87541,91758
87575,91770
87560,91786
87575,91786
87538,91719
87510,91714
87522,91796
87564,91788
87554,91742
87538,91769
87474,91710
87572,91772
87592,91766
87568,91781
87550,91728
87565,91729
87590,91825
87634,91811
87660,91768
87636,91811
87581,91756
87653,91850
87685,91828
87666,91817
87645,91824
87624,91771
87660,91832
87687,91859
87677,91808
87711,91831
87697,91849
87751,91860
87833,91888
87793,91877
87820,91891
87824,91877
87846,91933
87901,91939
87876,91911
87869,91911
87807,91863
87853,91946
87870,91936
87806,91924
87726,91842
87670,91785
87624,91829
87562,91783
87396,91694
87325,91602
87130,91503
86951,91436
86831,91365
86690,91279
86463,91196
86271,91050
86203,91004
86040,90921
85818,90851
85691,90725
85514,90661
85418,90651
85310,90551
85254,90525
85126,90425
85008,90349
85026,90407
84988,90369
84909,90302
84870,90319
84772,90262
84838,90276
84839,90275
84764,90236
84786,90240
84738,90222
84787,90299
84830,90311
84868,90305
84868,90318
84838,90287
84991,90382
85030,90388
85011,90399
85085,90391
85074,90407
85247,90516
85280,90522
85319,90538
85301,90534
85339,90539
85383,90611
85413,90615
85477,90617
85424,90624
85432,90605
85513,90643
85519,90678
85529,90651
85527,90658
85537,90675
85589,90657
85611,90703
85562,90699
85587,90672
85597,90682
85629,90715
85672,90714
85685,90733
85697,90723
85718,90721
85774,90802
85849,90831
85874,90817
85885,90819
85880,90868
85969,90851
85982,90911
85924,90892
85885,90830
85836,90824
85858,90848
85815,90826
85803,90801
85736,90759
85663,90703
85707,90765
85681,90754
85630,90678
85610,90705
85537,90703
85592,90681
85595,90681
85590,90675
85578,90697
85525,90659
85642,90707
85665,90737
85637,90721
85602,90706
85634,90678
85638,90762
85690,90743
85665,90715
85637,90716
85632,90721
85698,90713
85699,90771
85706,90757
85694,90726
85695,90725
85774,90820
85770,90808
85843,90784
85838,90799
85836,90836
85927,90852
85909,90913
85893,90815
85889,90847
85911,90851
85942,90860
85983,90909
85948,90905
85930,90862
85901,90849
85924,90888
85900,90870
85853,90822
85821,90811
85739,90764
85751,90796
85777,90797
85674,90748
85668,90726
85576,90688
85635,90720
85601,90712
85562,90630
85562,90668
85444,90660
85513,90653
85481,90659
85441,90631
85443,90593
85427,90620
85434,90609
85456,90649
85416,90646
85416,90591
85444,90607
85458,90612
85513,90678
85505,90638
85481,90650
85441,90591
85540,90700
85543,90692
85562,90667
85597,90677
85565,90698
85645,90711
85664,90725
85646,90707
85690,90727
85649,90760
85735,90792
85737,90771
85749,90777
85769,90764
85771,90789
85820,90815
85805,90826
85791,90805
85698,90781
85700,90740
85753,90787
85693,90752
85648,90752
85608,90686
85591,90718
85644,90712
85592,90703
85598,90701
85589,90681
85526,90657
85617,90730
85633,90706
85604,90723
85586,90694
85643,90719
85689,90736
85755,90786
85743,90748
85756,90787
85830,90764
85889,90831
85944,90879
85973,90881
85942,90893
85929,90865
85956,90906
85987,90896
85990,90902
85922,90886
85909,90848
85934,90894
85905,90874
85902,90868
85838,90829
85845,90800
85844,90831
85886,90834
85848,90859
85824,90851
85825,90835
85867,90814
85910,90839
85878,90860
85869,90836
85905,90847
85952,90896
85970,90860
86010,90915
85969,90888
85986,90878
86099,90941
86074,90964
86104,90932
86084,90947
86105,90938
86177,90996
86173,91003
86190,90975
86200,90974
86184,91033
86281,91061
86290,91059
86281,91060
86256,91034
86297,91046
86330,91074
86339,91087
86320,91041
86296,91040
86178,91002
86153,90992
86103,90936
85970,90848
85800,90790
85617,90656
85481,90583
85306,90515
85116,90410
84930,90308
84702,90169
84555,90107
84421,90026
84210,89905
84070,89798
83863,89712
83800,89652
83690,89628
83589,89511
83460,89468
83365,89435
83371,89452
83314,89403
83302,89361
83260,89355
83297,89373
83340,89435
83348,89397
83389,89437
83413,89430
83439,89455
83537,89531
83591,89525
83586,89544
83646,89578
83672,89606
83776,89642
83789,89654
83831,89651
83786,89669
83871,89680
83929,89730
83982,89774
83949,89745
83965,89743
84000,89782
84078,89790
84079,89830
84091,89815
84131,89801
84135,89874
84234,89898
84282,89928
84308,89923
84289,89927
84312,89925
84372,89962
84406,89983
84441,89985
84446,90003
