11111,11111
0,0
82205,82329
111632,112571
111553,112518
111642,112557
111703,112595
111736,112615
111716,112601
111653,112549
111750,112584
111792,112599
111846,112639
111794,112623
111762,112563
111828,112591
111848,112633
111903,112646
111839,112628
111766,112539
111822,112584
111845,112622
111809,112624
111786,112563
111657,112540
111696,112559
111737,112585
111689,112561
111646,112564
111564,112490
111627,112533
111655,112569
111648,112544
111609,112509
111496,112472
111586,112496
111620,112602
111608,112510
111600,112511
111485,112456
111604,112499
111588,112549
111603,112512
111574,112519
111499,112441
111611,112532
111630,112540
111611,112543
111592,112535
111540,112461
111638,112556
111696,112568
111659,112582
111669,112535
111677,112511
111748,112611
111784,112614
111781,112602
111752,112591
111749,112546
111858,112645
111897,112621
111896,112630
111911,112624
111835,112566
111965,112645
111979,112671
112029,112675
111973,112650
111917,112655
112033,112668
112064,112734
112081,112687
112078,112702
111993,112652
112092,112704
112135,112729
112146,112743
112117,112686
112085,112652
112135,112712
112209,112769
112159,112763
112152,112674
112115,112719
112146,112731
112215,112743
112209,112751
112169,112703
112132,112726
112175,112760
112300,112776
112246,112789
112218,112714
112159,112720
112231,112748
112305,112800
112266,112777
112210,112753
112242,112730
112283,112800
112348,112803
112276,112798
112234,112707
112250,112740
112261,112757
112366,112818
112308,112799
112244,112714
112245,112741
112268,112774
112352,112803
112300,112772
112263,112781
112204,112724
112315,112753
112326,112818
112296,112774
112243,112776
112256,112713
112360,112808
112345,112774
112334,112787
112268,112758
112252,112760
112330,112781
112446,112802
112061,112629
112045,112617
111329,112294
111402,112350
111484,112391
111795,112516
111714,112458
111778,112503
111821,112519
111892,112577
111895,112558
111834,112539
111781,112505
111785,112492
111882,112520
111830,112537
111793,112523
111752,112450
111772,112518
111788,112491
111800,112530
111790,112483
111684,112432
111709,112450
111806,112498
111796,112469
111763,112486
111650,112425
111714,112497
111762,112479
111805,112511
111754,112513
111690,112420
111768,112477
111827,112518
111839,112549
111813,112480
111791,112498
111858,112511
111937,112549
111938,112573
111949,112572
111924,112510
112009,112560
112061,112626
112074,112588
112070,112607
112024,112569
112114,112618
112201,112645
112162,112644
112173,112640
112120,112582
112206,112660
112220,112667
112208,112689
112192,112645
112150,112632
112213,112644
112320,112715
112278,112642
112271,112684
112213,112628
112273,112695
112330,112716
112303,112692
112275,112669
112162,112630
112284,112673
112313,112753
112302,112678
112235,112677
112171,112629
112259,112685
112305,112712
112234,112666
112237,112641
112162,112650
112238,112671
112249,112729
112236,112670
112249,112654
112136,112618
112207,112671
112268,112744
112262,112680
112239,112651
112150,112641
112263,112696
112303,112749
112277,112684
112273,112668
112177,112632
112284,112646
112330,112723
112330,112703
112275,112680
112228,112670
112277,112694
112320,112717
112311,112711
112277,112666
112216,112661
112296,112686
112350,112709
112342,112701
112294,112673
112219,112632
112337,112698
112399,112733
112350,112732
112306,112661
112297,112658
112352,112724
112408,112761
112404,112720
112386,112713
112327,112674
112435,112741
112469,112794
112435,112742
112392,112725
112374,112713
112443,112740
112534,112766
112481,112754
112451,112726
112440,112709
112497,112765
112573,112820
112550,112808
112495,112736
112457,112724
112526,112801
112603,112830
112544,112803
112505,112750
112458,112762
112555,112797
112590,112850
112550,112786
112527,112774
112479,112763
112543,112798
112624,112844
112551,112778
112512,112777
112532,112767
112589,112808
112616,112815
112585,112815
112501,112751
112469,112743
112502,112746
112458,112746
112339,112660
112155,112597
112045,112514
111946,112522
111916,112484
111747,112424
111528,112304
111375,112275
111275,112233
111178,112174
111026,112091
110850,112026
110823,111992
110804,111990
110792,112017
110687,111941
110656,111888
110657,111910
110718,111961
110768,112003
110714,111972
110752,111968
110757,111974
110890,112054
110985,112114
110999,112094
111024,112088
111056,112102
111224,112184
111297,112251
111256,112212
111312,112190
111341,112231
111456,112329
111557,112334
111516,112340
111479,112272
111480,112327
111590,112362
111642,112373
111599,112352
111542,112322
111521,112313
111630,112372
111639,112407
111627,112364
111529,112312
111573,112329
111642,112381
111652,112402
111622,112359
111572,112356
111619,112339
111706,112424
111724,112426
111713,112419
111618,112384
111678,112422
111785,112441
111780,112455
111815,112438
111718,112393
111736,112410
111793,112452
111829,112489
111806,112418
111720,112398
111761,112426
111789,112439
111819,112442
111732,112395
111665,112347
111663,112361
111715,112391
111732,112420
111642,112359
111595,112350
111599,112359
111606,112395
111644,112391
111589,112366
111571,112275
111558,112380
111619,112376
111673,112388
111647,112382
111582,112279
111640,112392
111708,112387
111740,112417
111749,112403
111687,112332
111725,112381
111783,112433
111833,112473
111828,112446
111716,112356
111785,112436
111890,112498
111892,112454
111892,112448
111816,112424
111910,112469
111960,112522
111998,112517
111963,112525
111879,112431
111930,112483
112036,112523
112006,112513
111999,112495
111986,112496
112010,112507
112121,112562
112072,112575
112067,112542
111957,112527
112032,112550
112093,112597
112067,112579
112085,112560
111971,112507
112044,112547
112137,112612
112107,112578
112102,112574
112027,112535
112115,112594
112147,112650
112164,112586
112186,112630
112079,112557
112168,112599
112205,112609
112277,112667
112195,112633
112158,112591
112223,112628
112246,112644
112265,112675
112212,112630
112179,112577
112207,112625
112248,112643
112206,112650
112199,112630
112075,112535
112182,112596
112178,112642
112163,112634
112117,112571
112065,112546
112122,112606
112146,112615
112150,112602
112134,112582
112045,112547
112073,112592
112156,112598
112121,112617
112109,112546
112070,112554
112146,112617
112185,112633
112190,112632
112123,112617
112118,112548
112171,112626
112224,112623
112227,112629
112161,112601
112135,112548
112209,112652
112281,112669
112239,112638
112225,112639
112155,112549
112250,112637
112307,112674
112284,112640
112216,112614
112199,112608
112243,112606
112338,112693
112299,112626
112282,112622
112206,112621
112264,112656
112390,112694
112334,112684
112332,112638
112307,112653
112348,112673
112457,112701
112409,112726
112369,112669
112392,112649
112426,112710
112500,112713
112508,112735
112419,112729
112403,112657
112476,112736
112529,112765
112483,112738
112398,112695
112352,112647
112390,112704
112343,112661
112233,112629
112097,112551
111949,112467
111945,112466
111845,112475
111691,112333
111473,112257
111258,112163
111199,112138
111091,112108
110993,112031
110814,111963
110707,111883
110681,111893
110654,111899
110608,111891
110468,111814
110447,111786
110496,111827
110499,111865
110471,111840
110471,111769
110423,111815
110499,111855
110569,111893
110592,111894
110588,111869
110567,111864
110671,111934
110778,111962
110751,111982
110727,111941
110701,111936
110823,112004
110887,112036
110860,112042
110859,112008
110864,112006
110942,112068
111021,112120
111001,112075
110940,112053
110969,112073
111031,112112
111092,112126
111077,112128
111021,112086
111026,112074
111088,112153
111115,112172
111082,112139
111071,112079
111072,112114
111197,112196
111224,112198
111196,112192
111200,112128
111176,112208
111290,112220
111380,112273
111417,112245
111348,112231
111391,112244
111472,112308
111510,112335
111509,112277
111479,112299
111468,112243
111552,112329
111591,112331
111565,112333
111488,112288
111509,112312
111547,112315
111582,112332
111578,112313
111461,112300
111467,112264
111529,112304
111613,112339
111515,112338
111462,112256
111499,112313
111552,112341
111590,112336
111578,112318
111497,112308
111541,112283
111596,112352
111632,112332
111620,112329
111536,112284
111590,112333
111647,112378
111695,112380
111662,112364
111639,112309
111650,112369
111748,112396
111798,112410
111785,112407
111704,112378
111741,112395
111837,112422
111907,112456
111875,112420
111825,112426
111832,112418
111949,112491
111927,112486
111944,112482
111823,112449
111905,112435
111997,112505
111982,112488
111946,112492
111923,112437
111933,112511
111967,112518
112045,112549
112010,112534
111917,112426
111979,112493
112001,112560
112022,112511
111998,112515
111922,112467
111947,112461
112056,112515
112032,112538
112006,112523
111972,112492
112025,112526
112062,112550
112094,112543
112063,112525
112026,112506
112048,112546
112119,112569
112124,112591
112108,112571
112044,112493
112097,112555
112158,112601
112147,112569
112121,112535
112071,112504
112095,112517
112197,112579
112199,112587
112149,112571
112087,112509
112107,112575
112156,112597
112199,112570
112128,112558
112094,112520
112138,112550
112172,112591
112137,112576
112138,112542
112100,112531
112140,112557
112189,112607
112240,112639
112161,112585
112110,112518
112182,112563
112287,112621
112250,112601
112238,112580
112190,112574
112242,112589
112299,112629
112324,112635
112271,112621
112230,112545
112272,112612
112312,112645
112324,112661
112280,112644
112258,112564
112298,112617
112361,112690
112370,112656
112350,112626
112273,112593
112341,112656
112380,112678
112424,112678
112396,112642
112312,112594
112403,112648
112505,112703
112496,112698
112481,112656
112425,112633
112506,112669
112566,112724
112561,112708
112548,112702
112475,112652
112594,112704
112629,112755
112618,112712
112574,112706
112546,112664
112570,112734
112682,112752
112657,112738
112603,112708
112596,112671
112626,112741
112728,112778
112666,112730
112634,112731
112638,112718
112697,112729
112750,112770
112710,112761
112662,112724
112596,112682
112658,112726
112686,112732
112596,112744
112480,112670
112345,112591
112330,112588
112265,112551
112108,112523
112001,112416
111830,112409
111829,112355
111767,112358
111566,112250
111435,112171
111255,112104
111212,112066
111213,112115
111092,112070
111005,111982
110926,111963
110913,111977
110965,111995
110926,111982
110884,111952
110881,111937
110944,111984
111045,112029
111045,112055
111076,112018
111069,112060
111199,112104
111323,112184
111358,112202
111348,112160
111425,112216
111545,112250
111575,112311
111617,112299
111605,112269
111576,112283
111658,112312
111710,112366
111735,112344
111656,112305
111649,112318
111667,112350
111762,112369
111710,112326
111678,112326
111655,112317
111688,112371
111772,112364
111736,112362
111679,112324
111652,112319
111733,112343
111808,112408
111747,112344
111749,112341
111745,112365
111830,112413
111865,112431
111854,112413
111835,112373
111814,112385
111906,112420
111931,112445
111904,112403
111874,112395
111820,112369
111921,112426
111981,112457
111894,112416
111858,112405
111817,112358
111909,112413
111898,112453
111841,112392
111724,112357
111720,112314
111808,112373
111794,112392
111742,112358
111706,112320
111646,112343
111759,112370
111749,112403
111722,112347
111694,112324
111683,112311
111763,112391
111790,112417
111758,112352
111732,112319
111719,112326
111780,112386
111830,112410
111830,112361
111778,112352
111759,112367
111871,112420
111905,112432
111880,112408
111845,112354
111825,112406
111903,112430
111983,112472
111946,112433
111890,112385
111908,112385
111978,112473
112053,112470
111992,112463
111980,112429
111974,112434
112098,112518
112069,112513
112057,112468
111975,112441
112015,112481
112067,112517
112093,112513
112101,112520
111986,112495
111986,112467
112115,112521
112124,112527
112100,112528
112005,112444
112059,112515
112111,112522
112121,112535
112105,112530
112044,112476
112085,112473
112151,112575
112161,112543
112133,112534
112058,112477
112119,112532
112164,112563
112220,112565
112157,112534
112108,112517
112115,112505
112202,112534
112229,112596
112180,112578
112092,112477
112086,112523
112194,112561
112174,112585
112189,112521
112110,112516
112136,112518
112143,112562
112190,112564
112160,112513
112111,112517
112127,112500
112162,112533
112239,112558
112152,112539
112125,112512
112116,112526
112191,112535
112199,112546
112186,112549
112128,112477
112167,112541
112222,112560
112235,112548
112225,112549
112167,112502
112213,112551
112285,112596
112275,112536
112253,112567
112183,112513
112243,112545
112298,112599
112290,112572
112272,112546
112233,112529
112277,112556
112354,112621
112354,112594
112354,112568
112248,112532
112357,112567
112428,112625
112413,112615
112413,112607
112316,112548
112415,112597
112495,112681
112476,112636
112482,112621
112415,112584
112458,112634
112567,112653
112537,112674
112550,112652
112468,112614
112528,112644
112608,112682
112588,112686
112579,112634
112524,112622
112608,112665
112632,112706
112637,112683
112646,112647
112536,112632
112619,112653
112699,112750
112709,112698
112664,112723
112578,112599
112666,112696
112661,112687
112650,112682
112572,112660
112484,112572
112457,112629
112413,112556
112363,112571
112234,112477
112045,112395
112014,112370
112004,112374
111879,112325
111778,112266
111639,112199
111576,112172
111557,112194
111472,112121
111337,112095
111199,112037
111221,112043
111285,112080
111212,112052
111182,112028
111167,112005
111258,112051
111336,112109
111371,112122
111431,112132
111381,112130
111517,112188
111636,112233
111669,112258
111651,112213
111675,112234
111745,112264
111866,112321
111837,112354
111801,112298
111829,112276
111906,112348
111977,112375
111939,112392
111947,112357
111862,112347
111971,112375
112006,112391
111940,112381
111943,112369
111893,112350
111939,112368
112005,112413
111979,112382
111950,112370
111898,112340
111961,112399
112028,112444
111992,112391
111938,112373
111944,112366
112009,112395
112080,112425
112038,112431
112029,112418
111976,112369
112092,112439
112110,112467
112076,112441
112039,112417
112023,112368
112075,112441
112083,112488
112049,112426
112013,112407
111941,112399
111987,112394
112095,112432
111977,112402
111949,112374
111901,112335
111999,112394
111985,112431
111977,112388
111898,112357
111864,112343
111917,112395
111946,112424
111953,112383
111858,112339
111811,112320
111923,112364
111939,112423
111921,112369
111855,112345
111865,112351
111913,112391
111991,112439
111976,112423
111912,112370
111948,112383
111947,112426
112038,112434
112038,112435
111971,112383
111976,112420
112041,112415
112115,112497
112080,112423
112076,112431
112037,112392
112123,112464
112150,112513
112152,112469
112076,112439
112088,112455
112148,112500
112209,112491
112158,112491
112143,112461
112113,112475
112188,112492
112242,112554
112203,112475
112153,112458
112142,112452
112242,112496
112265,112539
112244,112488
112184,112466
112142,112473
112243,112498
112316,112562
112283,112493
112225,112457
112224,112524
112289,112526
112339,112581
112309,112512
112249,112505
112251,112520
112297,112560
112376,112573
112343,112539
112267,112505
112283,112518
112339,112571
112401,112561
112367,112537
112331,112510
112353,112530
112411,112603
112418,112610
112447,112587
112355,112535
112393,112598
112462,112594
112496,112625
112489,112606
112420,112583
112426,112587
112547,112638
112526,112670
112535,112641
112490,112584
112504,112636
112559,112657
112629,112680
112605,112632
112523,112601
112573,112618
112656,112660
112690,112707
112632,112639
112570,112620
112602,112650
112669,112670
112680,112703
112634,112667
112600,112598
112614,112675
112666,112678
112720,112676
112654,112689
112582,112612
112662,112685
112671,112707
112729,112702
112704,112698
112614,112627
112677,112674
112696,112701
112750,112719
112719,112669
112684,112646
112680,112665
112751,112737
112771,112693
112758,112701
112685,112617
112717,112711
112753,112710
112788,112660
112777,112694
112662,112639
112729,112664
112786,112735
112782,112699
112729,112679
112658,112601
112705,112669
112763,112699
112782,112685
112736,112666
112703,112635
112708,112639
112768,112687
112768,112696
112716,112678
112661,112607
112728,112675
112773,112705
112827,112706
112780,112705
112693,112612
112762,112687
112817,112716
112831,112744
112805,112693
112744,112657
112791,112681
112874,112739
112875,112729
112860,112731
112730,112661
112803,112712
112904,112745
112870,112735
112843,112714
112712,112624
112770,112665
112777,112670
112687,112625
112580,112564
112369,112473
112304,112461
112219,112416
112112,112384
111957,112301
111792,112185
111691,112196
111593,112160
111516,112086
111382,112025
111214,111957
111224,112004
111215,111989
111213,111968
111156,111962
111073,111881
111151,111937
111203,112008
111247,112001
111224,111981
111210,111942
111318,112019
111401,112071
111407,112076
111490,112080
111424,112088
111549,112108
111663,112203
111652,112141
111665,112167
111655,112161
111714,112220
111827,112237
111805,112252
111780,112220
111806,112216
111874,112240
111974,112299
111928,112296
111932,112260
111909,112245
111957,112292
112045,112323
112017,112339
112000,112272
111952,112295
112003,112310
112042,112337
112034,112331
112016,112325
111979,112300
112044,112323
112058,112371
112059,112348
112055,112331
111939,112315
112062,112331
112127,112386
112091,112345
112090,112337
112018,112317
112085,112355
112158,112371
112145,112355
112086,112345
112050,112338
112096,112380
112100,112394
112143,112366
112072,112353
111996,112302
112066,112367
112057,112373
112048,112368
111984,112319
111932,112288
111975,112335
112076,112346
111997,112349
111940,112285
111939,112292
111996,112339
112010,112356
112011,112299
111964,112290
111892,112296
112020,112323
112023,112372
112040,112338
111942,112301
111953,112300
112005,112341
112089,112365
112091,112348
112029,112314
111995,112328
112106,112392
112134,112402
112116,112364
112088,112349
112044,112343
112172,112397
112210,112437
112175,112372
112178,112380
112158,112352
112227,112407
112287,112455
112251,112397
112235,112394
112214,112411
112323,112432
112386,112469
112316,112410
112337,112416
112294,112437
112393,112473
112395,112495
112401,112457
112355,112430
112339,112413
112437,112485
112445,112520
112452,112478
112360,112432
112400,112454
112468,112517
112494,112518
112457,112468
112406,112412
112424,112473
112503,112515
112513,112524
112500,112481
112440,112435
112474,112443
112549,112489
112516,112500
112521,112478
112505,112484
112464,112451
112559,112500
112586,112504
112542,112516
112484,112421
112493,112479
112556,112484
112576,112501
112570,112504
112452,112462
112537,112478
112539,112503
112600,112495
112578,112491
112491,112453
112514,112484
112585,112497
112620,112487
112588,112496
112536,112460
112516,112489
112629,112507
112634,112542
112602,112490
112562,112469
112603,112492
112680,112543
112650,112538
112635,112484
112606,112480
112609,112511
112653,112539
112696,112531
112705,112512
112575,112474
112584,112495
112675,112550
112692,112527
112640,112520
112590,112456
112635,112505
112696,112532
112710,112537
112706,112525
112621,112481
112649,112479
112738,112587
112710,112508
112700,112526
112634,112493
112678,112509
112739,112551
112729,112560
112739,112529
112661,112494
112643,112532
112732,112558
112791,112542
112740,112540
112653,112478
112700,112544
112752,112577
112757,112554
112728,112516
112687,112494
112686,112537
112776,112562
112759,112569
112739,112541
112688,112487
112724,112549
112813,112554
112803,112589
112758,112547
112713,112508
112747,112547
112844,112562
112850,112600
112821,112568
112727,112531
112802,112516
112907,112602
112846,112606
112792,112562
112774,112557
112846,112574
112897,112628
112856,112561
112892,112597
112765,112572
112869,112580
112934,112622
112875,112622
112876,112597
112831,112548
112839,112599
112895,112601
112872,112631
112877,112602
112782,112536
112805,112568
112830,112617
112785,112548
112666,112502
112533,112452
112489,112413
112374,112388
112255,112330
112124,112270
111963,112175
111935,112206
111900,112195
111771,112133
111695,112071
111568,112014
111556,112015
111567,112041
111557,112018
111541,112028
111472,111978
111578,112048
111610,112068
111669,112101
111662,112093
111625,112057
111741,112102
111857,112188
111857,112158
111887,112164
111853,112153
111946,112214
112087,112265
112078,112285
112076,112282
112060,112235
112157,112291
112201,112354
112246,112372
112207,112323
112202,112286
112247,112358
112344,112409
112325,112407
112279,112376
112258,112330
112312,112401
112399,112430
112358,112396
112326,112367
112294,112372
112347,112384
112398,112417
112387,112430
112322,112380
112305,112321
112342,112417
112418,112456
112389,112413
112341,112385
112322,112379
112362,112409
112447,112431
112403,112428
112422,112390
112349,112408
112445,112398
112441,112459
112438,112430
112408,112425
112344,112363
112405,112444
112460,112454
112399,112377
112369,112376
112298,112374
112352,112398
112363,112420
112316,112371
112284,112358
112209,112305
112267,112324
112320,112367
112243,112333
112218,112294
112173,112287
112219,112338
112270,112332
112197,112313
112181,112300
112163,112222
112258,112333
112228,112343
112266,112299
112236,112294
112189,112299
112255,112334
112322,112346
112286,112347
112285,112337
112223,112308
112340,112377
112377,112365
112403,112363
112326,112359
112324,112309
112418,112353
112462,112407
112446,112378
112393,112323
112369,112365
112460,112403
112470,112406
112486,112366
112478,112365
112378,112344
112520,112399
112554,112415
112500,112408
112466,112350
112433,112378
112512,112370
112572,112425
112534,112385
112462,112345
112447,112374
112512,112404
112574,112424
112498,112407
112488,112371
112495,112356
112565,112457
112568,112402
112592,112443
112484,112359
112490,112359
112558,112433
112623,112454
112585,112437
112557,112376
112506,112348
112599,112432
112629,112460
112575,112430
112544,112357
112544,112389
112574,112426
112619,112460
112581,112388
112533,112397
112522,112354
112606,112442
112587,112432
112587,112413
112481,112366
112501,112385
112591,112417
112620,112460
112556,112411
112497,112361
112542,112396
112614,112442
112582,112401
112593,112431
112488,112366
112529,112392
112635,112433
112624,112452
112590,112419
112561,112398
112549,112393
112644,112468
112634,112436
112655,112432
112581,112431
112587,112387
112680,112460
112686,112464
112663,112462
112552,112409
112617,112417
112649,112458
112678,112431
112612,112407
112591,112372
112597,112426
112639,112454
112618,112473
112647,112428
112601,112402
112568,112410
112622,112480
112679,112444
112608,112441
112553,112382
112592,112412
112686,112464
112688,112464
112653,112443
112565,112371
112621,112445
112696,112497
112690,112424
112698,112474
112590,112425
112639,112426
112703,112490
112680,112477
112698,112445
112651,112405
112690,112451
112740,112479
112726,112473
112691,112459
112649,112420
112696,112433
112712,112482
112773,112466
112694,112471
112648,112438
112677,112449
112786,112496
112728,112506
112718,112453
112675,112450
112694,112439
112796,112497
112764,112518
112714,112467
112658,112416
112653,112439
112704,112503
112662,112445
112589,112407
112412,112302
112343,112297
112287,112278
112197,112233
112032,112201
111818,112045
111815,112072
111722,112040
111609,111979
111491,111932
111314,111809
111272,111829
111329,111823
111242,111816
111207,111774
111085,111721
111109,111774
111195,111770
111244,111837
111188,111771
111161,111769
111252,111786
111346,111880
111387,111899
111374,111873
111357,111885
111481,111913
111574,112009
111603,112011
111581,111992
111592,111937
111703,112028
111775,112067
111798,112083
111800,112044
111786,112046
111831,112073
111912,112130
111940,112125
111890,112082
111852,112089
111948,112104
111991,112189
111955,112122
111931,112129
111873,112105
111919,112129
112011,112168
111950,112187
111905,112108
111897,112101
111947,112108
112001,112161
111973,112162
111972,112148
111935,112107
111949,112143
112059,112200
112038,112203
111964,112149
111963,112088
112012,112176
112083,112207
112064,112192
112045,112165
111995,112168
112082,112163
112095,112208
112057,112149
112029,112138
111954,112121
111994,112180
112053,112161
112023,112181
111969,112105
111908,112092
111972,112152
111998,112169
111975,112136
111886,112124
111838,112082
111883,112085
111922,112135
111863,112139
111850,112072
111813,112071
111898,112126
111925,112139
111873,112127
111882,112082
111844,112107
111898,112103
112002,112185
111991,112146
111965,112116
111926,112138
112004,112143
112095,112195
112066,112183
112026,112143
112032,112159
112087,112181
112130,112239
112129,112195
112107,112155
112042,112166
112143,112204
112173,112251
112138,112202
112086,112166
112089,112175
112136,112194
112182,112237
112170,112256
112142,112176
112149,112202
112219,112237
112272,112238
112244,112223
112198,112218
112177,112187
112282,112253
112303,112276
112274,112266
112244,112253
112192,112225
112290,112289
112309,112285
112336,112282
112268,112245
112245,112230
112321,112280
112418,112325
112331,112275
112294,112241
112284,112237
112346,112303
112389,112305
112382,112321
112296,112277
112275,112236
112378,112331
112382,112306
112349,112298
112302,112238
112308,112256
112378,112315
112403,112330
112359,112308
112318,112256
112324,112279
112413,112306
112404,112317
112404,112303
112323,112296
112312,112256
112403,112330
112418,112378
112400,112343
112341,112274
112359,112302
112377,112333
112448,112305
112451,112347
112380,112273
112397,112297
112437,112318
112532,112359
112449,112337
112405,112275
112436,112294
112476,112331
112535,112361
112485,112319
112448,112302
112405,112355
112493,112351
112509,112351
112475,112345
112419,112304
112454,112300
112520,112364
112541,112361
112508,112353
112443,112291
112453,112338
112521,112329
112574,112369
112551,112312
112506,112300
112489,112334
112584,112344
112632,112365
112575,112363
112540,112313
112527,112345
112630,112370
112693,112416
112631,112356
112568,112374
112606,112361
112680,112402
112718,112465
112659,112405
112608,112319
112662,112404
112694,112410
112711,112392
112694,112426
112640,112350
112674,112376
112707,112417
112740,112408
112697,112388
112639,112358
112695,112363
112762,112434
112768,112421
112719,112403
112655,112340
112699,112400
112772,112438
112753,112435
112720,112415
112667,112357
112711,112396
112745,112433
112785,112444
112767,112414
112690,112352
112728,112384
112781,112442
112821,112429
112787,112431
112692,112379
112766,112409
112814,112462
112784,112427
112795,112449
112689,112368
112744,112424
112758,112440
112788,112400
112673,112410
112601,112345
112592,112352
112517,112319
112407,112259
112280,112168
112058,112107
112084,112097
112031,112118
111934,112049
111835,111983
111726,111961
111718,111938
111738,111963
111701,111981
111592,111922
111539,111857
111572,111898
111647,111933
111654,111949
111627,111946
111618,111888
111691,111990
111796,112031
111803,112036
111774,112011
111780,111979
111882,112083
111970,112107
112003,112106
111980,112114
111914,112040
112049,112156
112108,112177
112127,112161
112138,112118
112108,112121
112144,112171
112244,112205
112237,112180
112241,112189
112137,112185
112239,112194
112305,112263
112292,112268
112272,112214
112205,112183
112257,112259
112316,112287
112290,112277
112258,112194
112247,112199
112255,112226
112296,112285
112319,112236
112312,112226
112221,112250
112318,112233
112347,112269
112326,112264
112331,112263
112283,112223
112306,112299
112382,112295
112392,112283
112310,112266
112283,112214
112324,112287
112388,112294
112356,112271
112334,112265
112198,112236
112271,112213
112316,112264
112273,112258
112219,112218
112149,112181
112209,112244
112222,112252
112242,112200
112166,112224
112078,112164
112195,112215
112218,112235
112181,112205
112117,112182
112075,112160
112101,112188
112200,112227
112140,112211
112100,112163
112097,112159
112102,112214
112171,112218
112193,112236
112147,112208
112118,112152
112163,112228
112248,112241
112253,112258
112192,112203
112203,112214
112295,112258
112316,112335
112333,112236
112315,112277
112282,112204
112311,112297
112395,112320
112412,112295
112338,112257
112330,112303
112418,112289
112494,112367
112470,112334
112419,112318
112365,112252
112504,112343
112518,112349
112477,112344
112468,112324
112401,112310
112533,112341
112547,112377
112516,112339
112469,112328
112474,112313
112508,112359
112593,112353
112534,112383
112488,112339
112461,112321
112543,112377
112619,112384
112578,112375
112518,112317
112502,112321
112567,112403
112638,112403
112583,112388
112554,112339
112542,112326
112611,112365
112642,112413
112605,112425
112525,112334
112542,112342
112586,112415
112639,112410
112595,112406
112535,112355
112537,112355
112572,112402
112620,112368
112574,112393
112492,112358
112497,112360
112562,112415
112586,112376
112569,112402
112511,112363
112484,112314
112593,112420
112606,112413
112595,112402
112513,112328
112534,112356
112597,112357
112607,112414
112593,112399
112531,112319
112530,112360
112591,112396
112622,112434
112575,112403
112515,112315
112565,112359
112576,112410
112635,112431
112587,112391
112535,112382
112545,112342
112607,112404
112676,112422
112618,112421
112518,112353
112563,112390
112674,112404
112727,112442
112653,112461
112603,112385
112683,112419
112732,112452
112746,112455
112728,112488
112680,112396
112704,112428
112787,112484
112826,112516
112819,112500
112714,112434
112777,112441
112853,112526
112876,112535
112831,112514
112774,112458
112830,112507
112901,112540
112945,112554
112891,112535
112807,112470
112851,112526
112885,112509
112923,112525
112863,112504
112804,112459
112808,112459
112919,112540
112907,112548
112868,112480
112801,112455
112801,112492
112904,112551
112910,112523
112906,112548
112796,112481
112861,112507
112911,112518
112900,112535
112904,112543
112798,112479
112884,112505
112909,112530
112876,112521
112840,112496
112722,112367
112665,112432
112592,112372
112511,112329
112342,112308
112175,112166
112121,112165
112052,112188
111930,112063
111768,112022
111562,111906
111459,111856
111491,111867
111390,111851
111273,111761
111138,111727
111173,111744
111193,111719
111187,111751
111107,111715
111053,111653
111098,111740
111215,111774
111264,111782
111280,111806
111240,111752
111363,111873
111476,111903
111468,111914
111534,111933
111466,111900
111576,111959
111709,112001
111760,112032
111745,112062
111734,112023
111825,112080
111889,112099
111934,112097
111910,112089
111884,112065
111954,112099
112012,112165
111987,112136
112018,112161
111905,112092
112009,112119
112048,112171
112040,112166
111976,112121
111970,112105
112002,112136
112074,112199
112065,112206
112021,112130
111977,112097
112008,112157
112089,112201
112110,112200
112058,112182
112015,112116
112092,112207
112131,112245
112163,112197
112118,112197
112027,112156
112085,112186
112131,112237
112090,112169
112031,112142
111955,112126
111968,112154
112041,112178
112008,112163
111934,112118
111795,112082
111893,112084
111921,112148
111832,112077
111816,112076
111713,112024
111801,112069
111851,112100
111783,112107
111745,112035
111698,111993
111766,112072
111834,112095
111854,112073
111820,112094
111752,112030
111901,112104
111920,112137
111907,112118
111906,112108
111883,112091
111932,112089
112055,112189
112023,112193
112021,112159
111974,112140
112063,112190
112144,112247
112116,112185
112137,112231
112075,112163
112200,112252
112272,112272
112229,112239
112242,112240
112223,112246
112308,112251
112374,112322
112331,112302
112291,112261
112278,112243
112324,112315
112369,112350
112334,112334
112303,112262
112301,112286
112342,112310
112385,112343
112387,112337
112326,112283
112318,112277
112381,112312
112439,112387
112395,112334
112360,112300
112319,112283
112390,112359
112427,112346
112448,112354
112393,112324
112380,112320
112483,112362
112482,112360
112478,112341
112425,112312
112432,112301
112470,112329
112556,112399
112500,112371
112473,112314
112455,112322
112511,112351
112580,112410
112500,112376
112506,112362
112496,112347
112494,112359
112569,112390
112518,112377
112495,112355
112471,112315
112562,112406
112593,112426
112535,112362
112484,112348
112478,112317
112525,112399
112576,112384
112592,112395
112484,112341
112492,112347
112565,112366
112624,112396
112578,112398
112540,112342
112506,112372
112574,112408
112605,112399
112609,112401
112562,112339
112520,112352
112621,112400
112641,112440
112642,112422
112590,112356
112566,112376
112673,112435
112691,112429
112675,112411
112625,112373
112604,112370
112708,112433
112745,112441
112699,112432
112653,112343
112634,112387
112730,112415
112787,112463
112721,112439
112682,112365
112703,112403
112755,112453
112800,112460
112730,112433
112733,112402
112730,112425
112809,112475
112816,112477
112812,112428
112748,112395
112771,112429
112772,112474
112872,112464
112815,112478
112754,112415
112789,112403
112837,112501
112860,112492
112843,112439
112781,112408
112767,112445
112867,112468
112904,112509
112851,112462
112805,112407
112806,112443
112906,112477
112930,112470
112875,112491
112815,112408
112850,112449
112895,112512
112896,112498
112904,112465
112842,112425
112842,112468
112888,112469
112891,112456
112797,112452
112702,112372
112685,112347
112652,112344
112508,112322
112356,112190
112187,112122
112062,112121
112026,112060
111929,112020
111811,111991
111605,111839
111536,111835
111528,111826
111423,111807
111359,111768
111270,111698
111220,111727
111273,111743
111297,111757
111237,111766
111189,111701
111249,111739
111361,111788
111384,111830
111402,111800
111386,111761
111495,111813
111594,111958
111633,111921
111705,111948
111663,111927
111749,111965
111848,112050
111904,112034
111885,112076
111838,112013
111962,112058
112003,112130
112008,112111
111984,112096
111929,112030
112009,112085
112066,112145
112011,112120
111996,112115
111927,112051
112012,112070
112069,112120
112029,112120
112023,112081
111923,112017
111980,112099
112022,112112
112038,112123
111951,112083
111902,112039
111962,112073
112036,112135
112014,112136
111976,112095
111954,112069
111984,112146
112045,112158
112066,112154
112036,112117
111986,112063
112001,112101
112095,112180
112029,112158
112035,112098
111936,112076
111954,112109
112015,112121
112007,112116
111964,112075
111876,112033
111901,112068
111916,112090
111886,112082
111860,112055
111752,112002
111792,112011
111783,112061
111799,112009
111733,112022
111648,111932
111707,111974
111756,112027
111751,111997
111722,111978
111686,111940
111771,112040
111827,112087
111794,112040
111795,112011
111813,112046
111875,112085
111980,112121
111969,112144
111943,112085
111946,112090
112018,112126
112132,112189
112102,112185
112090,112197
112022,112136
112112,112191
112201,112199
112203,112237
112163,112173
112077,112178
112183,112191
112192,112239
112206,112244
112172,112177
112128,112170
112164,112198
112235,112266
112224,112229
112160,112225
112085,112166
112224,112254
112249,112265
112198,112239
112192,112204
112115,112196
112162,112203
112275,112270
112215,112240
112194,112211
112179,112219
112201,112185
112282,112280
112248,112245
112237,112228
112162,112201
112249,112284
112306,112275
112312,112255
112238,112220
112236,112231
112280,112267
112365,112299
112282,112263
112295,112240
112226,112221
112315,112260
112381,112282
112308,112290
112287,112257
112239,112216
112325,112261
112397,112280
112342,112288
112271,112208
112299,112236
112327,112300
112379,112310
112399,112286
112319,112293
112275,112223
112408,112301
112388,112325
112392,112300
112347,112237
112294,112250
112380,112290
112434,112309
112394,112301
112341,112223
112315,112279
112380,112245
112456,112304
112429,112308
112330,112271
112321,112211
112434,112320
112435,112313
112433,112267
112371,112275
112320,112261
112404,112312
112449,112312
112433,112278
112421,112275
112343,112289
112446,112284
112482,112338
112486,112309
112398,112264
112414,112269
112468,112305
112534,112339
112469,112309
112437,112271
112452,112274
112499,112324
112556,112330
112574,112362
112506,112268
112505,112306
112604,112320
112669,112393
112617,112360
112599,112312
112608,112341
112669,112342
112735,112406
112689,112371
112658,112377
112654,112344
112735,112430
112760,112425
112748,112397
112651,112332
112722,112375
112796,112455
112816,112428
112777,112442
112737,112390
112754,112409
112820,112471
112842,112427
112835,112436
112774,112384
112764,112396
112827,112408
112890,112463
112771,112433
112703,112358
112666,112367
112652,112377
112578,112339
112421,112227
112240,112184
112148,112110
112051,112065
111957,112037
111689,111955
111477,111819
111362,111748
111279,111720
111184,111675
111058,111605
110851,111519
110851,111527
110861,111549
110817,111532
110789,111490
110683,111437
110695,111455
110799,111513
110825,111518
110809,111519
110795,111509
110882,111517
110938,111597
111049,111641
111081,111666
111064,111639
111124,111696
111234,111760
111298,111772
111346,111790
111287,111751
111388,111782
111451,111839
111523,111887
111513,111871
111497,111851
111589,111884
111642,111937
111684,111939
111692,111977
111620,111902
111658,111961
111767,111976
111820,112014
111753,111981
111710,111938
111772,111987
111815,112012
111856,111987
111840,111985
111776,111953
111761,112023
111856,112019
111898,112063
111863,112018
111805,111979
111822,112050
111956,112069
111971,112063
111908,112075
111849,112017
111920,112069
111999,112065
112032,112110
111937,112043
111864,112023
111931,112046
111978,112074
111925,112073
111925,112035
111841,111982
111808,112032
111885,112023
111853,112041
111850,111996
111758,111962
111791,112021
111815,112012
111836,112008
111786,111998
111711,111924
111761,111970
111840,112021
111840,111978
111778,112006
111741,111968
111785,111982
111884,112012
111874,112052
111834,111965
111823,111976
111857,112010
111969,112064
111952,112087
111932,112034
111909,112000
111929,112068
112003,112097
112044,112112
112025,112045
111983,112027
112071,112125
112113,112148
112120,112110
112086,112113
112057,112087
112156,112143
112184,112183
112204,112133
112180,112146
112130,112113
112206,112131
112286,112205
112244,112199
112259,112154
112206,112124
112239,112209
112329,112225
112315,112195
112246,112159
112222,112136
112279,112179
112362,112245
112333,112212
112277,112168
112261,112146
112320,112225
112386,112233
112352,112237
112344,112196
112290,112178
112327,112197
112421,112226
112396,112260
112385,112202
112361,112185
112397,112257
112478,112267
112456,112276
112408,112218
112341,112186
112402,112241
112450,112251
112466,112269
112399,112216
112346,112196
112408,112247
112469,112263
112416,112218
112401,112238
112364,112195
112425,112223
112443,112258
112408,112235
112383,112223
112353,112192
112388,112225
112471,112281
112462,112253
112382,112212
112373,112182
112444,112233
112486,112305
112434,112239
112451,112242
112382,112206
112451,112233
112542,112281
112500,112276
112473,112208
112434,112213
112467,112285
112503,112258
112545,112295
112476,112214
112442,112214
112536,112275
112556,112301
112553,112247
112472,112223
112484,112216
112584,112290
112638,112314
112596,112290
112556,112278
112488,112258
112598,112288
112617,112345
112603,112282
112598,112268
112598,112277
112634,112292
112661,112338
112690,112284
112628,112312
112597,112259
112709,112356
112751,112359
112702,112306
112674,112325
112646,112265
112755,112351
112781,112366
112731,112357
112711,112315
112695,112298
112802,112359
112792,112389
112790,112309
112697,112326
112734,112315
112806,112356
112863,112383
112785,112352
112728,112344
112738,112324
112822,112351
112852,112413
112835,112329
112807,112304
112774,112336
112840,112348
112883,112403
112886,112363
112794,112327
112804,112355
112864,112397
112810,112409
112782,112330
112665,112281
112600,112269
112532,112270
112490,112236
112361,112130
112168,112067
112109,112036
112051,112051
111974,111980
111886,111941
111699,111871
111658,111824
111585,111806
111575,111770
111431,111768
111329,111696
111287,111671
111341,111738
111378,111710
111341,111731
111320,111690
111325,111707
111461,111741
111475,111814
111502,111749
111477,111765
111526,111803
111632,111857
111713,111886
111725,111904
111704,111864
111759,111898
111847,111985
111891,111945
111926,111966
111872,111936
111911,111952
111968,111982
112033,112014
112011,112036
111941,111948
111986,112013
112060,112030
112106,112059
112092,112040
112022,112005
112010,112029
112107,112047
112119,112077
112050,112051
111988,112008
112064,112045
112093,112055
112125,112080
112062,112040
111990,112012
112067,112011
112118,112090
112122,112067
112099,112031
112022,112008
112102,112043
112162,112122
112134,112084
112148,112048
112048,112028
112102,112065
112167,112071
112135,112102
112091,112036
112058,112003
112051,112043
112090,112047
112153,112044
112055,112043
111989,111992
112038,112015
112097,112054
112074,112062
112057,112015
111966,111966
112026,112037
112086,112029
112059,112050
112035,112022
111979,111970
112032,112043
112063,112046
112093,112023
112079,112053
111971,112004
112068,112036
112111,112102
112085,112038
112133,112078
112024,111996
112118,112053
112165,112056
112162,112071
112129,112084
112087,111999
112158,112072
112226,112088
112194,112095
112185,112112
112122,112056
112177,112123
112260,112142
112253,112130
112238,112071
112192,112073
112249,112131
112343,112159
112327,112169
112287,112129
112238,112111
112340,112126
112415,112201
112371,112147
112362,112167
112290,112132
112409,112149
112426,112217
112417,112169
112441,112181
112332,112142
112393,112167
112433,112225
112448,112203
112454,112172
112374,112172
112441,112200
112463,112178
112503,112206
112469,112193
112390,112170
112442,112166
112518,112199
112518,112195
112486,112187
112413,112159
112469,112160
112525,112245
112489,112201
112484,112183
112428,112151
112457,112218
112547,112224
112487,112236
112442,112203
112407,112170
112504,112203
112524,112258
112528,112204
112453,112181
112400,112140
112519,112192
112550,112214
112533,112214
112509,112206
112423,112159
112536,112195
112581,112212
112573,112220
112537,112209
112452,112199
112510,112193
112554,112221
112581,112221
112492,112191
112440,112131
112560,112252
112590,112222
112565,112218
112558,112213
112491,112184
112596,112193
112660,112273
112594,112267
112587,112229
112557,112204
112613,112230
112711,112273
112683,112296
112630,112204
112612,112220
112653,112256
112748,112263
112729,112310
112676,112220
112631,112247
112700,112282
112759,112302
112754,112276
112680,112249
112660,112223
112677,112298
112778,112330
112747,112284
112691,112275
112671,112284
112720,112303
112814,112329
112734,112282
112716,112265
112650,112249
112780,112294
112785,112340
112766,112301
112757,112278
112699,112259
112794,112359
112801,112325
112825,112305
112758,112296
112745,112280
112819,112316
112869,112360
112803,112298
112788,112327
112732,112276
112851,112339
112889,112364
112807,112322
112802,112310
112778,112291
112821,112315
112862,112306
112879,112308
112816,112319
112788,112329
112857,112305
112916,112373
112883,112352
112836,112286
112845,112316
112862,112322
112922,112345
112857,112356
112784,112304
112735,112257
112751,112264
112751,112261
112577,112219
112453,112094
112306,112065
112250,112054
112223,112038
112087,112015
111967,111881
111848,111898
111803,111859
111796,111854
111661,111810
111520,111730
111484,111742
111527,111719
111542,111756
111504,111712
111439,111726
111448,111710
111610,111768
111594,111776
111620,111781
111627,111737
111667,111811
111739,111821
111893,111899
111853,111899
111797,111859
111884,111901
111981,111944
112042,111984
112001,111941
112001,111930
112055,111927
112109,111977
112207,112032
112176,112018
112080,111978
112119,111987
112227,112064
112246,112063
112201,112048
112138,111959
112187,112020
112219,112048
112233,112044
112222,112001
112168,112007
112158,112038
112261,112043
112263,112079
112242,112040
112159,112021
112177,111993
112287,112090
112279,112074
112296,112057
112243,112013
112270,112053
112343,112092
112337,112098
112361,112070
112300,112061
112308,112075
112422,112114
112407,112134
112351,112106
112286,112034
112323,112057
112389,112141
112376,112119
112333,112056
112262,112031
112250,112078
112284,112079
112278,112061
112259,112040
112212,111981
112221,112063
112259,112015
112258,112070
112239,112022
112185,111976
112187,111985
112259,112068
112290,112057
112223,112042
112193,112001
112226,112023
112258,112074
112308,112039
112329,112089
112237,112003
112311,112074
112377,112090
112394,112108
112330,112073
112318,112048
112323,112098
112413,112129
112425,112108
112418,112093
112337,112040
112388,112111
112457,112133
112455,112130
112422,112106
112394,112057
112421,112100
112515,112166
112491,112119
112474,112130
112388,112078
112470,112113
112545,112168
112555,112133
112541,112130
112440,112087
112520,112139
112596,112154
112569,112154
112553,112126
112490,112102
112572,112155
112642,112208
112586,112175
112594,112155
112526,112112
112581,112162
112676,112210
112647,112198
112584,112151
112565,112134
112598,112174
112633,112186
112677,112186
112602,112159
112586,112112
112601,112186
112664,112184
112667,112187
112679,112160
112592,112164
112616,112159
112716,112220
112703,112221
112685,112152
112629,112141
112638,112195
112737,112209
112666,112209
112662,112213
112622,112146
112656,112200
112750,112255
112687,112199
112687,112200
112621,112175
112690,112198
112726,112214
112716,112193
112659,112178
112635,112154
112694,112170
112741,112225
112705,112215
112673,112184
112580,112139
112682,112165
112698,112220
112706,112177
112671,112198
112589,112143
112686,112167
112697,112219
112709,112230
112681,112171
112602,112159
112649,112173
112754,112262
112702,112184
112694,112201
112653,112172
112698,112171
112733,112225
112741,112219
112681,112211
112660,112151
112705,112230
112761,112265
112744,112206
112695,112204
112641,112158
112736,112241
112815,112250
112753,112222
112729,112220
112654,112148
112763,112208
112772,112228
112791,112233
112764,112237
112693,112182
112810,112224
112837,112263
112811,112241
112752,112202
112776,112191
112810,112279
112873,112293
112855,112269
112832,112239
112795,112212
112889,112290
112936,112301
112880,112294
112872,112251
112830,112242
112867,112299
112936,112314
112884,112283
112821,112254
112773,112233
112867,112241
112903,112289
112787,112232
112690,112205
112579,112130
112616,112152
112490,112126
112390,112064
112225,111958
112094,111930
112102,111910
112069,111915
111934,111862
111827,111778
111763,111760
111728,111789
111767,111784
111677,111771
111585,111688
111537,111663
111652,111771
111668,111759
111668,111752
111607,111735
111635,111720
111716,111783
111764,111814
111824,111836
111782,111782
111804,111804
111904,111880
111961,111890
112004,111877
111981,111864
111927,111858
112059,111925
112132,111951
112111,111968
112032,111903
112068,111933
112173,111981
112152,112003
112158,111956
112143,111943
112103,111965
112202,111990
112242,111991
112261,112022
112196,111946
112211,111964
112256,112012
112322,112039
112253,112045
112214,111924
112235,111994
112296,112012
112331,112035
112241,111997
112238,111993
112205,111999
112300,112017
112320,112058
112268,112023
112216,111951
112230,111984
112277,112023
112338,112052
112270,112017
112245,111954
112213,111997
112300,111993
112333,112041
112241,111968
112165,111954
112200,111966
112237,111973
112259,112003
112148,112002
112104,111919
112100,111926
112200,111995
112171,111979
112188,111954
112050,111918
112080,111915
112116,111972
112143,111959
112152,111960
112045,111904
112063,111902
112172,111980
112197,111954
112171,111962
112095,111954
112114,111933
112222,111978
112242,111995
112203,111983
112140,111915
112209,111966
112216,111982
112301,112022
112261,112034
112203,111960
112224,111995
112311,112052
112302,112032
112337,112014
112246,112017
112282,112015
112371,112067
112378,112094
112374,112049
112305,112031
112329,112038
112453,112070
112438,112096
112404,112074
112377,112025
112416,112074
112467,112093
112492,112080
112469,112097
112386,112059
112459,112066
112572,112138
112497,112102
112509,112093
112435,112058
112467,112090
112602,112171
112538,112131
112529,112107
112462,112086
112542,112117
112606,112143
112542,112117
112545,112152
112474,112089
112569,112104
112602,112127
112599,112123
112574,112102
112526,112080
112572,112133
112603,112108
112613,112136
112604,112149
112482,112069
112568,112074
112629,112144
112615,112148
112561,112131
112511,112075
112611,112155
112623,112139
112636,112158
112585,112131
112507,112118
112577,112114
112644,112187
112644,112151
112620,112152
112548,112111
112598,112150
112658,112162
112712,112204
112640,112153
112560,112095
112649,112166
112654,112188
112678,112167
112657,112154
112552,112102
112650,112146
112668,112188
112711,112189
112688,112177
112576,112118
112654,112119
112717,112211
112713,112194
112699,112156
112650,112144
112683,112191
112782,112223
112767,112206
112692,112200
112665,112148
112739,112181
112830,112239
112797,112234
112774,112179
112736,112176
112777,112239
112829,112229
112816,112213
112804,112247
112762,112172
112821,112208
112887,112259
112856,112280
112847,112214
112787,112223
112824,112254
112920,112287
112888,112264
112868,112216
112826,112209
112867,112284
112909,112272
112925,112276
112874,112262
112863,112200
112879,112240
112954,112280
112915,112300
112901,112232
112828,112203
112947,112297
112940,112326
112920,112267
112933,112247
112878,112236
112894,112258
112981,112320
112935,112299
112925,112225
112863,112214
112905,112261
112949,112296
112936,112251
112893,112266
112843,112204
112914,112247
112976,112319
112936,112258
112909,112246
112887,112236
112919,112274
112989,112296
112956,112289
112925,112250
112853,112240
112904,112226
112939,112299
112877,112236
112798,112196
112747,112157
112699,112204
112681,112144
112563,112119
112387,112030
112238,111940
112248,111985
112206,111953
112150,111940
111983,111830
111913,111798
111954,111839
111900,111853
111868,111785
111818,111743
111705,111770
111746,111730
111782,111764
111747,111743
111696,111737
111648,111704
111742,111743
111796,111793
111825,111790
111793,111751
111801,111783
111866,111815
111992,111869
111932,111848
111972,111860
111977,111842
112049,111945
112091,111914
112135,111918
112072,111886
112104,111924
112216,111977
112236,111968
112220,111971
112203,111958
112173,111945
112260,111993
112277,112025
112235,111965
112215,111967
112171,111951
112274,111965
112260,111980
112245,111982
112179,111909
112215,111962
112218,111980
112262,112008
112242,111975
112197,111974
112150,111961
112244,111988
112280,112040
112274,112000
112191,111987
112225,111938
112251,112023
112320,112026
112313,112022
112198,111990
112223,111967
112329,112027
112312,112024
112286,112038
112224,111925
112218,111969
112276,111987
112290,111999
112229,111973
112153,111911
112134,111920
112161,111974
112196,111963
112150,111921
112022,111892
112038,111858
112090,111949
112118,111914
112044,111920
111974,111847
112021,111904
112061,111882
112069,111918
112011,111903
111993,111854
112018,111860
112080,111936
112131,111948
112120,111933
112051,111896
112116,111935
112146,111963
112189,111983
112214,111960
112126,111927
112182,111962
112266,112005
112296,112038
112287,112001
112210,111949
112266,112001
112374,112052
112336,112042
112342,112015
112292,111955
112327,112011
112377,112041
112393,112049
112355,112015
112308,111973
112331,112002
112387,112062
112389,112054
112379,112030
112296,111994
112332,112016
112391,112048
112365,112040
112357,112057
112317,111993
112318,111991
112381,112045
112382,112025
112349,112025
112287,111988
112310,112005
112362,112034
112376,112026
112362,112014
112270,111962
112308,111987
112376,112036
112416,112054
112351,112021
112296,111971
112376,112007
112405,112057
112414,112041
112419,112051
112375,111992
112405,112026
112519,112084
112534,112090
112483,112054
112417,112030
112478,112058
112575,112126
112563,112118
112514,112108
112468,112056
112504,112083
112594,112118
112588,112118
112538,112096
112513,112051
112522,112088
112605,112139
112594,112117
112568,112090
112481,112049
112597,112100
112632,112151
112591,112131
112598,112085
112515,112039
112612,112097
112619,112124
112617,112096
112604,112130
112571,112090
112604,112078
112667,112165
112616,112131
112643,112124
112557,112070
112595,112103
112643,112169
112646,112104
112665,112113
112573,112051
112635,112117
112675,112141
112664,112156
112677,112134
112607,112091
112661,112158
112712,112140
112716,112146
112697,112109
112657,112104
112718,112139
112737,112151
112758,112162
112717,112147
112625,112104
112720,112130
112777,112191
112765,112159
112732,112141
112672,112117
112741,112119
112816,112220
112768,112162
112773,112187
112696,112108
112760,112147
112823,112218
112827,112171
112761,112138
112737,112138
112796,112185
112852,112221
112828,112197
112827,112126
112745,112134
112815,112167
112874,112229
112814,112187
112794,112167
112737,112108
112785,112172
112820,112195
112797,112134
112751,112144
112655,112099
112672,112124
112699,112130
112602,112070
112422,111967
112267,111909
112256,111932
112201,111905
112129,111890
111967,111796
111883,111743
111867,111740
111868,111751
111741,111713
111660,111656
111542,111623
111600,111645
111580,111656
111532,111611
111513,111578
111497,111598
111578,111649
111616,111680
111640,111669
111635,111669
111627,111662
111735,111704
111811,111753
111818,111749
111782,111727
111771,111743
111883,111787
111957,111841
111962,111808
111910,111778
111896,111784
112005,111820
112066,111873
112055,111865
112014,111820
111986,111809
112089,111833
112101,111893
112086,111870
112052,111837
112050,111849
112105,111857
112131,111894
112108,111874
112050,111836
112007,111826
112069,111872
112103,111881
112090,111861
112060,111850
112027,111812
112093,111893
112135,111886
112093,111873
112060,111858
112042,111835
112132,111883
112185,111922
112131,111890
112110,111860
112064,111851
112163,111880
112214,111912
112124,111891
112094,111860
112063,111827
112118,111875
112154,111894
112090,111869
112057,111812
111990,111824
112067,111859
112064,111852
112005,111830
111955,111801
111939,111791
111992,111833
112005,111827
111975,111813
111917,111774
111919,111768
111971,111822
112029,111843
111986,111804
111962,111775
111981,111795
111998,111841
112095,111874
112053,111839
111960,111806
112024,111849
112118,111869
112115,111897
112098,111885
112066,111827
112040,111847
112164,111895
112183,111877
112144,111870
112077,111825
112105,111857
112146,111875
112236,111926
112203,111887
112139,111863
112155,111842
112238,111915
112277,111943
112242,111910
112177,111881
112217,111925
112304,111923
112307,111952
112289,111937
112259,111903
112274,111920
112310,111960
112370,111980
112310,111946
112271,111919
112287,111937
112325,111975
112366,112014
112331,111951
112264,111919
112316,111939
112354,111968
112361,111976
112365,111957
112287,111895
112301,111963
112353,111965
112400,111995
112334,111972
112301,111912
112295,111951
112406,111980
112395,111968
112402,111989
112301,111894
112367,111971
112416,111988
112430,111983
112376,111994
112309,111928
112346,111962
112433,112014
112424,112017
112439,111981
112327,111917
112393,111947
112446,112015
112429,112013
112402,112003
112350,111933
112368,111966
112477,112035
112444,112028
112400,111962
112340,111953
112398,111976
112470,112043
112425,111995
112411,111979
112328,111950
112413,111990
112487,112006
112461,112025
112420,112000
112410,111978
112439,112010
112524,112036
112503,112040
112458,111980
112387,111974
112450,112008
112523,112060
112532,112025
112475,112002
112436,111995
112487,112042
112556,112048
112529,112046
112520,112003
112429,111987
112499,112006
112545,112037
112529,112024
112494,112030
112446,111990
112489,112008
112564,112072
112519,112029
112561,111994
112442,111971
112492,112022
112556,112067
112524,112053
112548,112002
112476,111975
112557,112022
112628,112090
112590,112085
112583,112020
112519,111984
112621,112052
112652,112094
112690,112113
112679,112041
112592,112021
112678,112103
112717,112095
112727,112138
112709,112084
112646,112029
112718,112105
112751,112104
112768,112115
112712,112088
112666,112032
112727,112109
112794,112142
112741,112124
112735,112069
112636,112044
112717,112101
112721,112116
112644,112067
112569,112014
112449,111967
112389,111927
112352,111910
112199,111853
112060,111791
111902,111712
111861,111713
111784,111696
111657,111614
111498,111548
111323,111446
111300,111442
111244,111448
111193,111392
111093,111347
111032,111303
111078,111344
111093,111371
111093,111375
111072,111364
111035,111356
111147,111390
111221,111440
111233,111443
111209,111422
111245,111436
111334,111506
111414,111555
111468,111573
111472,111529
111431,111539
111571,111606
111626,111630
111614,111620
111626,111632
111586,111608
111650,111654
111727,111716
111724,111672
111703,111658
111622,111631
111718,111672
111789,111726
111753,111711
111713,111661
111685,111633
111731,111681
111821,111729
111779,111700
111738,111655
111687,111654
111764,111700
111802,111719
111777,111722
111741,111654
111727,111680
111833,111720
111866,111754
111828,111741
111835,111708
111765,111684
111861,111728
111939,111771
111900,111765
111847,111727
111816,111719
111909,111797
111974,111793
111882,111760
111836,111728
111842,111719
111877,111755
111934,111773
111913,111739
111851,111747
111831,111701
111860,111739
111903,111766
111879,111737
111800,111696
111793,111700
111847,111719
111894,111762
111846,111745
111772,111693
111737,111670
111859,111727
111896,111769
111822,111755
111771,111690
111794,111724
111882,111763
111928,111795
111901,111744
111834,111710
111892,111732
111931,111775
111992,111788
111982,111795
111935,111736
111945,111739
112044,111823
112070,111825
112044,111814
112007,111789
112011,111792
112129,111842
112119,111857
112115,111845
112087,111791
112032,111801
112150,111873
112197,111887
112122,111871
112120,111847
112116,111828
112202,111879
112205,111910
112209,111878
112161,111832
112173,111875
112248,111896
112290,111920
112240,111920
112227,111845
112272,111890
112302,111922
112331,111919
112329,111928
112275,111893
112243,111895
112332,111954
112373,111932
112371,111944
112260,111880
112261,111900
112372,111958
112392,111956
112338,111934
112282,111886
112300,111907
112392,111948
112378,111955
112344,111914
112287,111910
112331,111929
112381,111939
112415,111949
112377,111929
112316,111916
112354,111930
112373,111949
112410,111980
112382,111941
112311,111898
112332,111931
112358,111970
112392,111973
112382,111946
112280,111898
112343,111917
112405,111950
112387,111975
112371,111951
112300,111889
112340,111935
112416,111977
112350,111942
112387,111959
112330,111895
112335,111944
112423,111951
112407,111963
112393,111941
112290,111895
112373,111953
112425,111994
112434,111967
112391,111950
112313,111882
112399,111946
112454,111996
112451,111999
112413,111928
112344,111945
112413,111947
112441,112002
112507,111976
112434,111996
112402,111913
112416,111942
112526,111985
112520,112000
112480,111972
112458,111960
112478,111993
112536,112013
112565,111982
112517,111995
112452,111961
112506,111988
112579,112015
112568,112036
112563,111987
112487,111988
112565,112006
112598,112042
112585,112019
112607,112054
112534,111974
112595,112013
112631,112029
112667,112040
112618,112054
112564,111993
112606,112016
112668,112091
112683,112030
112668,112042
112621,112010
112674,112050
112748,112116
112697,112096
112691,112033
112613,112050
112673,112047
112729,112100
112733,112054
112683,112071
112631,112022
112654,112047
112672,112058
112651,112011
112523,111986
112385,111876
112375,111902
112301,111889
112189,111812
112082,111773
111898,111629
111864,111662
111764,111626
111675,111575
111492,111516
111341,111398
111255,111397
111258,111408
111132,111330
111094,111326
110997,111234
111032,111301
111047,111316
111030,111304
111006,111262
110961,111255
111060,111331
111134,111355
111148,111348
111142,111341
111143,111394
111224,111421
111381,111490
111384,111487
111410,111459
111403,111444
111489,111557
111585,111556
111619,111574
111579,111580
111543,111545
111672,111622
111741,111626
111741,111639
111686,111645
111658,111598
111728,111612
111771,111671
111768,111664
111687,111629
111588,111610
111688,111629
111724,111673
111700,111630
111618,111560
111600,111555
111704,111622
111726,111626
111751,111620
111697,111629
111704,111618
111755,111660
111823,111725
111783,111676
111783,111637
111761,111626
111856,111691
111889,111752
111845,111695
111863,111703
111808,111671
111878,111711
111894,111741
111856,111697
111829,111691
111792,111643
111784,111686
111860,111695
111808,111667
111798,111667
111720,111613
111766,111678
111835,111690
111743,111650
111672,111604
111606,111597
111728,111639
111740,111641
111702,111598
111659,111617
111633,111606
111652,111627
111721,111624
111715,111646
111612,111561
111604,111584
111668,111629
111733,111652
111674,111662
111597,111576
111618,111597
111709,111606
111737,111664
111721,111647
111696,111585
111710,111610
111744,111679
111802,111674
111810,111684
111800,111632
111747,111679
111809,111672
111916,111760
111873,111695
111806,111658
111847,111697
111871,111710
111924,111757
111914,111696
111885,111669
111848,111669
111987,111755
111976,111774
111982,111701
111930,111737
111925,111692
112020,111744
112013,111802
111977,111753
111956,111710
111969,111719
112001,111788
112035,111764
112040,111764
111942,111740
111931,111731
112050,111786
112070,111794
112077,111760
111978,111754
111995,111754
112068,111803
112150,111811
112104,111805
112077,111748
112091,111793
112111,111832
112169,111816
112123,111820
112046,111784
112059,111777
112127,111820
112145,111827
112137,111817
112029,111756
112043,111798
112115,111824
112148,111835
112140,111815
112040,111771
112093,111812
112150,111869
112130,111854
112128,111819
112042,111780
112102,111805
112133,111876
112157,111831
112116,111834
112052,111806
112083,111817
112105,111853
112156,111837
112105,111834
112012,111812
112031,111815
112085,111837
112132,111832
112139,111853
112049,111803
112052,111795
112126,111828
112164,111881
112088,111844
112047,111768
112071,111800
112109,111856
112165,111862
112170,111858
112056,111771
112086,111850
112202,111867
112150,111866
112159,111834
112098,111814
112137,111829
112250,111892
112219,111853
112213,111848
112123,111830
112161,111844
112289,111893
112244,111886
112227,111882
112121,111798
112234,111857
112290,111938
112275,111903
112283,111887
112219,111850
112249,111878
112357,111924
112347,111909
112310,111920
112233,111848
112315,111907
112433,111965
112417,111964
112361,111937
112329,111893
112361,111908
112488,111951
112443,111939
112401,111967
112334,111902
112436,111927
112477,111995
112454,111985
112462,111932
112413,111904
112443,111989
112508,111966
112474,111971
112479,111945
112374,111893
112493,111943
112474,111987
112474,111979
112442,111945
112322,111870
112354,111872
112303,111905
112247,111874
112149,111783
111991,111731
111914,111699
111883,111696
111747,111642
111617,111560
111367,111435
111305,111377
111232,111353
111092,111296
111007,111227
110816,111129
110839,111168
110794,111150
110771,111111
110691,111106
110589,111049
110668,111067
110741,111150
110726,111136
110723,111104
110690,111126
110757,111187
110928,111242
110914,111232
110915,111234
110894,111198
111012,111279
111164,111352
111152,111360
111179,111367
111162,111358
111296,111422
111406,111459
111373,111472
111367,111422
111377,111440
111455,111479
111538,111540
111508,111543
111515,111465
111427,111474
111515,111536
111582,111558
111545,111546
111529,111532
111456,111470
111516,111522
111558,111542
111538,111539
111465,111500
111410,111465
111501,111520
111520,111535
111485,111514
111477,111505
111383,111471
111498,111525
111580,111571
111526,111531
111514,111529
111480,111508
111564,111575
111644,111593
111640,111588
111578,111543
111596,111545
111664,111608
111690,111597
111714,111605
111614,111580
111592,111545
111665,111595
111704,111628
111677,111580
111607,111579
111578,111553
111611,111578
111654,111612
111585,111565
111568,111521
111537,111486
111590,111558
111594,111546
111593,111541
111519,111508
111465,111487
111568,111556
111569,111527
111553,111537
111520,111513
111461,111487
111566,111580
111652,111581
111629,111596
111615,111549
111585,111560
111666,111584
111742,111646
111723,111620
111684,111575
111699,111577
111782,111613
111862,111656
111806,111651
111767,111630
111735,111570
111827,111629
111867,111679
111845,111662
111815,111658
111774,111600
111909,111650
111922,111731
111905,111674
111863,111650
111843,111667
111888,111641
111994,111729
111941,111672
111883,111611
111864,111640
111949,111704
111966,111691
111946,111687
111924,111638
111891,111672
111982,111695
111976,111734
111977,111700
111930,111682
111890,111702
111954,111669
112056,111758
111941,111690
111948,111670
111941,111689
111994,111721
112040,111752
112013,111727
111958,111662
111974,111690
111991,111735
112086,111768
112058,111747
112008,111681
111983,111733
112062,111706
112070,111769
112050,111731
111988,111672
111995,111716
112058,111759
112116,111770
112032,111735
112030,111691
112026,111726
112096,111771
112135,111762
112093,111755
112029,111692
112053,111738
112103,111759
112164,111783
112108,111762
112030,111728
112057,111729
112161,111776
112191,111782
112189,111773
112106,111741
112139,111800
112202,111773
112220,111836
112176,111776
112157,111761
112178,111809
112271,111801
112272,111825
112249,111827
112237,111779
112221,111777
112318,111864
112344,111846
112274,111804
112210,111800
112229,111794
112309,111829
112309,111851
112285,111842
112230,111791
112257,111822
112325,111837
112330,111837
112321,111840
112191,111776
112272,111795
112375,111890
112367,111849
112322,111820
112247,111806
112283,111805
112381,111876
112367,111839
112355,111853
112303,111799
112299,111859
112429,111848
112401,111866
112394,111849
112314,111817
112384,111834
112484,111914
112481,111867
112415,111883
112379,111831
112390,111873
112461,111869
112490,111914
112485,111875
112359,111825
112456,111857
112496,111930
112533,111927
112461,111885
112403,111822
112455,111886
112510,111864
112536,111892
112525,111896
112437,111844
112467,111910
112546,111913
112572,111931
112540,111928
112485,111871
112540,111890
112635,111910
112625,111958
112589,111908
112529,111900
112611,111925
112686,111981
112607,111960
112623,111930
112534,111923
112614,111925
112667,111971
112662,111933
112663,111962
112525,111880
112609,111916
112650,111968
112590,111893
112491,111859
112322,111788
112300,111762
112234,111798
112144,111701
111999,111642
111834,111586
111783,111564
111787,111545
111658,111489
111528,111445
111376,111350
111305,111350
111343,111356
111266,111306
111146,111267
111075,111235
111116,111228
111211,111306
111153,111268
111167,111239
111159,111260
111227,111338
111359,111355
111385,111346
111368,111369
111382,111379
111517,111412
111581,111491
111596,111467
111632,111492
111564,111458
111657,111495
111774,111547
111773,111575
111736,111502
111742,111501
111773,111592
111826,111559
111848,111596
111816,111574
111751,111530
111802,111595
111885,111599
111854,111599
111792,111592
111751,111531
111783,111573
111843,111576
111803,111560
111794,111562
111701,111512
111741,111543
111820,111552
111830,111566
111737,111555
111705,111507
111826,111576
111811,111576
111833,111605
111786,111589
111766,111542
111836,111605
111885,111623
111873,111610
111835,111611
111793,111580
111895,111595
111924,111665
111852,111623
111863,111585
111792,111580
111852,111566
111896,111666
111869,111623
111814,111552
111732,111528
111795,111589
111852,111580
111777,111576
111731,111559
111622,111488
111721,111528
111735,111597
111709,111547
111673,111497
111639,111519
111676,111534
111742,111572
111714,111556
111714,111536
111666,111528
111719,111556
111840,111615
111796,111575
111757,111544
111756,111568
111802,111587
111870,111641
111828,111611
111827,111588
111768,111568
111897,111628
111910,111596
111874,111616
111852,111609
111802,111588
111917,111612
111943,111683
111930,111646
111890,111606
111857,111626
111952,111652
112030,111657
112006,111663
111948,111659
111918,111618
112040,111666
112059,111708
112070,111679
112028,111698
111964,111643
112078,111661
112090,111711
112084,111701
112015,111671
111995,111648
112044,111729
112124,111720
112064,111689
112023,111665
111989,111658
112078,111672
112102,111753
112070,111710
112070,111669
111999,111678
112109,111694
112118,111732
112096,111694
112041,111624
112092,111658
112113,111743
112157,111725
112117,111722
112034,111678
112053,111648
