11111,11111
0,0
80392,80150
99366,98196
99337,98183
99324,98160
99368,98236
99360,98196
99356,98185
99362,98211
99338,98186
99402,98227
99391,98176
99433,98206
99384,98199
99367,98167
99424,98193
99457,98187
99448,98219
99379,98157
99418,98192
99476,98220
99459,98201
99479,98195
99410,98206
99430,98179
99508,98217
99518,98197
99482,98211
99480,98171
99493,98247
99519,98222
99561,98237
99569,98252
99501,98189
99526,98216
99577,98262
99610,98243
99612,98270
99558,98214
99604,98245
99612,98247
99659,98165
99603,98115
99592,98060
99623,98109
99671,98082
99678,98095
99647,98120
99668,98082
99642,98108
99659,98131
99671,98115
99699,98085
99666,98118
99642,98100
99708,98114
99688,98103
99707,98106
99718,98112
99683,98118
99760,98121
99771,98144
99744,98162
99732,98107
99745,98125
99781,98129
99839,98161
99822,98142
99740,98092
99790,98133
99780,98142
99821,98158
99781,98162
99774,98123
99802,98151
99828,98158
99857,98163
99843,98131
99830,98166
99835,98175
99872,98157
99922,98177
99861,98196
99867,98150
99907,98175
99907,98174
99912,98191
99912,98174
99901,98172
99865,98196
99895,98142
99896,98174
99810,98126
99746,98115
99674,98061
99673,98034
99561,98025
99465,97963
99395,97903
99277,97893
99250,97810
99166,97816
99059,97725
98944,97687
98894,97686
98823,97641
98750,97636
98633,97541
98551,97551
98499,97511
98433,97446
98395,97427
98285,97410
98184,97375
98106,97318
98070,97332
98029,97302
97970,97313
97903,97220
97901,97253
97856,97231
97839,97206
97761,97221
97720,97201
97681,97150
97679,97186
97897,97228
97916,97252
97949,97273
97934,97237
97975,97266
98357,97416
98332,97410
98351,97378
98348,97421
98609,97516
98718,97537
98709,97558
98698,97573
98659,97532
98741,97536
98751,97608
98811,97587
98796,97588
98757,97555
98811,97582
98857,97596
98880,97636
98830,97620
98791,97595
98862,97636
98891,97619
98907,97631
98861,97593
98836,97603
98826,97590
98914,97629
98871,97669
98869,97593
98841,97577
98828,97623
98848,97608
98900,97597
98837,97629
98785,97574
98847,97623
98885,97614
98902,97633
98844,97620
98830,97601
98842,97660
98887,97609
98878,97636
98842,97631
98871,97620
98865,97611
98908,97662
98929,97642
98899,97617
98864,97617
98887,97632
98957,97688
98973,97654
98912,97648
98918,97639
98960,97656
98969,97636
98964,97659
98981,97672
98932,97661
98984,97650
98995,97697
98976,97680
99000,97692
98958,97641
99030,97664
99044,97693
99067,97713
99045,97690
99046,97670
99045,97700
99099,97700
99128,97740
99085,97748
99057,97721
99130,97696
99170,97765
99152,97750
99190,97754
99146,97734
99183,97737
99258,97781
99230,97779
99218,97751
99206,97751
99251,97745
99305,97789
99256,97833
99290,97779
99264,97769
99274,97799
99315,97844
99326,97823
99281,97785
99253,97773
99256,97784
99246,97769
99152,97774
99136,97719
98989,97679
98968,97649
98934,97622
98856,97589
98725,97546
98593,97459
98577,97441
98477,97434
98356,97328
98278,97331
98161,97257
98066,97214
97998,97176
97913,97170
97796,97071
97659,97033
97591,97032
97569,96997
97444,96946
97374,96903
97274,96872
97229,96845
97213,96854
97151,96843
97059,96780
97000,96742
97003,96823
96980,96761
97010,96751
96942,96760
96926,96713
96938,96767
96961,96725
96979,96752
96990,96786
96967,96734
96995,96743
97039,96798
97016,96758
97042,96810
97036,96782
97113,96809
97156,96877
97160,96832
97135,96868
97133,96848
97202,96869
97236,96865
97293,96884
97259,96900
97225,96856
97315,96901
97344,96931
97334,96897
97362,96925
97302,96930
97358,96901
97406,96948
97388,96929
97399,96918
97431,96926
97398,96986
97472,96962
97483,96989
97463,96975
97487,96975
97516,96986
97536,97036
97502,96974
97518,96995
97509,96964
97529,97013
97565,97051
97517,96990
97576,97013
97494,96986
97545,97026
97563,97039
97528,97033
97531,97005
97497,96989
97501,96977
97536,97001
97493,97023
97496,96956
97500,96970
97445,96944
97503,97000
97473,96983
97425,96971
97403,96899
97414,96973
97395,96941
97441,96940
97403,96944
97396,96903
97378,96934
97395,96926
97409,96933
97392,96921
97356,96908
97406,96962
97388,96954
97407,96922
97387,96931
97343,96915
97405,96940
97396,96938
97431,96941
97418,96960
97387,96897
97461,96981
97466,96974
97463,96986
97468,96962
97478,96942
97483,96976
97551,96993
97517,97003
97565,96989
97523,96997
97595,96989
97618,97040
97596,96996
97589,97030
97607,96988
97628,97053
97642,97033
97683,97039
97631,97048
97652,97052
97687,97041
97691,97080
97726,97040
97719,97085
97723,97065
97744,97070
97771,97109
97775,97083
97774,97092
97729,97076
97795,97084
97836,97122
97786,97104
97827,97114
97812,97108
97839,97117
97897,97161
97842,97109
97832,97139
97843,97101
97900,97171
97912,97165
97878,97125
97867,97117
97856,97133
97859,97133
97896,97142
97873,97173
97863,97157
97820,97110
97889,97131
97919,97189
97905,97146
97899,97160
97862,97127
97895,97163
97937,97177
97894,97174
97889,97151
97891,97152
97899,97180
97971,97188
97924,97168
97962,97177
97880,97177
97949,97181
97982,97196
97927,97198
97947,97176
97921,97193
97999,97169
98008,97231
97986,97214
98027,97197
97928,97223
98012,97207
98104,97268
98023,97233
98045,97222
98051,97235
98091,97270
98125,97269
98137,97286
98136,97282
98136,97280
98190,97303
98200,97345
98238,97299
98244,97352
98195,97288
98310,97331
98337,97360
98321,97388
98308,97369
98303,97350
98359,97410
98433,97401
98395,97418
98399,97400
98427,97366
98447,97463
98487,97414
98504,97483
98525,97467
98498,97413
98575,97497
98563,97491
98595,97485
98585,97484
98585,97500
98629,97508
98654,97536
98688,97503
98648,97525
98571,97476
98645,97494
98634,97475
98541,97450
98527,97399
98420,97385
98430,97361
98338,97324
98256,97311
98155,97253
98045,97196
98012,97162
97931,97144
97810,97084
97737,97060
97544,96974
97564,96994
97472,96981
97358,96854
97281,96855
97128,96803
97141,96789
97075,96802
96968,96706
96925,96704
96808,96695
96779,96664
96816,96635
96713,96654
96699,96599
96633,96586
96695,96628
96644,96612
96668,96601
96667,96634
96635,96602
96700,96631
96740,96636
96748,96658
96704,96660
96739,96632
96799,96681
96854,96704
96873,96736
96906,96693
96920,96693
96974,96746
97001,96789
96979,96740
97044,96795
97012,96788
97019,96789
97098,96784
97098,96828
97091,96807
97069,96817
97134,96814
97143,96810
97140,96837
97144,96835
97144,96817
97197,96851
97213,96880
97240,96874
97246,96879
97221,96875
97306,96906
97352,96911
97324,96910
97340,96928
97322,96909
97402,96944
97431,96965
97436,96968
97443,96973
97421,96928
97501,96982
97530,97009
97486,96985
97516,96989
97461,96968
97500,97003
97525,96966
97526,96983
97511,96973
97499,96942
97547,96996
97515,97007
97521,97005
97510,96978
97467,96969
97544,96975
97535,97025
97533,96995
97505,96995
97479,96973
97515,96967
97546,97022
97530,96954
97536,96997
97493,96997
97557,96993
97594,97016
97559,96964
97594,97029
97555,96999
97630,97008
97629,97043
97642,97057
97650,97040
97625,97038
97723,97057
97785,97105
97759,97092
97784,97086
97754,97050
97864,97113
97834,97156
97886,97126
97867,97105
97863,97134
97944,97194
97970,97144
97946,97194
97977,97193
97959,97179
98021,97179
98069,97207
98051,97201
98068,97212
98054,97219
98123,97244
98178,97306
98184,97252
98168,97256
98153,97222
98242,97286
98262,97291
98231,97281
98271,97314
98280,97311
98309,97330
98347,97317
98323,97333
98349,97367
98318,97350
98384,97360
98432,97371
98399,97357
98380,97374
98410,97347
98483,97402
98435,97407
98456,97358
98487,97414
98442,97379
98470,97412
98481,97436
98462,97396
98505,97408
98447,97419
98504,97423
98551,97474
98556,97450
98514,97427
98528,97429
98550,97456
98597,97475
98576,97440
98551,97445
98542,97447
98594,97495
98623,97433
98621,97459
98610,97462
98599,97433
98666,97498
98650,97504
98686,97472
98705,97488
98631,97497
98713,97515
98729,97499
98733,97525
98673,97484
98701,97482
98788,97534
98757,97555
98745,97493
98794,97542
98712,97499
98776,97552
98842,97578
98829,97548
98788,97555
98750,97519
98815,97540
98844,97563
98828,97565
98839,97581
98787,97533
98898,97606
98862,97609
98879,97584
98850,97578
98856,97598
98875,97612
98929,97582
98906,97611
98911,97584
98894,97582
98949,97601
98935,97625
98962,97601
98954,97626
98894,97593
98978,97634
98976,97593
98977,97623
98981,97584
98940,97634
99047,97640
99023,97682
99034,97664
99050,97647
99008,97640
99087,97653
99127,97680
99124,97691
99092,97691
99119,97670
99136,97745
99186,97677
99168,97716
99181,97716
99162,97686
99222,97706
99260,97763
99226,97703
99233,97713
99161,97694
99225,97744
99155,97680
99165,97698
99042,97662
98972,97598
98931,97570
98892,97536
98744,97485
98669,97430
98545,97415
98510,97387
98398,97316
98319,97308
98180,97207
98123,97204
98046,97193
97957,97161
97851,97090
97767,97022
97636,96997
97558,96969
97542,96958
97438,96901
97298,96886
97218,96798
97264,96807
97150,96819
97117,96754
97078,96751
97002,96721
97034,96754
97038,96750
96966,96739
96955,96704
96919,96681
96931,96707
96936,96722
96948,96692
96977,96755
96951,96692
97001,96743
97061,96738
97038,96790
97008,96728
97085,96768
97107,96819
97146,96775
97156,96829
97150,96821
97185,96802
97235,96878
97239,96850
97222,96864
97288,96878
97266,96847
97329,96854
97343,96925
97342,96890
97328,96866
97329,96862
97440,96919
97406,96911
97426,96907
97433,96934
97425,96919
97504,96952
97519,96949
97564,96989
97511,97005
97523,96964
97577,96994
97617,97016
97632,96987
97656,97042
97601,96989
97684,97054
97656,97077
97671,97029
97662,97033
97677,97021
97716,97071
97729,97032
97722,97061
97707,97041
97681,97061
97723,97050
97766,97077
97725,97065
97673,97037
97704,97042
97717,97090
97748,97042
97726,97083
97696,97023
97673,97039
97742,97074
97733,97024
97735,97032
97687,97043
97719,97025
97745,97081
97792,97082
97758,97040
97722,97031
97756,97033
97767,97082
97807,97107
97774,97080
97761,97058
97762,97041
97813,97105
97822,97084
97805,97102
97799,97076
97783,97058
97876,97149
97863,97080
97869,97104
97868,97095
97893,97113
97929,97159
97930,97142
97962,97152
97945,97129
97948,97129
98029,97176
98006,97145
98012,97205
98050,97178
98027,97184
98078,97213
98135,97201
98143,97204
98115,97204
98183,97225
98175,97286
98263,97276
98228,97274
98208,97274
98213,97256
98308,97327
98310,97305
98330,97315
98288,97280
98307,97286
98374,97363
98402,97315
98389,97344
98370,97325
98354,97337
98424,97351
98438,97344
98459,97368
98408,97359
98430,97348
98534,97397
98514,97372
98519,97415
98498,97340
98510,97411
98580,97402
98583,97441
98592,97422
98557,97377
98619,97442
98654,97462
98649,97434
98659,97456
98616,97431
98645,97437
98692,97506
98701,97473
98725,97489
98701,97439
98681,97513
98712,97467
98768,97520
98756,97497
98718,97479
98742,97471
98757,97501
98796,97533
98813,97511
98763,97502
98758,97511
98846,97527
98873,97543
98873,97542
98855,97518
98842,97554
98893,97558
98913,97551
98918,97552
98922,97575
98917,97573
98980,97590
98989,97596
98982,97574
98969,97592
98970,97604
99021,97606
99058,97598
99000,97605
99017,97610
99027,97620
99087,97626
99084,97634
99088,97634
99065,97640
99082,97645
99152,97632
99176,97683
99112,97660
99121,97642
99142,97662
99197,97697
99197,97666
99205,97677
99168,97699
99171,97696
99258,97734
99249,97704
99276,97686
99228,97733
99268,97714
99324,97726
99372,97729
99331,97733
99320,97749
99334,97729
99413,97762
99384,97754
99406,97753
99367,97784
99387,97777
99459,97796
99422,97819
99395,97762
99307,97710
99303,97686
99263,97689
99181,97671
99066,97576
98984,97570
98881,97498
98796,97481
98741,97407
98639,97392
98480,97312
98381,97287
98314,97285
98221,97191
98135,97186
98048,97129
97948,97104
97896,97052
97836,97023
97710,97028
97625,96908
97560,96902
97499,96899
97394,96879
97372,96792
97248,96810
97204,96791
97235,96780
97190,96784
97111,96741
97087,96748
97047,96709
97097,96732
97074,96713
97030,96718
97056,96694
97045,96732
97064,96741
97031,96725
97058,96761
97048,96725
97076,96750
97166,96776
97129,96773
97187,96797
97141,96786
97198,96772
97262,96840
97261,96836
97250,96823
97282,96833
97284,96858
97372,96879
97386,96860
97356,96860
97351,96858
97374,96871
97433,96938
97450,96913
97444,96904
97442,96898
97445,96903
97526,96961
97542,96962
97566,96957
97523,96944
97584,96962
97606,96998
97617,97009
97648,97007
97640,96996
97653,96995
97685,97012
97707,97052
97699,97023
97710,96996
97705,97038
97712,97034
97761,97026
97746,97023
97756,96984
97711,97058
97765,97034
97750,97048
97766,97012
97745,97059
97715,97026
97803,97053
97811,97041
97799,97077
97744,97014
97782,97009
97743,97029
97797,97027
97757,97012
97719,96993
97747,97015
97786,97015
97837,97049
97768,97017
97775,97054
97766,97033
97824,97080
97805,97051
97841,97087
97816,97006
97839,97058
97870,97071
97898,97067
97866,97103
97855,97082
97863,97084
97930,97136
97906,97121
97972,97122
97940,97070
97949,97132
98017,97136
98012,97135
98046,97194
97987,97119
98022,97143
98079,97211
98087,97177
98113,97186
98077,97146
98129,97194
98154,97222
98208,97228
98205,97255
98182,97205
98204,97279
98278,97248
98283,97268
98240,97281
98236,97225
98301,97273
98350,97296
98345,97308
98361,97317
98331,97285
98378,97327
98409,97331
98448,97358
98400,97303
98413,97322
98453,97335
98476,97344
98518,97399
98524,97351
98467,97326
98515,97385
98602,97375
98572,97428
98544,97406
98543,97398
98595,97395
98614,97440
98593,97413
98633,97425
98591,97390
98618,97436
98645,97444
98671,97416
98658,97457
98636,97449
98700,97417
98730,97477
98720,97472
98740,97467
98653,97453
98713,97415
98767,97468
98768,97460
98765,97436
98734,97451
98713,97476
98797,97488
98783,97489
98785,97499
98747,97447
98830,97506
98819,97483
98834,97493
98842,97490
98799,97479
98841,97497
98873,97564
98850,97514
98886,97546
98840,97490
98882,97531
98890,97543
98885,97526
98906,97559
98864,97520
98905,97552
98970,97585
98941,97561
98964,97543
98946,97535
98989,97615
99010,97580
99014,97587
99006,97577
98993,97598
99009,97583
99086,97625
99107,97610
99053,97627
99025,97594
99087,97636
99102,97625
99162,97641
99138,97638
99106,97645
99133,97654
99183,97653
99193,97638
99175,97703
99147,97669
99193,97641
99198,97698
99228,97693
99232,97704
99185,97653
99214,97679
99245,97695
99237,97678
99154,97638
99073,97628
98992,97569
98980,97565
98883,97509
98791,97457
98654,97394
98613,97388
98502,97326
98451,97280
98303,97246
98180,97170
98144,97169
98026,97113
97931,97051
97840,96997
97725,96939
97635,96929
97600,96941
97443,96878
97386,96812
97257,96783
97208,96738
97227,96770
97087,96739
97043,96670
96949,96671
96944,96675
96973,96659
96892,96635
96874,96655
96797,96607
96857,96621
96869,96641
96854,96637
96832,96611
96799,96618
96850,96652
96889,96642
96883,96675
96936,96637
96931,96651
96986,96706
97011,96698
97040,96688
97039,96737
97024,96708
97114,96726
97156,96774
97112,96762
97188,96788
97122,96730
97229,96784
97228,96798
97273,96835
97236,96783
97249,96797
97257,96797
97320,96853
97311,96847
97335,96838
97301,96825
97383,96874
97409,96907
97414,96880
97404,96891
97406,96842
97505,96929
97489,96927
97521,96931
97534,96920
97513,96909
97531,96954
97586,96950
97581,96946
97547,96933
97560,96953
97624,96955
97623,96982
97557,96923
97615,96967
97575,96912
97581,96944
97622,97004
97574,96932
97577,96973
97505,96916
97568,96945
97616,96940
97557,96905
97570,96959
97484,96897
97533,96929
97550,96945
97538,96953
97502,96899
97501,96873
97522,96954
97545,96913
97523,96915
97513,96943
97502,96883
97509,96942
97551,96916
97550,96948
97549,96899
97525,96919
97554,96956
97560,96942
97609,96939
97583,96952
97558,96911
97613,96965
97640,96982
97642,97006
97617,96965
97641,96940
97668,96967
97703,96997
97682,96997
97713,96971
97699,96999
97731,97002
97757,97031
97772,97028
97775,97017
97794,97037
97786,97025
97855,97076
97838,97061
97874,97044
97878,97062
97878,97082
97955,97106
97927,97086
97943,97133
97969,97109
97991,97138
98070,97148
98029,97128
98091,97166
98032,97161
98137,97156
98177,97201
98126,97174
98171,97184
98121,97169
98182,97245
98200,97222
98227,97223
98229,97237
98194,97187
98250,97246
98298,97242
98262,97250
98289,97226
98221,97259
98340,97237
98324,97275
98317,97265
98335,97287
98287,97243
98372,97287
98370,97324
98360,97268
98367,97277
98302,97263
98390,97323
98406,97287
98434,97295
98390,97304
98392,97262
98397,97322
98440,97297
98482,97343
98442,97299
98415,97308
98474,97292
98517,97332
98490,97365
98478,97308
98485,97299
98502,97362
98548,97359
98558,97373
98530,97327
98491,97324
98579,97394
98589,97367
98563,97378
98571,97364
98559,97335
98582,97419
98598,97344
98632,97412
98635,97384
98571,97375
98631,97438
98634,97400
98671,97394
98641,97408
98608,97391
98687,97399
98719,97425
98665,97446
98682,97400
98646,97436
98713,97437
98707,97440
98715,97431
98687,97407
98706,97432
98735,97456
98721,97466
98722,97449
98761,97451
98700,97443
98803,97462
98779,97486
98778,97460
98786,97471
98776,97451
98813,97500
98843,97475
98822,97504
98809,97493
98838,97472
98876,97529
98891,97506
98924,97527
98899,97529
98887,97520
98978,97513
98987,97567
98955,97528
98973,97567
98948,97513
98971,97554
99024,97571
98942,97560
98935,97539
98837,97527
98849,97482
98783,97486
98700,97444
98590,97348
98518,97293
98421,97291
98349,97250
98221,97171
98103,97144
98002,97052
97903,97055
97834,96995
97699,96968
97569,96872
97488,96837
97387,96855
97277,96761
97203,96729
97067,96655
96961,96606
96922,96612
96836,96583
96745,96547
96712,96505
96586,96446
96613,96476
96566,96466
96522,96435
96475,96420
96398,96385
96470,96411
96453,96406
96455,96435
96437,96404
96434,96402
96500,96439
96503,96456
96519,96462
96515,96449
96534,96470
96626,96498
96612,96515
96664,96520
96649,96493
96691,96530
96733,96579
96796,96544
96769,96574
96808,96551
96747,96546
96831,96619
96885,96609
96888,96615
96893,96639
96895,96590
96924,96660
96984,96663
96972,96630
96995,96647
96946,96650
97052,96686
97065,96710
97046,96677
97086,96670
97048,96710
97148,96740
97180,96758
97177,96728
97189,96733
97147,96744
97213,96775
97280,96797
97231,96782
97227,96763
97268,96771
97260,96803
97300,96772
97293,96814
97288,96794
97242,96750
97324,96802
97328,96830
97292,96772
97317,96783
97278,96766
97322,96818
97330,96784
97327,96815
97295,96791
97261,96754
97304,96799
97323,96776
97280,96807
97247,96774
97277,96781
97294,96789
97312,96812
97273,96789
97282,96816
97244,96732
97328,96834
97309,96790
97325,96776
97329,96792
97310,96753
97370,96826
97343,96822
97385,96795
97355,96819
97349,96799
97414,96834
97469,96845
97422,96856
97448,96837
97417,96818
97490,96859
97533,96903
97542,96895
97521,96856
97518,96887
97566,96892
97599,96929
97662,96937
97600,96952
97586,96906
97693,96988
97721,96969
97688,96985
97681,96946
97719,97017
97763,97000
97820,96994
97796,96997
97828,97008
97823,97029
97871,97062
97920,97030
97894,97071
97920,97080
97910,97054
98002,97115
98003,97077
98037,97109
98017,97126
98041,97091
98106,97147
98108,97138
98121,97158
98119,97164
98096,97123
98203,97195
98184,97171
98211,97184
98204,97208
98208,97158
98269,97227
98282,97218
98280,97230
98292,97192
98241,97252
98325,97219
98370,97273
98375,97281
98352,97249
98386,97267
98389,97309
98443,97236
98433,97295
98430,97286
98403,97280
98491,97292
98531,97319
98521,97329
98475,97278
98489,97343
98548,97334
98570,97363
98577,97338
98603,97367
98559,97328
98595,97375
98632,97355
98647,97376
98610,97406
98617,97357
98676,97392
98643,97408
98660,97393
98670,97370
98650,97377
98720,97402
98734,97451
98735,97390
98723,97398
98766,97426
98796,97446
98827,97487
98827,97447
98825,97419
98794,97467
98832,97488
98918,97486
98896,97498
98867,97453
98862,97438
98941,97500
98945,97511
98922,97488
98990,97485
98952,97522
99010,97530
99025,97521
99047,97534
98992,97563
99019,97507
99093,97581
99067,97577
99091,97561
99042,97554
99133,97560
99122,97620
99145,97605
99159,97583
99120,97573
99120,97612
99186,97602
99241,97682
99210,97619
99250,97647
99217,97621
99323,97670
99293,97713
99298,97637
99300,97678
99309,97632
99320,97658
99311,97672
99174,97608
99119,97541
99027,97535
98982,97484
98910,97464
98763,97409
98642,97329
98566,97250
98508,97296
98381,97216
98296,97169
98117,97092
98073,97077
97983,97052
97937,97014
97830,96939
97683,96892
97651,96865
97540,96879
97492,96787
97399,96790
97314,96702
97234,96694
97185,96677
97171,96640
97060,96674
96981,96594
96993,96612
96956,96604
96902,96569
96917,96568
96852,96558
96847,96539
96897,96592
96832,96568
96862,96544
96812,96564
96835,96529
96883,96569
96904,96610
96868,96609
96883,96563
96917,96624
96933,96625
96963,96642
96974,96651
97015,96647
96997,96619
97082,96651
97066,96699
97075,96693
97104,96671
97095,96677
97185,96712
97142,96728
97175,96726
97179,96719
97183,96709
97262,96754
97238,96751
97297,96770
97248,96743
97291,96793
97319,96805
97382,96819
97386,96776
97408,96834
97398,96813
97441,96873
97479,96834
97465,96865
97467,96824
97469,96885
97506,96840
97540,96890
97520,96870
97512,96849
97525,96866
97570,96889
97540,96870
97529,96904
97540,96864
97467,96879
97526,96883
97548,96840
97518,96865
97495,96851
97477,96827
97513,96874
97493,96843
97516,96873
97429,96866
97454,96850
97475,96868
97504,96852
97472,96860
97413,96805
97462,96865
97484,96873
97496,96844
97460,96816
97462,96849
97425,96814
97498,96839
97497,96872
97449,96870
97476,96845
97469,96866
97529,96842
97497,96915
97520,96864
97515,96879
97530,96851
97546,96896
97586,96935
97548,96893
97590,96927
97615,96888
97630,96936
97657,96945
97649,96926
97663,96936
97657,96959
97714,96932
97753,96992
97717,96965
97761,96975
97738,96981
97785,97014
97857,97029
97835,96982
97827,97038
97846,97019
97880,97036
97892,97049
97935,97076
97906,97031
97940,97054
97976,97110
98002,97060
98027,97080
97993,97077
98008,97099
98064,97121
98073,97068
98110,97122
98050,97078
98029,97140
98124,97169
98173,97138
98138,97173
98111,97100
98149,97179
98185,97179
98174,97180
98192,97147
98189,97196
98200,97194
98248,97211
98234,97215
98206,97199
98254,97190
98221,97206
98292,97194
98308,97231
98291,97214
98298,97159
98310,97226
98303,97221
98347,97226
98354,97236
98280,97194
98362,97252
98326,97254
98384,97277
98358,97249
98378,97231
98388,97260
98390,97288
98393,97246
98420,97266
98380,97268
98422,97262
98431,97288
98426,97275
98417,97274
98432,97261
98417,97313
98445,97288
98483,97283
98430,97288
98475,97270
98432,97313
98490,97287
98515,97301
98490,97312
98467,97317
98474,97294
98530,97339
98539,97313
98492,97315
98517,97306
98536,97358
98544,97327
98590,97362
98537,97337
98535,97314
98577,97359
98584,97371
98634,97355
98623,97368
98549,97326
98603,97379
98686,97372
98643,97399
98651,97382
98625,97361
98689,97398
98702,97428
98698,97438
98718,97428
98665,97399
98673,97377
98693,97387
98652,97349
98578,97345
98514,97302
98435,97269
98408,97240
98280,97197
98180,97154
98048,97084
97974,97061
97913,97000
97780,96984
97684,96924
97517,96845
97452,96824
97353,96760
97238,96698
97096,96667
97005,96608
96885,96555
96848,96520
96695,96492
96642,96456
96515,96387
96440,96394
96399,96327
96323,96341
96270,96298
96170,96261
96187,96241
96184,96288
96157,96264
96099,96235
96065,96207
96111,96226
96146,96263
96133,96265
96178,96257
96118,96244
96183,96274
96214,96279
96270,96284
96254,96307
96229,96314
96315,96338
96370,96348
96368,96372
96355,96342
96402,96374
96410,96385
96487,96401
96520,96413
96511,96435
96532,96390
96585,96453
96592,96480
96577,96462
96658,96432
96578,96438
96682,96510
96699,96544
96733,96507
96730,96553
96691,96477
96790,96518
96809,96574
96819,96540
96814,96548
96842,96583
96862,96593
96899,96579
96932,96592
96898,96616
96922,96595
96929,96606
96952,96605
96958,96609
96935,96641
96896,96560
96960,96632
96994,96630
96963,96643
96914,96569
96890,96619
96938,96612
96963,96609
96953,96618
96968,96600
96880,96586
96945,96623
96953,96618
96970,96597
96888,96615
96898,96580
96882,96595
96931,96618
96916,96577
96896,96632
96888,96546
96884,96584
96900,96629
96887,96580
96888,96591
96887,96576
96927,96603
96952,96606
96977,96621
96917,96632
96900,96602
96959,96618
96993,96645
97015,96625
96995,96588
96995,96639
97010,96622
97056,96678
97064,96653
97076,96690
97082,96631
97144,96700
97123,96715
97131,96703
97199,96743
97143,96705
97226,96711
97272,96782
97275,96756
97283,96752
97270,96753
97336,96812
97358,96759
97375,96804
97371,96805
97352,96782
97442,96834
97463,96858
97456,96820
97513,96857
97456,96807
97525,96888
97574,96913
97555,96882
97588,96873
97581,96898
97620,96908
97661,96922
97681,96939
97645,96912
97691,96925
97711,96982
97717,96955
97746,96963
97770,96944
97758,96979
97768,96966
97834,97006
97827,97017
97820,97003
97790,96992
97864,97002
97886,97010
97930,97032
97896,97039
97844,97012
97898,97048
97946,97024
97946,97050
97935,97065
97898,97054
97988,97051
98005,97093
97986,97066
98012,97062
97951,97048
98039,97091
98036,97089
98040,97108
98016,97050
98031,97109
98050,97098
98102,97113
98116,97102
98063,97091
98035,97094
98142,97119
98147,97181
98135,97148
98123,97154
98106,97098
98179,97167
98175,97118
98186,97161
98175,97134
98144,97124
98174,97159
98228,97209
98172,97162
98254,97144
98176,97171
98246,97201
98260,97174
98310,97192
98252,97224
98236,97171
98303,97174
98347,97242
98291,97198
98341,97223
98316,97191
98364,97244
98396,97239
98399,97236
98401,97233
98335,97259
98384,97243
98443,97262
98406,97242
98458,97247
98352,97228
98484,97252
98444,97311
98447,97265
98477,97280
98419,97237
98490,97320
98562,97307
98537,97318
98519,97281
98497,97297
98594,97303
98608,97375
98565,97331
98613,97339
98551,97320
98655,97360
98656,97375
98667,97387
98679,97399
98637,97362
98686,97394
98738,97382
98753,97387
98748,97391
98732,97426
98750,97405
98788,97431
98735,97417
98738,97383
98635,97354
98571,97296
98561,97312
98390,97226
98298,97209
98158,97106
98153,97096
98004,97057
97892,96950
97776,96944
97630,96873
97580,96847
97448,96803
97332,96755
97227,96644
97067,96618
97029,96578
96906,96480
96794,96472
96704,96425
96527,96390
96477,96332
96430,96317
96310,96278
96255,96246
96159,96225
96119,96215
96096,96205
96041,96149
95999,96155
95971,96144
95947,96184
95966,96123
95975,96146
95934,96117
95945,96111
95989,96170
96041,96173
96000,96154
96078,96184
96052,96184
96150,96204
96190,96242
96198,96264
96218,96226
96201,96261
96264,96272
96345,96306
96321,96337
96355,96290
96336,96353
96392,96354
96435,96333
96424,96358
96432,96328
96438,96348
96514,96402
96527,96394
96540,96380
96533,96410
96522,96376
96565,96448
96605,96416
96657,96445
96606,96464
96604,96449
96703,96462
96725,96526
96684,96482
96743,96494
96715,96486
96794,96523
96801,96533
96811,96493
96813,96564
96764,96461
96834,96501
96829,96518
96855,96537
96802,96487
96792,96507
96831,96515
96836,96520
96804,96514
96792,96531
96743,96478
96807,96514
96789,96503
96784,96519
96755,96525
96681,96466
96747,96475
96724,96502
96709,96478
96723,96474
96692,96452
96735,96489
96717,96516
96693,96437
96692,96473
96643,96445
96723,96475
96705,96490
96686,96448
96690,96476
96659,96441
96735,96505
96759,96518
96730,96463
96723,96490
96708,96454
96791,96515
96814,96516
96830,96512
96789,96485
96825,96507
96857,96559
96911,96552
96881,96518
96898,96582
96911,96547
96992,96546
97045,96648
97014,96580
96990,96625
97024,96600
97077,96657
97102,96678
97114,96618
97115,96634
97114,96648
97196,96678
97197,96704
97188,96662
97198,96699
97211,96698
97244,96720
97314,96749
97276,96725
97331,96754
97292,96761
97372,96754
97391,96773
97343,96762
97387,96785
97351,96752
97474,96800
97466,96798
97465,96826
97481,96793
97462,96803
97481,96815
97566,96861
97546,96850
97513,96823
97528,96845
97587,96876
97569,96863
97594,96856
97563,96850
97568,96867
97613,96897
97651,96910
97596,96856
97620,96922
97589,96819
97677,96895
97692,96939
97640,96880
97694,96920
97614,96904
97688,96903
97738,96912
97705,96913
97700,96933
97677,96877
97752,96955
97754,96923
97747,96938
97748,96934
97703,96952
97802,96959
97784,96972
97779,96962
97781,96926
97748,96945
97837,96973
97843,96950
97797,97008
97805,96974
97784,96957
97811,96946
97910,96990
97850,97021
97873,96944
97841,96992
97908,97007
97888,97007
97914,96986
97879,97009
97887,96958
97936,97055
97958,97034
97941,97037
97950,97019
97940,97029
97979,97057
97979,97044
98002,97071
98017,97061
97975,97049
98033,97062
98082,97070
98099,97096
98070,97084
98037,97063
98108,97096
98121,97080
98120,97113
98093,97090
98101,97111
98180,97134
98177,97143
98171,97137
98141,97115
98134,97116
98215,97162
98243,97163
98234,97157
98206,97123
98229,97126
98259,97186
98276,97197
98300,97155
98276,97190
98286,97197
98324,97204
98330,97210
98356,97233
98288,97195
98319,97165
98372,97232
98348,97253
98372,97239
98342,97217
98388,97200
98400,97241
98442,97251
98433,97242
98434,97240
98405,97251
98503,97305
98487,97274
98455,97257
98448,97221
98384,97236
98406,97198
98323,97226
98264,97174
98105,97066
98044,97057
97993,97044
97846,96971
97785,96904
97606,96865
97481,96743
97435,96779
97299,96685
97150,96610
97020,96546
96848,96531
96790,96470
96670,96404
96491,96373
96355,96237
96241,96227
96152,96151
96074,96150
95960,96133
95852,96045
95776,96025
95733,96010
95638,95977
95578,95952
95510,95897
95448,95907
95481,95922
95458,95909
95478,95916
95428,95886
95469,95868
95480,95889
95518,95949
95534,95944
95479,95927
95542,95921
95608,95970
95599,95973
95605,95978
95646,95973
95646,96037
95777,96038
95758,96040
95772,96063
95746,96027
95819,96043
95849,96086
95920,96109
95873,96108
95881,96100
95885,96065
95973,96150
96008,96140
95996,96143
95938,96120
95981,96177
96047,96189
96046,96184
96070,96182
96097,96154
96095,96202
96178,96252
96172,96233
96179,96228
96132,96228
96229,96221
96255,96275
96289,96285
96282,96271
96316,96245
96248,96278
96324,96279
96351,96305
96334,96342
96315,96284
96339,96274
96344,96277
96367,96291
96343,96305
96355,96290
96359,96306
96358,96335
96357,96275
96378,96312
96317,96259
96306,96298
96385,96277
96329,96311
96359,96256
96281,96286
96277,96237
96274,96287
96317,96284
96322,96258
96271,96265
96247,96237
96305,96289
96304,96276
96311,96248
96291,96262
96268,96232
96290,96263
96347,96303
96306,96276
96302,96271
96273,96259
96353,96302
96360,96298
96370,96300
96381,96297
96342,96313
96432,96344
96440,96312
96426,96332
96451,96340
96475,96323
96545,96365
96547,96381
96549,96346
96587,96397
96564,96414
96633,96390
96659,96456
96663,96401
96675,96431
96695,96439
96767,96492
96751,96482
96761,96495
96793,96494
96801,96464
96869,96529
96875,96519
96899,96569
96885,96534
96921,96525
96992,96586
96957,96563
96987,96576
96996,96581
97028,96579
97055,96626
97073,96602
97112,96656
97087,96627
97107,96630
97191,96659
97168,96694
97210,96667
97167,96691
97194,96687
97228,96712
97261,96686
97262,96710
97221,96679
97289,96717
97315,96709
97297,96732
97301,96749
97273,96700
97304,96722
97340,96768
97324,96736
97301,96693
97297,96725
97341,96724
97317,96766
97350,96717
97343,96743
97345,96753
97376,96754
97373,96744
97421,96766
97396,96757
97410,96754
97397,96779
97456,96802
97460,96788
97476,96797
97424,96778
97424,96817
97463,96825
97494,96812
97497,96816
97456,96785
97525,96797
97512,96826
97554,96854
97547,96833
97491,96838
97521,96797
97580,96873
97594,96875
97591,96832
97558,96828
97593,96853
97620,96854
97667,96895
97650,96885
97607,96844
97627,96874
97711,96907
97728,96921
97682,96883
97655,96865
97754,96955
97735,96926
97803,96929
97728,96937
97745,96886
97775,96929
97820,96957
97814,96967
97850,96938
97777,96966
97862,96918
97877,96998
97842,96984
97903,96991
97866,96978
97895,96971
97959,97028
97966,97016
97988,96982
97921,96993
97970,97028
98021,97066
98035,97028
97999,97038
98025,97028
98041,97044
98081,97074
98063,97084
98107,97059
98078,97075
98107,97086
98148,97129
98162,97090
98161,97117
98122,97080
98186,97104
98258,97143
98202,97153
98206,97116
98249,97142
98230,97135
98308,97179
98328,97190
98305,97152
98290,97144
98318,97153
98371,97200
98345,97189
98333,97150
98220,97078
98226,97138
98114,97099
98079,97025
97924,96974
97837,96916
97729,96864
97679,96840
97537,96821
97410,96724
97274,96666
97163,96644
97104,96564
96948,96548
96820,96425
96719,96407
96612,96379
96539,96325
96431,96249
96299,96247
96156,96131
96100,96169
96054,96109
95967,96054
95889,96029
95802,96016
95753,95963
95755,96017
95679,95993
95634,95957
95631,95918
95594,95961
95636,95934
95644,95971
95638,95943
95603,95931
95691,95984
95703,96004
95708,95960
95742,96003
95676,95958
95777,96042
95797,96024
95880,96082
95851,96053
95860,96052
95888,96088
95962,96114
95979,96127
96005,96137
95946,96089
96053,96158
96080,96163
96054,96136
96086,96166
96098,96180
96118,96213
96160,96177
96159,96145
96203,96182
96150,96189
96228,96257
96248,96249
96280,96242
96260,96255
96283,96256
96354,96262
96385,96328
96393,96291
96441,96317
96401,96296
96401,96306
96476,96355
96495,96317
96475,96359
96437,96314
96492,96357
96534,96357
96535,96337
96495,96378
96469,96289
96503,96371
96510,96372
96503,96358
96520,96330
96454,96357
96484,96301
96546,96359
96533,96320
96487,96357
96442,96336
96452,96306
96488,96322
96445,96305
96457,96318
96381,96284
96400,96315
96467,96318
96432,96333
96414,96296
96358,96287
96435,96300
96445,96343
96421,96280
96475,96313
96401,96289
96438,96320
96488,96362
96494,96313
96480,96347
96454,96307
96516,96343
96581,96345
96517,96383
96517,96334
96541,96349
96563,96346
96612,96403
96630,96360
96599,96399
96583,96352
96636,96422
96706,96443
96704,96423
96722,96434
96690,96405
96747,96427
96774,96457
96809,96486
96815,96466
96805,96455
96861,96502
96889,96525
96888,96513
96897,96499
96914,96499
96941,96532
96996,96595
97031,96581
97018,96571
96991,96561
97079,96602
97086,96621
97100,96600
97141,96618
97112,96603
97180,96631
97193,96662
97194,96646
97219,96676
97178,96631
97242,96634
97290,96699
97287,96663
97263,96691
97264,96650
97309,96703
97324,96729
97358,96696
97340,96695
97319,96709
97305,96722
97410,96725
97339,96725
97385,96759
97379,96735
97380,96731
97421,96755
97375,96728
97416,96744
97378,96730
97415,96772
97459,96763
97461,96773
97453,96735
97419,96756
97479,96787
97491,96811
97479,96771
97533,96787
97414,96741
97494,96791
97554,96822
97531,96822
97512,96753
97493,96804
97543,96816
97553,96806
97559,96839
97574,96800
97511,96810
97569,96836
97636,96859
97598,96804
97653,96834
97558,96827
97613,96876
97675,96856
97636,96850
97657,96862
97601,96829
97662,96857
97683,96909
97674,96883
97669,96850
97662,96845
97690,96885
97741,96897
97744,96874
97729,96897
97686,96877
97772,96882
97785,96945
97766,96892
97783,96910
97737,96870
97823,96921
97818,96950
97835,96922
97833,96957
97783,96918
97868,96948
97853,96986
97863,96929
97907,96959
97865,96941
97934,97002
97927,96978
97961,96980
97925,97022
97914,96942
98011,96998
97961,97012
97965,97033
97988,96997
97959,97017
98027,97013
98060,97035
98019,97061
98015,97025
97937,96957
97982,96964
97929,96986
97831,96931
97769,96879
97620,96787
97576,96785
97495,96756
97366,96658
97249,96657
97105,96547
97023,96531
96989,96495
96787,96432
96650,96322
96500,96280
96474,96259
96374,96218
96221,96183
96088,96094
95958,96050
95917,96035
95831,95984
95719,95928
95660,95922
95509,95838
95501,95858
95462,95848
95381,95796
95343,95782
95285,95787
95346,95763
95335,95796
95279,95765
95308,95776
95254,95730
95348,95770
95354,95811
95389,95781
95349,95819
95374,95790
95443,95859
95508,95857
95489,95900
95486,95866
95520,95899
95561,95938
95656,95918
95643,95965
95606,95921
95674,95939
95686,95995
95741,95966
95700,95970
95765,95949
95706,95988
95775,95975
95805,95996
95820,96010
95809,96020
95774,96010
95874,96021
95882,96071
95885,96036
95912,96047
95900,96028
95961,96099
95957,96090
95986,96082
95985,96111
95976,96082
95996,96099
96086,96142
95992,96102
96029,96101
95989,96084
96042,96114
96051,96130
96082,96122
96015,96104
96015,96110
96022,96122
96090,96146
96035,96108
96037,96101
95973,96090
96063,96083
96076,96095
96038,96116
96010,96101
95999,96084
95997,96100
96055,96093
96030,96101
95986,96067
95989,96072
96010,96118
96021,96081
96033,96097
96030,96076
95951,96055
96034,96093
96000,96079
96013,96115
95995,96079
95980,96035
96044,96124
96038,96114
96079,96104
96059,96076
96021,96123
96090,96162
96127,96112
96137,96127
96102,96153
96079,96124
96183,96154
96194,96191
96172,96163
96224,96188
96174,96160
96257,96180
96284,96229
96276,96205
96287,96214
96256,96165
96356,96247
96355,96270
96369,96264
96320,96234
96369,96226
96390,96281
96447,96288
96466,96276
96443,96310
96441,96292
96478,96320
96494,96314
96521,96297
96543,96350
96514,96321
96582,96376
96630,96344
96621,96384
96566,96344
96627,96362
96661,96407
96715,96405
96673,96398
96665,96433
96653,96374
96741,96413
96737,96430
96745,96413
96706,96389
96723,96396
96780,96426
96783,96460
96747,96440
96774,96433
96797,96430
96812,96472
96855,96456
96833,96490
96817,96442
96821,96462
96821,96493
96879,96467
96880,96494
96807,96466
96822,96459
96913,96513
96895,96514
96879,96475
96892,96505
96843,96458
96918,96514
96982,96495
96913,96501
96906,96475
96929,96492
96942,96491
96963,96518
96969,96529
96932,96541
96912,96513
96990,96501
96995,96569
96981,96538
96958,96517
96962,96536
96996,96528
97040,96560
96992,96540
97030,96550
97001,96554
97024,96583
97061,96571
97033,96569
97084,96570
97037,96563
97103,96605
97136,96617
97059,96617
97120,96570
97084,96604
97152,96613
97141,96587
97146,96635
97129,96598
97152,96617
97137,96591
97193,96636
97237,96643
97159,96639
97143,96632
97239,96669
97247,96633
97225,96636
97264,96678
97211,96652
97290,96683
97276,96670
97306,96645
97276,96665
97267,96670
97337,96722
97320,96712
97333,96681
97336,96729
97330,96685
97384,96740
97420,96742
97380,96731
97411,96727
97375,96704
97428,96786
97488,96764
97457,96741
97426,96742
97444,96713
97526,96799
97544,96797
97483,96777
97531,96788
97498,96800
97527,96768
97534,96841
97535,96780
97487,96768
97440,96767
97445,96697
97331,96717
97233,96614
97160,96572
97049,96531
96935,96495
96890,96498
96727,96397
96632,96277
96460,96244
96403,96256
96278,96165
96119,96122
95990,96016
95860,95988
95753,95917
95649,95924
95530,95852
95382,95745
95314,95735
95191,95732
95152,95703
95046,95624
94980,95574
94928,95561
94886,95586
94882,95539
94843,95539
94757,95484
94800,95538
94777,95494
94803,95537
94792,95531
94805,95517
94801,95528
94839,95564
94865,95552
94888,95550
94861,95563
94895,95566
94978,95597
94998,95595
95032,95644
94991,95605
95061,95611
95081,95681
95142,95678
95111,95674
95117,95677
95152,95670
95212,95758
95248,95737
95214,95729
95216,95722
95199,95714
95281,95722
95277,95734
95275,95728
95279,95728
95276,95759
95370,95792
95328,95780
95346,95765
95317,95741
95379,95745
95389,95833
95398,95795
95445,95786
95373,95806
95392,95802
95428,95826
95483,95806
95497,95849
95438,95767
95445,95825
95480,95849
95523,95821
95448,95815
95462,95811
95454,95830
95500,95797
95511,95813
95482,95841
95445,95809
95469,95827
95502,95833
95470,95838
95476,95838
95456,95810
95437,95820
95489,95821
95493,95825
95480,95846
95440,95822
95464,95804
95495,95835
95483,95820
95475,95835
95468,95814
95440,95818
95510,95838
95491,95832
95473,95827
95470,95820
95482,95818
95504,95846
95557,95847
95507,95840
95536,95862
95534,95883
95596,95839
95588,95907
95598,95895
95566,95843
95620,95889
95624,95927
95662,95919
95675,95899
95604,95907
95649,95869
95709,95971
95713,95937
95728,95921
95703,95937
95703,95942
95799,95971
95811,96003
95751,95959
95802,95974
95765,95994
95870,96007
95903,95998
95848,95986
95863,95991
95839,95986
95909,96027
95922,96030
95941,95994
95896,96049
95936,96043
95974,96035
96034,96079
95975,96085
95998,96062
95998,96065
96046,96102
96068,96092
96086,96105
96071,96071
96079,96095
96094,96129
96148,96102
96139,96139
96127,96079
96140,96125
96169,96172
96166,96147
96182,96137
96193,96151
96171,96175
96253,96142
96250,96181
96223,96163
96233,96158
96231,96179
96278,96183
96277,96213
96276,96214
96236,96157
96319,96183
96322,96204
96370,96222
96313,96213
96346,96205
96328,96254
96395,96216
96406,96232
96359,96221
96366,96221
96381,96261
96442,96268
96460,96272
96439,96281
96393,96251
96416,96289
96447,96249
96494,96287
96443,96312
96447,96249
96437,96284
96534,96319
96501,96303
96505,96280
96495,96288
96489,96271
96534,96346
96557,96318
96583,96321
96507,96316
96547,96288
96580,96375
96601,96373
96611,96348
96563,96330
96606,96311
96631,96405
96643,96363
96651,96359
96643,96344
96606,96350
96728,96416
96680,96401
96706,96389
96697,96367
96730,96424
96737,96415
96769,96396
96769,96445
96748,96391
96781,96425
96847,96426
96824,96478
96807,96413
96847,96450
96828,96488
96902,96462
96873,96478
96869,96499
96876,96435
96897,96506
96938,96510
96934,96512
96928,96492
96884,96463
96922,96497
96958,96507
96943,96519
96969,96501
96935,96491
96966,96526
96980,96526
97025,96537
97007,96516
96996,96502
97022,96525
97053,96556
97069,96573
97061,96549
97064,96543
97066,96568
97124,96595
97107,96593
97134,96603
97126,96579
97138,96629
97183,96630
97157,96614
97186,96633
97150,96586
97127,96590
97169,96633
97139,96589
97088,96517
97024,96507
96900,96514
96877,96454
96755,96388
96655,96332
96526,96234
96429,96256
96352,96183
96207,96131
96074,96071
95895,96001
95806,95921
95677,95891
95582,95826
95421,95731
95252,95684
95192,95684
95117,95626
94963,95560
94857,95503
94688,95475
94661,95401
94642,95435
94546,95362
94473,95327
94433,95290
94431,95351
94419,95316
94411,95336
94407,95306
94328,95296
94379,95273
94446,95355
94447,95339
94466,95350
94444,95347
94479,95330
94510,95379
94582,95405
94604,95412
94532,95383
94639,95412
94652,95406
94681,95454
94689,95452
94675,95448
94718,95447
94787,95486
94779,95500
94803,95455
94791,95479
94814,95514
94867,95492
94851,95551
94839,95482
94827,95501
94885,95540
94909,95546
94913,95544
94943,95559
94903,95552
94958,95591
94985,95578
95004,95589
95019,95541
94997,95586
95023,95633
95097,95646
95117,95638
95130,95658
95105,95663
95188,95637
95165,95692
95202,95687
95219,95686
95131,95647
95200,95679
95236,95675
95182,95693
95220,95662
95199,95665
95207,95700
95205,95700
95237,95697
95217,95671
95213,95648
95224,95716
95247,95676
95247,95684
95218,95657
95234,95656
95229,95709
95254,95714
95233,95678
95289,95693
95176,95676
95273,95672
95274,95720
95294,95679
95259,95684
95266,95694
95287,95745
95287,95710
95343,95720
95302,95705
95304,95683
95355,95729
95331,95716
95401,95746
95351,95751
95347,95699
95411,95744
95425,95779
95422,95771
95461,95781
95404,95776
95463,95756
95484,95809
95514,95817
95498,95830
95480,95777
95605,95852
95574,95855
95574,95835
95625,95848
95583,95842
95637,95879
95696,95881
95722,95914
95725,95901
95692,95874
95754,95934
95763,95928
95816,95934
95786,95919
95772,95882
95851,95980
95876,95976
95857,95994
95901,95988
95852,95985
95907,96024
95915,96016
95947,96009
95971,96010
95931,96007
95993,96021
96046,96069
96008,96055
96050,96035
96033,96051
96027,96051
96126,96092
96132,96087
96084,96089
96097,96036
96127,96112
96149,96072
96189,96129
96191,96130
96145,96089
96169,96146
96216,96120
96234,96154
96209,96126
96197,96110
96243,96118
96275,96150
96278,96150
96288,96169
96225,96155
96306,96166
96346,96189
96289,96207
96277,96170
96291,96135
96316,96208
96375,96215
96355,96180
96373,96226
96301,96182
96399,96214
96412,96235
96373,96228
96439,96236
96355,96219
96430,96220
96431,96285
96441,96229
96426,96213
96398,96213
96427,96220
96462,96248
96462,96257
96442,96263
96385,96218
96490,96273
96476,96297
96466,96223
96489,96294
96418,96238
96491,96249
96539,96297
96497,96298
96508,96258
96492,96260
96539,96284
96600,96289
96554,96323
96549,96291
96571,96291
96592,96337
96625,96337
96623,96335
96606,96328
96634,96318
96640,96321
96716,96360
96670,96381
96683,96375
96660,96335
96665,96388
96758,96378
96700,96373
96715,96381
96704,96373
96718,96361
96774,96394
96758,96363
96799,96405
96738,96406
96806,96380
96831,96445
96812,96432
96850,96421
96791,96436
96865,96453
96864,96466
96858,96457
96880,96448
96864,96467
96923,96451
96924,96499
96941,96491
96917,96484
96901,96466
96946,96506
96962,96487
96997,96497
97003,96501
96923,96484
97018,96502
97027,96549
96950,96476
96910,96477
96818,96420
96805,96404
96771,96368
96632,96345
96539,96255
96422,96211
96339,96134
96250,96106
96119,96066
95983,96019
95796,95911
95737,95903
95625,95850
95457,95774
95344,95720
95192,95646
95117,95622
95034,95576
94867,95519
94767,95454
94675,95410
94603,95410
94556,95377
94498,95334
94377,95286
94326,95263
94360,95282
94347,95277
94322,95256
94290,95236
94250,95239
94296,95256
94325,95282
94331,95269
94340,95273
94283,95255
94353,95296
94395,95297
94415,95313
94415,95301
94408,95301
94459,95335
94499,95360
94526,95324
94546,95377
94496,95367
94610,95399
94629,95423
94636,95424
94638,95394
94615,95407
94696,95448
94721,95473
94705,95448
94738,95434
94709,95447
94775,95484
94771,95492
94760,95487
94792,95472
94752,95465
94798,95495
94835,95549
94825,95510
94849,95485
94814,95504
94860,95516
94888,95559
94874,95525
94899,95562
94853,95531
94914,95539
94934,95558
94906,95577
94933,95546
94881,95532
94929,95570
94949,95578
94972,95569
94998,95575
94961,95577
94979,95588
95012,95595
94975,95577
94970,95576
94966,95568
95023,95603
95020,95606
95007,95592
94983,95577
94951,95587
95011,95601
95001,95605
94960,95582
94974,95589
94953,95584
94997,95592
95011,95594
94952,95581
94988,95576
94982,95590
94986,95609
95060,95618
95060,95598
95019,95624
94987,95552
95046,95611
95079,95627
95090,95656
95063,95610
95102,95583
95136,95633
95169,95653
95183,95657
95142,95665
95137,95649
95193,95668
95223,95673
95243,95723
95247,95691
95232,95691
95268,95722
95324,95724
95324,95758
95296,95732
95305,95720
95386,95719
95456,95801
95398,95750
95427,95780
95415,95751
95461,95777
95524,95819
95485,95822
95492,95802
95507,95817
95547,95865
95566,95869
95588,95864
95596,95840
95583,95857
95623,95889
95663,95863
95617,95855
95625,95857
95675,95872
95684,95947
95693,95889
95725,95938
95705,95886
95668,95935
95717,95912
95822,95925
95738,95950
95747,95922
95754,95926
95794,95984
95799,95945
95823,95981
95822,95957
95799,95957
95844,95969
95881,95992
95903,95958
95840,95970
95843,95967
95904,95996
95922,96021
95909,95994
95896,96011
95919,96023
95912,96025
95952,96002
95933,96021
95936,96018
95922,96012
95956,96053
95981,96018
95967,96060
95970,96028
95956,96031
96031,96054
96023,96105
96053,96058
96010,96050
96017,96091
96050,96067
96080,96104
96093,96093
96065,96066
96089,96087
96152,96116
96134,96131
96151,96123
96117,96115
96141,96111
96171,96142
96188,96158
96194,96148
96174,96127
96159,96128
96196,96141
96263,96160
96250,96151
96214,96154
96208,96147
96240,96180
96279,96159
96248,96190
96280,96192
96246,96149
96312,96203
96335,96199
96340,96207
96340,96221
96314,96200
96376,96233
96358,96230
96401,96239
96377,96207
96386,96237
96418,96258
96456,96266
96407,96258
96454,96253
96439,96259
96497,96251
96499,96286
96489,96275
96486,96287
96472,96259
96546,96295
96555,96299
96574,96318
96535,96317
96530,96321
96581,96333
96612,96343
96582,96345
96613,96328
96590,96347
96661,96371
96676,96379
96667,96382
96642,96364
96672,96360
96703,96386
96735,96407
96724,96392
96729,96402
96712,96375
96757,96449
96755,96399
96712,96382
96653,96341
96567,96316
96532,96296
96464,96283
96357,96211
96210,96126
96112,96080
96006,96044
95897,95990
95766,95925
95623,95856
95465,95793
95369,95753
95253,95660
95102,95620
94975,95536
94819,95482
94757,95453
94624,95404
94505,95353
94381,95283
94301,95254
94229,95208
94163,95209
94085,95175
94040,95115
93935,95106
93966,95123
93931,95088
93939,95091
93906,95062
93881,95067
93958,95109
93958,95102
93919,95099
93937,95110
93961,95112
93986,95139
94057,95161
94034,95137
94049,95139
94067,95153
94152,95200
94173,95198
94176,95189
94162,95199
94163,95209
94248,95248
94299,95265
94244,95247
94255,95223
94227,95241
94325,95289
94320,95268
94329,95263
94286,95267
94312,95255
94331,95305
94387,95312
94332,95284
94364,95306
94374,95289
94404,95296
94442,95360
94434,95354
94454,95306
94423,95334
94502,95349
94551,95371
94555,95387
94542,95375
94542,95382
94597,95388
94623,95452
94633,95404
94560,95395
94613,95398
94632,95452
94681,95403
94641,95437
94588,95407
94643,95404
94660,95460
94653,95419
94678,95416
94587,95415
94616,95426
94666,95458
94668,95418
94669,95420
94604,95411
94612,95375
94700,95442
94679,95410
94666,95404
94617,95424
94634,95408
94711,95457
94673,95412
94680,95437
94639,95424
94637,95407
94702,95440
94669,95441
94707,95447
94658,95455
94670,95446
94721,95425
94684,95486
94694,95452
94720,95461
94721,95466
94758,95498
94839,95493
94837,95513
94788,95495
94830,95489
94896,95540
94884,95501
94920,95544
94891,95555
94921,95530
94971,95591
95033,95561
95005,95591
94970,95543
95038,95590
95041,95633
95075,95627
95060,95623
95102,95630
95102,95653
95108,95621
95183,95678
95150,95658
95170,95636
95181,95666
95195,95699
95271,95701
95225,95715
95215,95698
95260,95680
95342,95746
95300,95694
95346,95767
95297,95748
95350,95729
95405,95796
95386,95739
95428,95765
95376,95756
95390,95770
95457,95790
95445,95788
95451,95794
95421,95780
95471,95797
95509,95811
95509,95816
95477,95801
95461,95804
95510,95812
95521,95838
95515,95841
95527,95818
95500,95815
95512,95829
95564,95863
95552,95857
95552,95852
95537,95816
95572,95853
95606,95873
95609,95883
95603,95895
95566,95846
95599,95872
95637,95879
95641,95896
95638,95884
95609,95864
95627,95883
95656,95906
95679,95909
95669,95905
95615,95885
95643,95896
95697,95910
95696,95911
95692,95901
95642,95884
95685,95935
95718,95941
95689,95935
95689,95913
95694,95903
95710,95916
95747,95937
95779,95962
95768,95942
95731,95919
95753,95946
95792,95975
95851,95997
95796,95973
95795,95961
95803,95979
95854,96005
95858,95995
95860,96006
95848,95985
95831,96016
95889,96024
95891,96024
95882,96008
95856,95996
95846,96019
95916,96025
95916,96035
95922,96042
95932,96012
95910,96046
95942,96044
95957,96049
95971,96055
95935,96019
95972,96053
96001,96077
95999,96069
95996,96077
95996,96037
96045,96089
96085,96120
96058,96107
96083,96106
96041,96050
96084,96109
96126,96141
96160,96137
96141,96151
96134,96102
96177,96137
96207,96165
96212,96160
96222,96148
96180,96148
96231,96183
96261,96200
96309,96192
96267,96205
96251,96175
96267,96177
96295,96209
96312,96187
96243,96179
96184,96138
96112,96107
96090,96094
95998,96032
95912,95983
95754,95899
95655,95868
95569,95834
95411,95768
95268,95708
95148,95618
94992,95560
94928,95531
94788,95451
94603,95388
94447,95310
94353,95256
94275,95245
94172,95179
94009,95128
93904,95055
93888,95027
93819,95033
93757,94990
93658,94968
93606,94917
93608,94916
93605,94954
93600,94935
93561,94906
93512,94887
93534,94901
93592,94931
93612,94922
93574,94904
93568,94905
93610,94934
93662,94989
93686,94968
93674,94964
93664,94971
93736,94967
93778,95059
93823,95036
93816,95020
93807,95022
93863,95056
93915,95090
93953,95080
93941,95072
93933,95082
93978,95120
94049,95146
94037,95139
94047,95137
94014,95125
94063,95140
94111,95176
94111,95176
94128,95159
94121,95166
94126,95190
94178,95205
94224,95212
94224,95217
94197,95211
94223,95240
94280,95273
94321,95253
94323,95287
94315,95240
94337,95288
94390,95309
94405,95282
94401,95313
94391,95286
94404,95320
94478,95332
94466,95313
94478,95346
94455,95323
94487,95335
94516,95356
94520,95343
94519,95340
94510,95332
94489,95353
94553,95362
94540,95349
94499,95356
94473,95320
94535,95345
94561,95379
94562,95359
94526,95350
94511,95321
94554,95362
94545,95370
94544,95355
94573,95353
94535,95324
94561,95390
94611,95374
94577,95396
94592,95379
94543,95335
94641,95402
94627,95427
94676,95415
94634,95416
94652,95396
94697,95430
94720,95451
94720,95440
94772,95448
94717,95435
94786,95462
94808,95505
94824,95501
94870,95507
94835,95508
94856,95470
94923,95527
94932,95530
94969,95522
94933,95563
94964,95554
95037,95586
95014,95567
95016,95592
95046,95570
95083,95636
95101,95613
95129,95629
95154,95640
95120,95597
95150,95657
95188,95686
95167,95657
95218,95654
95217,95640
95214,95683
95265,95735
95247,95681
95308,95726
95286,95674
95333,95705
95344,95744
95388,95734
95389,95786
95401,95761
95423,95759
95456,95775
95481,95766
95455,95792
95431,95769
95524,95809
95509,95860
95532,95836
95548,95828
95470,95809
95523,95801
95601,95863
95566,95860
95584,95837
95529,95848
95574,95834
95633,95886
95599,95883
95620,95831
95596,95867
95606,95841
95682,95910
95631,95869
95649,95887
95630,95847
95670,95863
95679,95934
95712,95904
95668,95906
95699,95894
95725,95923
95785,95950
95779,95942
95761,95909
95728,95926
95800,95936
95814,95939
95800,95955
95855,95920
95794,95926
95851,95984
95865,95989
95849,95991
95876,95973
95821,95968
95871,95967
95901,96032
95883,96006
95873,96010
95859,95961
95951,96036
95978,96005
95941,96011
95986,96022
95902,96014
95979,96036
95999,96015
96035,96037
95994,96055
95959,96033
96075,96090
96077,96081
96082,96094
96056,96044
96022,96043
96083,96109
96137,96101
96107,96076
96084,96115
96056,96088
96139,96103
96153,96134
96125,96115
96115,96118
96100,96118
96161,96103
96161,96141
96159,96128
96159,96123
96153,96133
96200,96175
96228,96147
96234,96148
96208,96128
96193,96135
96289,96170
96296,96212
96253,96167
96292,96187
96256,96173
96300,96190
96339,96166
96279,96175
96193,96116
96133,96071
96091,96101
96044,96035
95923,96014
95844,95929
95690,95866
95639,95856
95499,95815
95355,95733
95213,95648
95067,95583
94972,95530
94893,95510
94705,95462
94574,95349
94395,95290
94344,95248
94249,95239
94105,95157
94039,95103
93914,95032
93861,94999
93849,95015
93737,95000
93701,94924
93659,94912
93647,94942
93630,94975
93566,94896
93626,94960
93557,94900
93640,94919
93639,94960
93653,94932
93664,94942
93678,94934
93739,94995
93752,95017
93756,94983
93772,95012
93770,94997
93872,95029
93896,95067
93912,95095
93926,95067
93901,95065
93968,95093
94024,95138
93997,95109
94055,95113
94011,95113
94044,95151
94064,95135
94109,95133
94046,95146
94049,95108
94135,95163
94148,95194
94153,95198
94182,95171
94142,95157
94256,95220
94266,95251
94261,95188
94316,95279
94286,95243
94382,95297
94380,95300
94388,95307
94408,95254
94410,95312
94428,95335
94444,95315
94453,95310
94441,95286
94427,95281
94454,95355
94477,95316
94491,95315
94438,95325
94420,95311
94481,95343
94477,95300
94409,95299
94443,95312
94399,95298
94444,95329
94408,95301
94460,95292
94376,95302
94385,95274
94415,95273
94447,95330
94404,95267
94406,95307
94377,95272
94448,95302
94472,95339
94462,95335
94446,95283
94404,95271
94458,95302
94499,95335
94462,95316
94467,95304
94478,95306
94511,95329
94585,95373
94539,95355
94523,95341
94519,95344
94568,95393
94636,95373
94607,95414
94621,95367
94587,95382
94648,95435
94661,95411
94709,95422
94681,95421
94703,95453
94750,95493
94787,95472
94768,95436
94769,95486
94786,95468
94883,95512
94868,95549
94886,95474
94872,95490
94879,95526
94934,95526
95000,95572
94982,95561
94987,95572
94941,95537
95032,95595
95048,95577
95057,95611
95071,95582
95031,95574
95079,95623
95156,95626
95124,95653
95140,95623
95095,95633
95172,95664
95185,95661
95189,95686
95225,95655
95179,95670
95246,95711
95279,95717
95273,95676
95241,95674
95279,95686
95323,95736
95324,95733
95344,95742
95331,95704
95330,95727
95387,95739
95385,95761
95418,95762
95393,95762
95383,95744
95413,95789
95418,95771
95451,95793
95440,95774
95442,95747
95498,95789
95511,95823
95480,95769
95468,95780
95490,95790
95549,95856
95546,95798
95566,95828
95552,95814
95512,95816
95613,95831
95589,95840
95638,95890
95634,95850
95598,95847
95688,95872
95652,95895
95636,95857
95658,95867
95646,95895
95699,95843
95722,95897
95658,95886
95680,95856
95686,95929
95751,95903
95769,95941
95745,95928
95706,95919
95703,95914
95779,95917
95795,95943
95772,95935
95800,95917
95785,95952
95817,95952
95859,95962
95813,95935
95822,95946
95852,95934
95865,95996
95894,95981
95871,95985
95866,95970
95872,96006
95927,95997
95929,96019
95928,95987
95907,95986
95893,95975
95932,96033
95969,96040
95970,96024
95969,96019
95934,96008
96011,96049
96039,96069
96055,96050
96035,96043
96042,96064
96085,96087
96117,96101
96105,96091
96111,96078
96099,96061
96164,96076
96180,96146
96129,96083
96124,96093
96122,96075
96156,96118
96119,96071
96032,96092
95932,96016
95913,95969
95827,95978
95727,95892
95594,95839
95485,95759
95364,95690
95225,95662
95172,95592
94982,95564
94798,95432
94680,95382
94602,95371
94442,95308
94348,95234
94178,95144
94022,95114
93979,95088
93922,95048
93741,94963
93642,94898
93598,94896
93582,94892
93516,94891
93462,94819
93368,94792
93327,94805
93368,94805
93340,94782
93365,94776
93333,94755
93329,94756
93319,94792
93374,94797
93355,94810
93332,94773
93360,94807
93432,94815
93465,94851
93445,94816
93480,94805
93458,94840
93536,94913
93562,94874
93555,94922
93556,94898
93597,94903
93650,94943
93621,94938
93641,94948
93633,94919
93599,94921
93691,94946
93698,94988
93651,94900
93651,94909
93637,94961
93712,94960
93707,95005
93710,94932
93686,94943
93688,94959
93750,94995
93792,95016
93813,94980
93807,95023
93795,95004
93880,95038
93861,95097
93897,95045
93904,95048
93884,95078
93996,95081
93980,95125
93987,95071
93987,95075
93985,95074
94064,95127
94026,95154
94035,95118
93989,95092
94038,95112
94050,95148
94073,95105
94036,95134
94030,95094
94022,95138
94089,95138
94075,95100
94029,95130
94005,95106
94033,95129
94035,95112
94056,95124
94055,95120
93995,95084
93996,95058
94062,95119
94003,95147
94009,95100
93985,95084
93949,95113
93993,95074
94019,95103
93982,95102
93973,95080
94034,95105
94036,95128
94034,95086
94067,95132
94021,95126
94054,95101
94082,95151
94122,95129
94064,95167
94097,95137
94125,95182
94179,95178
94156,95174
94216,95220
94195,95186
94244,95214
94271,95254
94273,95218
94300,95260
94281,95233
94309,95230
94397,95276
94357,95303
94378,95263
94345,95261
94429,95274
94453,95329
94440,95298
94471,95344
94463,95311
94494,95349
94501,95350
94587,95333
94526,95365
94591,95356
94594,95377
94657,95392
94628,95429
94698,95400
94655,95380
94661,95411
94710,95445
94759,95447
94726,95425
94764,95442
94770,95463
94737,95462
94807,95461
94786,95442
94777,95439
94815,95490
94816,95497
94868,95483
94846,95497
94828,95478
94834,95484
94897,95528
94874,95518
94869,95512
94861,95496
94866,95520
94888,95537
94918,95515
94911,95534
94880,95538
94928,95510
94961,95545
94908,95553
94941,95519
94930,95538
94960,95523
94983,95558
95048,95575
94986,95549
94981,95521
95020,95593
95050,95626
95074,95597
95094,95630
95027,95589
95092,95614
95168,95636
95115,95620
95121,95620
95119,95595
95094,95609
95171,95671
95168,95617
95138,95647
95181,95659
95160,95648
95224,95654
95265,95702
95243,95664
95196,95670
95253,95690
95292,95698
95325,95732
95303,95717
95262,95698
95301,95700
95359,95712
95359,95780
95347,95762
95292,95703
95375,95753
95397,95771
95442,95804
95420,95751
95365,95753
95421,95765
95472,95800
95422,95771
95449,95799
95445,95768
95450,95791
95510,95784
95495,95834
95526,95821
95496,95821
95503,95798
95567,95819
95582,95873
95577,95856
95568,95822
95597,95854
95629,95869
95656,95908
95664,95883
95608,95867
95662,95937
95700,95899
