11111,11111
0,0
1276,1402
1212,1327
1289,1343
1110,1383
1259,1428
1132,1279
1222,1394
1190,1456
1397,1454
1315,1565
1512,1744
1539,1758
1660,1893
1692,2133
1854,2199
1767,2288
1939,2496
2084,2629
2110,2646
2199,2821
2436,2898
2376,2970
2441,3017
2545,3254
2577,3287
2501,3212
2635,3430
2753,3523
3007,3766
3058,3920
3153,4260
3433,4529
3670,4832
4058,5217
4494,5889
5169,6812
5759,7568
6495,8536
7149,9409
8052,10336
8920,11197
9434,11687
9972,12188
10305,12528
10708,12797
11037,12943
11648,13517
12405,14181
13356,15044
14332,16092
15318,17275
16778,18812
18225,20417
19932,22370
21945,24880
24440,28188
27194,31728
30189,35830
33095,39875
35812,43377
38189,46336
39778,48445
41227,50311
42517,51974
43767,53608
45019,54995
46331,56746
47589,58190
48768,59621
49813,61043
50739,62414
52164,64110
53591,65675
54963,67135
56158,68470
57295,70017
58462,71340
59579,72684
60446,73741
60864,74025
60486,73749
58969,72084
56648,69825
53964,66910
51268,63835
49051,61054
46755,58628
45166,56867
43929,55485
43090,54681
42162,53678
41496,52872
40504,51534
39411,50309
38391,49099
37460,48245
36505,46921
35483,45810
34665,44673
33717,43657
33270,42768
32745,42334
32567,42092
32322,41820
32145,41592
31514,41080
31358,40743
31109,40388
31074,40457
31327,40697
31841,41515
32455,42197
33145,43205
34200,44475
35345,46020
37164,48035
38748,50309
40587,52660
41965,54389
43164,55842
43842,56946
44753,57989
45131,58508
45415,58983
49814,67282
76195,88080
76797,88592
97196,100861
97578,101082
97826,101221
98770,101698
98744,101709
98831,101787
98886,101815
99487,102117
99499,102092
99510,102069
99592,102137
99711,102262
99763,102219
99797,102241
99814,102185
99916,102269
100017,102369
100093,102334
100085,102372
100087,102308
100168,102379
100301,102459
100310,102472
100363,102516
100315,102403
100441,102518
100552,102579
100597,102604
100599,102589
100585,102509
100693,102640
100813,102719
100818,102706
100865,102670
100839,102660
100883,102672
101023,102768
101005,102782
101012,102735
100981,102692
100989,102739
101085,102814
101074,102797
101029,102754
100988,102724
101039,102763
101098,102813
101129,102845
101088,102766
101039,102714
101073,102782
101125,102860
101111,102769
101092,102800
101079,102705
101105,102757
101196,102858
101181,102833
101175,102804
101132,102755
101226,102861
101278,102922
101319,102890
101313,102896
101271,102816
101353,102935
101409,102963
101502,102998
101465,102934
101449,102933
101531,103021
101624,103078
101644,103087
101674,103096
101650,103023
101760,103138
101869,103198
101945,103197
101920,103217
101908,103119
102062,103256
102163,103341
102177,103327
102207,103290
102174,103259
102262,103351
102366,103434
102386,103403
102436,103383
102401,103375
102521,103439
102623,103512
102622,103520
102680,103509
102649,103478
102768,103572
102897,103638
102927,103686
102961,103660
102956,103613
103134,103755
103228,103822
103286,103804
103337,103820
103370,103795
103455,103906
103551,103965
103632,103957
103623,103955
103609,103920
103757,103980
103837,104063
103866,104070
103855,104018
103887,103993
103966,104111
104057,104159
104126,104147
104089,104152
104100,104103
104211,104186
104309,104243
104325,104233
104335,104219
104317,104195
104445,104268
104534,104348
104495,104292
104543,104255
104482,104239
104515,104306
104536,104278
104445,104220
104300,104117
104161,104017
104056,104020
103948,103960
103753,103805
103494,103694
103244,103525
103196,103552
103085,103501
102900,103406
102721,103264
102540,103205
102538,103250
102458,103199
102338,103119
102200,103053
102055,102986
102091,103003
102046,103030
101944,102954
101856,102860
101781,102877
101810,102928
101859,102957
101729,102866
101701,102832
101684,102821
101760,102959
101811,102934
101804,102960
101760,102902
101810,102889
101894,103008
102023,103074
102037,103054
101986,103001
102050,103063
102169,103129
102296,103183
102295,103196
102321,103184
102382,103174
102498,103327
102615,103345
102669,103369
102649,103351
102686,103353
102896,103513
103021,103562
103042,103563
103054,103538
103180,103589
103370,103762
103487,103788
103599,103826
103630,103804
103756,103865
103925,103990
104076,104098
104112,104056
104162,104068
104207,104077
104371,104219
104455,104262
104524,104236
104495,104212
104614,104228
104739,104396
104845,104418
104830,104403
104841,104348
104953,104409
105059,104525
105127,104535
105175,104517
105138,104463
105149,104485
105273,104575
105260,104543
105223,104513
105127,104409
105105,104423
105148,104478
105082,104428
105021,104362
104867,104254
104871,104292
104868,104325
104834,104230
104797,104236
104680,104158
104667,104181
104783,104242
104756,104214
104761,104180
104674,104104
104697,104176
104830,104237
104815,104235
104805,104264
104747,104146
104775,104213
104886,104289
104925,104295
104922,104262
104881,104198
104939,104293
105051,104344
105103,104364
105071,104322
105066,104273
105146,104365
105236,104462
105342,104462
105352,104489
105318,104415
105458,104491
105587,104619
105658,104631
105709,104636
105688,104600
105806,104644
105927,104745
106010,104787
106063,104771
106027,104751
106119,104794
106303,104930
106334,104950
106402,104954
106375,104922
106481,104982
106622,105123
106703,105065
106698,105087
106681,105044
106787,105128
106928,105225
106964,105222
106971,105197
106919,105134
107036,105237
107154,105306
107105,105276
107126,105300
107065,105215
107162,105285
107245,105347
107223,105314
107253,105314
107162,105242
107227,105326
107340,105401
107323,105344
107298,105324
107260,105251
107310,105320
107368,105387
107278,105320
107227,105226
107009,105107
106893,105052
106716,105022
106458,104847
106164,104691
105870,104495
105637,104436
105441,104362
105144,104162
104826,103998
104504,103813
104345,103778
104223,103730
104043,103635
103831,103516
103655,103388
103673,103453
103630,103444
103536,103393
103502,103358
103320,103238
103416,103326
103443,103381
103364,103326
103330,103255
103257,103204
103339,103295
103399,103355
103358,103328
103324,103273
103277,103217
103376,103342
103462,103367
103452,103364
103444,103326
103434,103302
103532,103448
103641,103486
103682,103475
103662,103458
103675,103418
103808,103576
103926,103634
103943,103600
104011,103619
103982,103603
104103,103699
104229,103771
104234,103757
104293,103752
104239,103761
104360,103826
104461,103890
104502,103905
104470,103861
104455,103838
104548,103915
104629,104012
104632,103955
104544,103933
104542,103883
104650,103994
104721,104044
104689,103980
104590,103950
104537,103866
104666,103991
104669,104005
104602,103942
104538,103909
104480,103840
104488,103895
104555,103946
104498,103881
104371,103812
104329,103783
104375,103844
104400,103839
104326,103788
104254,103717
104174,103674
104263,103741
104253,103772
104215,103724
104160,103651
104049,103623
104142,103713
104165,103707
104148,103675
104098,103617
104022,103606
104124,103668
104150,103719
104136,103665
104125,103622
104038,103598
104164,103697
104221,103730
104194,103703
104185,103634
104130,103658
104277,103735
104346,103772
104304,103748
104337,103698
104357,103727
104448,103784
104552,103865
104561,103854
104536,103820
104575,103810
104736,103959
104799,104001
104799,103928
104793,103914
104805,103938
104970,104030
104979,104071
105003,104061
104982,104010
105021,104045
105119,104110
105211,104166
105230,104131
105201,104113
105204,104120
105364,104240
105431,104276
105407,104243
105398,104190
105401,104182
105569,104334
105622,104362
105576,104316
105556,104275
105583,104285
105723,104430
105753,104426
105754,104386
105735,104324
105727,104343
105816,104402
105897,104463
105848,104443
105791,104358
105814,104387
105913,104466
105944,104483
105931,104440
105904,104384
105872,104443
105981,104489
106022,104514
105942,104451
105846,104364
105796,104343
105852,104431
105740,104317
105609,104215
105386,104076
105201,104032
105126,103991
104917,103868
104653,103723
104403,103564
104183,103507
104155,103478
103979,103402
103779,103300
103581,103146
103491,103138
103500,103169
103420,103122
103293,103078
103213,102981
103119,102977
103181,103035
103120,103002
103104,102953
102971,102897
102995,102916
103041,103027
103053,102978
102981,102939
102933,102907
102983,102918
103053,103042
103067,102984
103044,102974
102987,102899
103072,103001
103158,103037
103199,103091
103191,103042
103147,102994
103210,103097
103362,103167
103349,103170
103383,103156
103320,103099
103413,103139
103520,103276
103515,103245
103539,103206
103423,103130
103528,103238
103608,103306
103583,103261
103556,103243
103493,103170
103510,103223
103640,103290
103596,103246
103561,103265
103488,103145
103545,103242
103638,103289
103632,103270
103556,103252
103476,103180
103549,103229
103638,103285
103561,103289
103546,103199
103484,103161
103468,103228
103565,103259
103480,103214
103483,103184
103311,103078
103365,103151
103396,103163
103332,103126
103288,103090
103120,102996
103166,103019
103199,103098
103125,103023
103054,102963
102959,102887
102985,102966
103027,102972
103002,102949
102915,102916
102810,102829
102891,102894
102911,102937
102887,102893
102857,102892
102765,102811
102901,102906
102962,102951
102926,102912
102950,102916
102850,102852
102921,102926
103019,103017
102968,102954
103040,102961
102932,102905
103008,102999
103116,103076
103080,103023
103083,102991
103003,102929
103143,103041
103192,103084
103147,103034
103177,103003
103071,102969
103153,103017
103269,103084
103253,103066
103178,103022
103158,103033
103273,103060
103356,103162
103377,103122
103364,103118
103329,103094
103452,103175
103555,103236
103595,103236
103561,103193
103569,103194
103633,103280
103744,103322
103745,103286
103732,103292
103701,103230
103861,103353
103898,103382
103872,103355
103881,103342
103806,103286
103919,103357
103958,103446
103961,103392
103921,103352
103864,103314
104012,103414
104055,103474
103999,103413
103975,103353
103909,103336
104003,103392
104050,103435
103979,103401
103917,103313
103811,103244
103787,103314
103740,103261
103618,103170
103414,103022
103209,102928
103173,102965
103027,102885
102863,102784
102648,102664
102493,102553
102475,102598
102340,102553
102207,102486
101994,102337
101865,102282
101845,102323
101773,102297
101618,102189
101511,102134
101406,102077
101383,102150
101367,102121
101273,102056
101197,101974
101096,101953
101113,102023
101126,102029
101083,101980
100986,101880
100934,101883
101002,101996
100999,101971
100944,101918
100893,101886
100871,101873
100954,101968
100965,101978
101000,101954
100906,101932
100920,101913
101031,102007
101078,102046
101108,102046
101068,102007
101119,102002
101191,102139
101274,102158
101317,102137
101310,102119
101334,102158
101539,102276
101604,102313
101641,102310
101665,102259
101693,102305
101907,102438
101957,102470
102002,102478
102002,102443
102068,102463
102211,102592
102248,102621
102228,102518
102191,102489
102202,102494
102287,102611
102259,102568
102230,102545
102133,102422
102082,102434
102170,102495
102114,102461
102048,102447
101927,102311
101896,102341
101943,102380
101923,102350
101804,102298
101740,102222
101700,102256
101736,102270
101735,102259
101652,102210
101559,102138
101567,102140
101611,102258
101612,102189
101552,102176
101490,102091
101503,102145
101624,102209
101628,102207
101618,102203
101559,102146
101565,102185
101688,102277
101712,102281
101697,102255
101685,102217
101686,102274
101801,102319
101820,102309
101797,102300
101727,102198
101783,102266
101891,102380
101926,102367
101897,102337
101840,102252
101905,102322
102000,102417
102059,102411
102059,102396
102004,102351
102120,102445
102220,102508
102275,102520
102271,102518
102249,102449
102328,102542
102503,102633
102523,102614
102510,102624
102506,102552
102565,102665
102631,102697
102672,102706
102685,102698
102589,102610
102677,102671
102780,102741
102778,102734
102807,102695
102722,102669
102774,102723
102926,102827
102929,102818
102900,102774
102873,102702
102947,102809
103041,102880
103070,102872
103062,102845
102967,102803
103051,102844
103172,102925
103180,102938
103133,102881
103034,102823
103116,102891
103183,102927
103159,102913
103172,102917
103017,102788
103074,102852
103108,102900
103005,102830
102909,102734
102693,102654
102627,102617
102599,102634
102427,102526
102219,102438
102036,102269
101978,102291
101898,102281
101760,102188
101615,102095
101381,101978
101304,101968
101298,101974
101137,101896
100982,101795
100813,101728
100783,101733
100766,101754
100634,101667
100538,101595
100373,101541
100401,101547
100364,101585
100325,101559
100225,101464
100094,101429
100132,101475
100155,101506
100118,101460
100047,101421
99946,101350
100031,101452
100106,101504
100052,101466
100052,101426
99978,101400
100097,101475
100150,101528
100159,101491
100127,101482
100104,101438
100241,101544
100312,101597
100328,101599
100308,101552
100243,101538
100412,101657
100538,101702
100477,101678
100492,101611
100471,101609
100613,101723
100714,101778
100732,101778
100740,101732
100754,101723
100854,101850
100968,101875
100962,101867
101001,101863
100938,101818
101085,101915
101115,101958
101115,101903
101106,101902
101047,101822
101105,101939
101158,101977
101110,101921
101113,101876
101031,101806
101132,101911
101117,101960
101080,101900
101037,101827
100999,101786
101049,101862
101112,101897
101070,101861
100998,101808
100945,101773
101067,101860
101049,101876
101048,101841
100988,101780
100935,101767
101027,101857
101047,101855
101046,101826
100974,101801
100928,101757
101035,101842
101099,101882
101040,101865
100978,101781
100967,101798
101031,101863
101101,101882
101084,101867
101023,101785
101000,101793
101110,101907
101145,101911
101160,101902
101073,101855
101075,101846
101221,101927
101273,101995
101267,101966
101217,101914
101243,101935
101334,102026
101389,102028
101400,102009
101364,101991
101371,102013
101468,102101
101561,102122
101576,102092
101548,102088
101558,102107
101702,102209
101805,102238
101810,102243
101787,102175
101848,102207
102002,102338
102071,102364
102073,102355
102112,102321
102159,102368
102318,102514
102415,102522
102442,102506
102478,102494
102494,102561
102692,102677
102763,102686
102790,102681
102803,102650
102850,102664
102946,102817
103031,102800
103070,102792
102985,102747
103006,102752
103122,102831
103156,102844
103097,102784
103045,102728
102993,102735
103084,102801
103059,102791
103005,102720
102837,102604
102802,102584
102802,102654
102693,102574
102505,102459
102310,102294
102108,102244
102068,102228
101927,102160
101707,102056
101525,101884
101361,101883
101301,101875
101187,101770
101031,101708
100805,101596
100701,101560
100671,101564
100575,101502
100422,101429
100260,101288
100173,101286
100123,101332
100055,101276
99903,101197
99788,101078
99701,101113
99725,101144
99652,101086
99523,101041
99428,100966
99335,100950
99399,101015
99337,101003
99254,100938
99187,100888
99155,100893
99178,100942
99181,100914
99156,100900
99066,100807
99084,100882
99160,100956
99159,100914
99181,100908
99117,100876
99158,100934
99308,101023
99333,101033
99319,101017
99341,100981
99399,101038
99538,101114
99590,101142
99604,101145
99565,101080
99661,101193
99769,101221
99806,101232
99833,101263
99787,101167
99904,101265
100001,101365
100022,101350
100021,101312
99974,101289
100042,101319
100169,101420
100139,101378
100142,101366
100043,101284
100090,101379
100176,101360
100170,101381
100093,101292
100026,101223
100037,101301
100117,101332
100016,101305
99976,101243
99832,101180
99877,101236
99922,101251
99908,101228
99810,101190
99715,101079
99756,101160
99836,101183
99781,101149
99732,101144
99648,101050
99738,101127
99778,101208
99755,101155
99757,101136
99661,101076
99778,101171
99824,101242
99851,101207
99850,101183
99825,101164
99884,101220
99996,101322
99991,101279
100040,101282
99978,101197
100111,101334
100174,101396
100221,101381
100201,101377
100172,101302
100276,101428
100347,101432
100383,101445
100368,101426
100279,101379
100417,101465
100523,101564
100494,101521
100534,101490
100493,101465
100576,101545
100680,101598
100702,101607
100698,101587
100708,101538
100820,101670
100912,101712
100989,101747
100977,101713
100947,101703
101099,101800
101203,101848
101267,101871
101234,101850
101240,101849
101397,101944
101467,101984
101528,101947
101521,102008
101514,101937
101662,102065
101774,102129
101790,102101
101829,102108
101796,102086
101964,102202
102018,102224
102034,102187
102028,102189
101973,102132
102122,102224
102163,102295
102161,102264
102089,102196
102038,102169
102098,102195
102159,102267
102068,102177
101979,102098
101851,102062
101863,102075
101797,102036
101676,101971
101460,101828
101281,101734
101240,101733
101106,101673
100962,101569
100740,101488
100580,101366
100517,101387
100421,101358
100246,101229
100088,101143
99866,101029
99876,101080
99831,101062
99646,100966
99543,100871
99386,100835
99410,100894
99384,100887
99274,100828
99198,100760
99069,100722
99165,100804
99159,100845
99121,100763
99032,100704
99019,100744
99138,100806
99194,100865
99173,100821
99148,100777
99148,100787
99276,100879
99341,100911
99326,100886
99335,100857
99326,100838
99450,100968
99520,101022
99508,100954
99494,100954
99512,100939
99611,101034
99706,101062
99686,101058
99646,100985
99697,101028
99791,101155
99893,101170
99886,101168
99885,101099
99914,101119
100053,101273
100144,101275
100164,101269
100101,101199
100129,101234
100291,101324
100287,101369
100260,101327
100213,101244
100199,101261
100285,101329
100324,101350
100244,101298
100193,101214
100151,101220
100230,101281
100260,101296
100186,101268
100072,101143
100091,101180
100200,101249
100153,101217
100143,101204
100064,101122
100074,101151
100094,101266
100129,101234
100067,101180
100002,101130
99958,101117
100094,101189
100078,101185
100093,101172
100002,101098
99982,101170
100083,101197
100122,101227
100063,101161
99998,101117
100046,101134
100172,101283
100159,101243
100173,101214
100093,101150
100159,101211
100265,101306
100328,101291
100340,101295
100304,101250
100363,101317
100503,101410
100518,101401
100523,101412
100514,101364
100558,101386
100664,101505
100699,101503
100729,101483
100674,101422
100752,101492
100903,101601
100897,101576
100953,101586
100911,101559
100975,101611
101137,101723
101171,101733
101227,101727
101218,101667
101307,101785
101442,101874
101517,101910
101539,101880
101525,101819
101605,101915
101775,102040
101824,102009
101847,102030
101865,101995
101939,102086
102094,102139
102117,102136
102149,102151
102097,102098
102216,102207
102341,102257
102386,102276
102355,102255
102367,102197
102463,102295
102577,102393
102604,102357
102625,102372
102569,102292
102639,102378
102788,102466
102763,102460
102753,102419
102719,102359
102789,102427
102854,102507
102841,102475
102863,102416
102752,102373
102812,102405
102874,102447
102833,102429
102735,102398
102617,102253
102584,102308
102549,102284
102392,102198
102179,102090
101930,101887
101846,101903
101675,101847
101501,101727
101306,101635
101073,101472
101039,101477
100916,101457
100775,101370
100582,101281
100404,101118
100342,101164
100277,101186
100153,101064
100043,101010
99834,100891
99855,100948
99845,100991
99718,100902
99661,100842
99535,100802
99530,100843
99634,100906
99567,100854
99547,100828
99448,100804
99543,100894
99643,100957
99618,100922
99659,100921
99587,100846
99728,100957
99801,101053
99840,101032
99821,101031
99820,100982
99927,101081
100002,101172
100056,101133
100073,101136
100079,101102
100173,101215
100313,101279
100334,101253
100393,101274
100335,101222
100492,101330
100540,101400
100520,101350
100555,101319
100513,101323
100667,101418
100720,101448
100720,101447
100683,101379
100657,101366
100784,101481
100827,101491
100834,101481
100806,101416
100793,101396
100836,101503
100898,101500
100876,101462
100843,101459
100780,101372
100878,101489
100874,101522
100874,101449
100812,101398
100732,101389
100842,101462
100847,101490
100820,101425
100721,101400
100698,101347
100739,101412
100771,101409
100714,101391
100703,101351
100617,101296
100715,101407
100726,101410
100692,101363
100644,101313
100584,101269
100709,101382
100733,101405
100693,101374
100636,101330
100608,101293
100726,101397
100757,101409
100699,101392
100708,101368
100608,101327
100714,101372
100772,101445
100717,101370
100675,101307
100624,101325
100718,101429
100799,101424
100714,101404
100648,101314
100638,101301
100744,101408
100756,101409
100770,101391
100674,101359
100662,101346
100807,101458
100826,101468
100823,101429
100775,101409
100776,101371
100912,101512
100943,101549
100944,101508
100946,101454
100961,101500
101064,101615
101144,101616
101173,101628
101119,101590
101130,101607
101319,101668
101365,101726
101327,101712
101354,101675
101313,101668
101471,101789
101560,101783
101562,101792
101513,101725
101524,101788
101660,101886
101739,101914
101740,101863
101769,101864
101796,101866
101930,102023
101981,102031
101989,101988
102007,101937
101971,101993
102102,102037
102181,102117
102170,102076
102161,102017
102178,102053
102302,102152
102358,102175
102370,102144
102346,102101
102349,102149
102493,102236
102555,102267
102532,102218
102516,102182
102527,102228
102639,102268
102658,102292
102596,102255
102520,102156
102463,102155
102451,102150
102305,102084
102105,101954
101874,101797
101698,101714
101627,101731
101431,101643
101230,101483
101025,101381
100875,101348
100832,101340
100720,101236
100553,101206
100386,101058
100264,101059
100266,101047
100187,101019
100075,100949
99895,100829
99893,100856
99881,100933
99815,100845
99760,100830
99633,100754
99650,100759
99716,100856
99700,100793
99642,100815
99554,100719
99569,100785
99701,100863
99663,100860
99643,100810
99618,100766
99656,100848
99772,100916
99784,100909
99799,100895
99762,100833
99784,100908
99914,100960
99917,101005
99945,100975
99886,100913
99984,100991
100055,101037
100092,101036
100113,101074
100073,101006
100100,101052
100225,101125
100214,101125
100249,101116
100205,101053
100272,101105
100436,101218
100409,101228
100432,101175
100405,101144
100502,101207
100565,101306
100572,101299
100628,101269
100514,101205
100570,101257
100702,101359
100672,101294
100665,101279
100606,101201
100701,101303
100769,101369
100743,101309
100720,101329
100651,101269
100690,101304
100788,101357
100767,101339
100726,101303
100604,101222
100673,101277
100763,101349
100720,101276
100677,101259
100591,101169
100679,101264
100675,101301
100701,101258
100620,101249
100507,101172
100583,101242
100687,101283
100654,101283
100612,101210
100557,101170
100650,101252
100718,101285
100698,101272
100681,101265
100601,101172
100748,101288
100814,101371
100826,101320
100835,101332
100803,101276
100903,101413
100961,101423
101005,101440
101063,101414
100990,101355
101120,101488
101192,101547
101202,101527
101232,101523
101176,101475
101306,101587
101423,101647
101413,101637
101383,101566
101382,101580
101497,101688
101560,101734
101561,101700
101565,101655
101514,101647
101625,101709
101684,101768
101704,101761
101647,101697
101618,101684
101703,101768
101805,101818
101776,101776
101777,101762
101749,101738
101870,101835
101933,101905
101915,101866
101959,101825
101921,101817
102080,101947
102122,102007
102138,101949
102176,101963
102132,101959
102277,102045
102414,102089
102399,102117
102408,102053
102428,102050
102566,102163
102619,102220
102624,102194
102619,102156
102628,102178
102730,102255
102818,102309
102802,102286
102794,102235
102805,102238
102931,102339
102985,102356
102971,102344
102987,102310
102992,102302
103100,102433
103169,102458
103142,102448
103116,102389
103127,102382
103196,102464
103248,102465
103233,102450
103145,102357
103052,102322
103088,102376
103039,102326
102879,102235
102659,102095
102436,101973
102350,101975
102151,101869
101948,101730
101705,101556
101493,101515
101418,101526
101339,101441
101203,101360
100967,101223
100850,101169
100824,101192
100752,101151
100657,101086
100468,101012
100398,100950
100437,101032
100348,100987
100275,100949
100168,100855
100131,100843
100146,100945
100118,100892
100079,100871
99968,100811
99921,100797
100021,100908
99975,100878
99923,100844
99900,100788
99843,100776
99961,100897
99987,100881
99950,100846
99898,100822
99890,100820
100021,100928
100094,100934
100117,100944
100029,100921
100090,100909
100196,100983
100223,100997
100227,101008
100163,100960
100145,100936
100277,101058
100260,101034
100203,100995
100179,100930
100129,100930
100295,101040
100272,101056
100241,101001
100224,100945
100179,100965
100331,101060
100340,101057
100261,101022
100231,100978
100252,101021
100361,101085
100344,101090
100343,101038
100324,101008
100301,101065
100412,101124
100465,101114
100433,101107
100388,101032
100422,101125
100525,101145
100543,101175
100529,101161
100434,101063
100522,101129
100578,101198
100586,101153
100541,101125
100461,101044
100503,101097
100599,101145
100560,101146
100526,101112
100451,101021
100469,101082
100581,101178
100540,101106
100552,101098
100476,101051
100525,101111
100628,101199
100609,101161
100628,101130
100583,101133
100631,101137
100739,101248
100764,101245
100767,101228
100724,101162
100795,101250
100913,101301
100919,101291
100936,101286
100883,101248
100966,101310
101105,101406
101099,101394
101111,101401
101056,101344
101147,101372
101265,101488
101251,101487
101305,101462
101286,101415
101341,101506
101421,101557
101454,101573
101464,101564
101391,101463
101447,101528
101546,101619
101558,101585
101525,101579
101434,101475
101498,101564
101576,101620
101590,101610
101523,101582
101519,101517
101567,101630
101660,101669
101655,101639
101652,101651
101626,101592
101698,101665
101787,101694
101831,101726
101777,101691
101778,101618
101817,101727
101910,101790
101903,101732
101899,101720
101813,101674
101918,101760
101937,101757
101941,101773
101897,101725
101833,101657
101895,101734
101957,101777
101966,101756
101878,101699
101840,101638
101930,101736
102011,101793
102008,101785
101947,101709
101887,101669
101973,101738
102009,101773
101995,101757
101920,101665
101785,101572
101802,101661
101715,101631
101581,101528
101424,101409
101210,101249
101160,101292
101027,101280
100865,101139
100698,101053
100454,100917
100391,100919
100351,100907
100178,100821
100038,100703
99843,100623
99836,100669
99787,100651
99675,100568
99550,100540
99409,100424
99426,100503
99409,100528
99355,100463
99261,100418
99182,100366
99236,100439
99295,100462
99213,100453
99222,100411
99165,100368
99265,100483
99352,100553
99351,100543
99391,100516
99396,100470
99552,100625
99601,100709
99683,100690
99706,100694
99685,100682
99844,100826
99972,100899
100017,100863
100043,100853
100039,100801
100193,100957
100303,101015
100335,101004
100330,100952
100290,100972
100503,101062
100527,101140
100581,101115
100556,101087
100587,101064
100747,101199
100814,101237
100839,101256
100845,101197
100860,101205
101018,101340
101094,101393
101093,101348
101085,101300
101028,101271
101123,101392
101232,101424
101147,101329
101091,101264
101054,101273
101136,101345
101132,101346
101054,101267
100969,101192
100908,101163
100967,101242
100913,101246
100862,101133
100837,101071
100712,101071
100801,101162
100804,101134
100770,101136
100687,101015
100700,101042
100761,101126
100815,101134
100758,101103
100745,101039
100730,101043
100852,101165
100863,101169
100861,101137
100835,101101
100835,101106
100996,101235
101051,101279
101044,101212
101063,101184
101061,101229
101216,101345
101254,101387
101291,101325
101284,101306
101319,101344
101446,101464
101467,101436
101508,101430
101487,101415
101493,101404
101676,101582
101713,101558
101717,101549
101661,101496
101715,101498
101837,101627
101891,101622
101853,101621
101869,101556
101893,101601
101983,101724
102083,101725
102053,101701
101985,101628
102040,101682
102190,101773
102204,101801
102217,101754
102170,101718
102227,101761
102350,101857
102341,101881
102342,101820
102348,101776
102326,101822
102462,101901
102506,101873
102516,101890
102391,101804
102443,101867
102542,101958
102542,101939
102537,101884
102434,101803
102492,101862
102583,101961
102569,101911
102539,101889
102471,101813
102500,101852
102592,101974
102588,101921
102610,101925
102526,101860
102555,101876
102650,101981
102637,101938
102635,101936
102536,101833
102546,101859
102566,101918
102572,101906
102415,101821
102266,101670
102205,101671
102144,101707
101935,101559
101776,101417
101480,101265
101376,101247
101286,101264
101102,101130
100897,101018
100702,100890
100581,100854
100537,100874
100423,100788
100245,100710
100023,100586
99993,100586
99960,100654
99824,100542
99722,100469
99575,100376
99490,100407
99532,100452
99445,100441
99336,100329
99247,100271
99227,100320
99285,100361
99261,100356
99192,100334
99117,100244
99174,100311
99236,100361
99272,100367
99220,100379
99146,100242
99271,100380
99361,100429
99349,100426
99328,100389
99334,100318
99365,100456
99468,100478
99455,100496
99468,100469
99411,100396
99496,100486
99573,100530
99636,100557
99586,100499
99532,100458
99620,100539
99667,100577
99700,100592
99692,100558
99639,100486
99711,100575
99777,100637
99819,100618
99795,100611
99704,100535
99801,100610
99853,100645
99825,100631
99834,100618
99758,100536
99791,100644
99882,100678
99832,100644
99824,100582
99721,100542
99814,100615
99852,100678
99828,100636
99779,100590
99669,100514
99747,100602
99793,100608
99764,100578
99707,100525
99587,100457
99707,100546
99744,100564
99640,100549
99625,100477
99558,100428
99591,100526
99641,100521
99631,100512
99592,100465
99515,100410
99576,100515
99645,100518
99668,100533
99597,100462
99558,100385
99687,100536
99715,100540
99714,100558
99684,100516
99667,100476
99782,100591
99823,100638
99830,100639
99807,100571
99812,100545
99906,100653
99985,100696
100019,100705
99990,100644
99978,100646
100108,100750
100163,100792
100218,100797
100198,100763
100194,100772
100289,100832
100388,100888
100413,100889
100396,100833
100379,100811
100494,100915
100596,101005
100572,100943
100583,100925
100572,100932
100693,100998
100779,101092
100793,101022
100797,101008
100751,100988
100901,101095
100945,101170
100993,101128
100938,101062
100944,101091
101016,101187
101097,101205
101114,101177
101078,101138
101069,101148
101147,101226
101217,101250
101241,101276
101200,101195
101161,101210
101292,101283
101395,101344
101351,101312
101350,101253
101348,101295
101466,101392
101538,101397
101550,101404
101497,101315
101519,101320
101557,101395
101646,101485
101591,101384
101538,101346
101521,101356
101583,101397
101634,101426
101555,101372
101476,101301
101401,101234
101409,101282
101368,101301
101203,101148
101046,101021
100904,100983
100852,100981
100716,100932
100556,100822
100354,100654
100221,100615
100166,100667
100054,100590
99901,100528
99706,100371
99597,100345
99563,100379
99496,100355
99341,100218
99216,100133
99105,100138
99123,100165
99104,100194
99009,100112
98870,100012
98846,100025
98902,100104
98879,100097
98881,100066
98778,99986
98783,100017
98865,100103
98940,100115
98925,100084
98889,100036
98923,100093
99034,100223
99112,100194
99117,100225
99110,100160
99175,100214
99334,100360
99417,100360
99420,100360
99398,100290
99506,100382
99617,100463
99722,100526
99710,100498
99703,100417
99814,100533
99936,100596
99981,100633
99975,100600
99939,100566
100032,100583
100159,100733
100182,100695
100146,100707
100159,100644
100209,100677
100318,100765
100348,100790
100323,100738
100320,100685
100305,100727
100423,100821
100445,100835
100405,100740
100363,100718
100344,100727
100436,100833
100409,100765
100400,100767
100271,100664
100296,100700
100367,100769
100334,100714
100284,100674
100228,100618
100196,100614
100242,100709
100257,100680
100192,100637
100076,100519
100131,100603
100163,100662
100181,100650
100112,100563
100001,100492
100036,100533
100086,100606
100073,100562
100022,100547
99931,100432
99990,100530
100070,100590
100040,100599
100008,100535
99978,100474
100064,100569
100116,100647
100161,100632
100124,100609
100048,100528
100168,100639
100261,100723
100279,100711
100273,100652
100249,100635
100291,100684
100416,100785
100452,100768
100439,100766
100371,100704
100503,100807
100620,100919
100657,100896
100683,100883
100626,100805
100707,100897
100848,100974
100881,101014
100889,100980
100855,100918
100953,101025
101067,101102
101066,101106
101048,101036
100979,100990
101104,101112
101188,101167
101241,101161
101198,101130
101178,101048
101258,101162
101395,101238
101396,101199
101417,101202
101375,101147
101464,101283
101588,101344
101616,101332
101606,101302
101578,101253
101764,101431
101836,101463
101884,101448
101889,101419
101851,101399
102009,101526
102102,101615
102123,101559
102139,101510
102090,101512
102242,101622
102365,101713
102380,101661
102382,101670
102351,101631
102502,101749
102631,101820
102627,101842
102635,101752
102601,101745
102673,101827
102641,101813
102588,101745
102420,101640
102263,101511
102124,101475
101987,101421
101706,101323
101487,101116
101169,100940
101114,100952
100993,100935
100759,100766
100574,100643
100410,100530
100353,100576
100259,100546
100119,100476
99965,100366
99812,100249
99794,100335
99731,100316
99647,100231
99509,100142
99409,100092
99386,100166
99437,100210
99365,100130
99275,100074
99183,100011
99243,100119
99294,100149
99266,100119
99182,100045
99141,100015
99213,100149
99251,100175
99298,100132
99219,100085
99210,100089
99298,100221
99354,100227
99362,100231
99314,100160
99346,100136
99438,100243
99526,100301
99512,100282
99493,100220
99490,100231
99612,100332
99700,100382
99713,100345
99661,100325
99689,100289
99787,100447
99898,100486
99883,100458
99848,100402
99895,100434
100024,100533
100105,100585
100133,100577
100134,100512
100147,100582
100277,100650
100347,100711
100391,100711
100332,100610
100381,100637
100471,100766
100566,100789
100514,100738
100453,100651
100439,100665
100495,100788
100521,100811
100484,100704
100415,100631
100342,100639
100452,100720
100408,100702
100367,100654
100272,100524
100187,100558
100289,100640
100246,100621
100223,100552
100140,100480
100092,100459
100178,100558
100141,100540
100119,100514
100023,100445
99982,100410
100070,100535
100085,100518
100023,100470
99950,100393
99963,100438
100019,100524
100065,100511
100019,100470
100010,100436
100009,100459
100073,100569
100140,100568
100119,100535
100072,100503
100135,100533
100224,100620
100253,100612
100273,100596
100231,100561
100250,100631
100384,100713
100441,100709
100429,100688
100421,100650
100488,100700
100609,100825
100642,100822
100660,100798
100628,100762
100722,100870
100895,100937
100947,100964
100945,100937
100946,100891
101009,100999
101163,101097
101240,101138
101271,101098
101221,101066
101342,101134
101448,101268
101513,101223
101532,101244
101512,101187
101582,101272
101722,101383
101787,101397
101791,101339
101781,101326
101862,101407
101990,101522
102081,101495
102079,101522
102117,101476
102209,101562
102375,101718
102409,101678
102467,101677
102427,101623
102571,101715
102691,101809
102782,101845
102748,101818
102714,101722
102792,101852
102852,101903
102879,101900
102783,101814
102679,101674
102647,101756
102616,101735
102488,101629
102295,101498
101995,101326
101797,101232
101667,101201
101385,101062
101169,100909
100922,100739
100772,100748
100715,100728
100588,100630
100419,100537
100198,100404
100194,100429
100186,100461
100054,100389
99979,100330
99788,100214
99809,100260
99836,100329
99759,100311
99672,100195
99600,100151
99599,100221
99632,100279
99652,100253
99602,100206
99489,100106
99571,100220
99663,100308
99614,100285
99610,100243
99553,100183
99639,100273
99783,100336
99773,100327
99801,100310
99731,100267
99843,100390
99949,100483
99997,100472
99965,100428
99939,100367
100075,100499
100163,100596
100190,100564
100220,100515
100199,100535
100292,100581
100433,100698
100426,100687
100464,100648
100428,100618
100564,100777
100675,100818
100705,100801
100724,100786
100721,100749
100831,100875
100987,100940
100969,100913
100943,100865
100949,100858
101009,100916
101161,101010
101100,100999
101090,100921
101034,100862
101073,100984
101150,100999
101135,100983
101004,100854
100929,100789
100971,100870
100966,100904
100878,100839
100769,100726
100702,100685
100672,100704
100707,100773
100607,100690
100527,100602
100444,100531
100476,100593
100467,100645
100378,100579
100313,100495
100219,100437
100268,100516
100296,100547
100300,100509
100193,100439
100162,100396
100218,100466
100272,100545
100244,100526
100219,100430
100205,100431
100325,100576
100355,100591
100405,100593
100328,100499
100340,100519
100454,100628
100502,100711
100521,100626
100505,100594
100476,100571
100559,100702
100614,100734
100602,100674
100525,100606
100541,100585
100615,100754
100662,100758
100659,100688
100640,100659
100604,100667
100738,100767
100811,100856
100788,100767
100769,100759
100785,100746
100938,100888
100982,100924
101027,100889
100986,100866
100999,100856
101116,100963
101184,101029
101193,100945
101174,100956
101159,100911
101310,101052
101376,101098
101386,101060
101340,101011
101365,101024
101512,101160
101603,101197
101621,101172
101580,101103
101691,101172
101818,101326
101945,101360
101976,101371
101989,101307
102009,101358
102235,101483
102336,101579
102357,101530
102350,101504
102376,101545
102547,101715
102644,101693
102675,101717
102587,101641
102662,101665
102781,101770
102852,101793
102802,101715
102781,101671
102686,101697
102752,101739
102750,101709
102603,101588
102454,101442
102266,101433
102188,101407
102007,101287
101725,101140
101410,100918
101221,100864
101090,100822
100988,100746
100777,100653
100597,100521
100480,100475
100512,100548
100359,100467
100251,100387
100099,100280
100008,100282
100066,100334
99999,100294
99883,100233
99789,100134
99716,100168
99824,100234
99763,100216
99743,100187
99609,100104
99568,100104
99680,100217
99679,100176
99653,100142
99595,100078
99603,100153
99749,100262
99731,100238
99727,100198
99681,100157
99722,100200
99878,100336
99864,100323
99871,100271
99817,100214
99870,100301
100038,100375
100025,100377
99995,100369
99956,100271
100052,100372
100168,100437
100192,100487
100230,100446
100155,100386
100250,100449
100377,100609
100436,100587
100423,100557
100400,100510
100535,100633
100605,100713
100679,100713
100683,100693
100638,100610
100707,100696
100816,100789
100846,100773
100833,100747
100756,100678
100814,100717
100898,100814
100897,100772
100835,100730
100713,100623
100735,100690
100821,100732
100737,100710
100661,100599
100528,100526
100521,100576
100582,100624
100488,100538
100445,100518
100296,100395
100298,100491
100350,100506
100264,100461
100218,100394
100107,100295
100131,100375
100182,100440
100164,100376
100072,100333
100029,100252
100082,100332
100090,100399
100090,100344
100046,100312
99961,100250
100025,100326
100119,100407
100126,100391
100117,100356
100059,100283
100154,100403
100229,100472
100261,100481
100255,100422
100194,100401
100285,100472
100382,100543
100435,100560
100442,100518
100337,100455
100475,100573
100593,100645
100594,100621
100540,100582
100517,100546
100618,100646
100694,100717
100683,100698
100682,100626
100615,100565
100710,100670
100820,100765
100779,100695
100762,100688
100723,100620
100828,100752
100903,100793
100911,100758
100905,100723
100849,100708
101003,100819
101052,100862
101119,100843
101067,100822
101035,100762
101211,100925
101309,100992
101316,100949
101357,100927
101286,100911
101460,101064
101536,101107
101491,101035
101491,101000
101461,100960
101561,101076
101632,101106
101581,101095
101564,101004
101548,101004
101588,101068
101672,101131
101641,101103
101574,101006
101609,101000
101644,101125
101722,101163
101725,101134
101720,101125
101667,101072
101800,101177
101883,101239
101843,101193
101816,101106
101781,101127
101811,101159
101844,101185
101663,101091
101527,100938
101354,100850
101238,100853
101139,100810
100954,100661
100736,100538
100508,100416
100452,100433
100384,100423
100173,100275
100027,100155
99862,100109
99819,100125
99770,100125
99610,100038
99422,99916
99314,99840
99347,99944
99313,99909
99200,99832
99109,99787
99053,99741
99111,99825
99137,99870
99109,99835
99012,99774
99037,99786
99130,99906
99229,99955
99209,99909
99187,99858
99225,99899
99315,100011
99413,100050
99429,100035
99426,99979
99407,99984
99553,100087
99603,100141
99614,100110
99573,100029
99550,100069
99715,100165
99781,100195
99739,100134
99681,100113
99674,100106
99839,100252
99892,100259
99869,100233
99821,100150
99847,100134
100011,100327
100066,100340
100017,100308
99981,100237
99998,100261
100139,100368
100179,100393
100173,100348
100144,100292
100124,100302
100234,100453
100280,100448
100219,100389
100157,100275
100181,100321
100269,100412
100325,100429
100246,100395
100139,100257
100153,100321
100219,100382
100212,100373
100179,100337
100049,100230
100087,100286
100112,100284
100127,100309
100062,100246
99954,100166
99944,100231
100031,100268
100013,100280
99950,100210
99863,100125
99861,100150
100004,100279
99977,100258
99956,100189
99897,100149
99886,100183
100003,100318
99991,100246
100001,100208
99909,100179
99942,100193
100052,100311
100059,100312
100034,100247
99983,100173
100024,100246
100166,100380
100144,100326
100162,100312
100100,100249
100159,100352
100334,100419
100325,100411
100314,100409
100246,100348
100346,100408
100474,100571
100482,100514
100527,100503
100483,100459
100562,100534
100662,100640
100702,100582
100654,100567
100632,100494
100682,100630
100833,100694
100810,100666
100841,100671
100765,100590
100891,100662
101015,100781
100996,100792
100997,100725
100987,100668
101074,100800
101176,100852
101169,100852
101202,100804
101156,100739
101260,100871
101320,100936
101387,100926
101365,100897
101289,100817
101405,100961
101519,101001
101544,100996
101491,100937
101461,100895
101543,101031
101678,101113
101683,101067
101675,101061
101595,100994
101719,101119
101845,101172
101821,101146
101806,101119
101733,101010
101871,101171
101917,101186
101850,101125
101734,101036
101624,100924
101589,101002
101511,100932
101324,100838
101155,100708
100869,100558
100783,100530
100713,100538
100558,100425
100391,100281
100163,100181
100112,100212
100083,100216
99972,100137
99781,100020
99650,99911
99606,99941
99622,100017
99533,99937
99409,99837
99313,99764
99357,99840
99344,99904
99312,99881
99217,99800
99184,99766
99239,99838
99305,99904
99268,99855
99204,99823
99176,99748
99281,99903
99338,99913
99343,99919
99301,99893
99270,99822
99408,99993
99486,99997
99454,99982
99430,99905
99389,99905
99512,99987
99595,100081
99620,100039
99568,99996
99556,100010
99655,100069
99768,100165
99780,100116
99744,100084
99745,100084
99901,100187
99978,100302
100038,100270
100047,100220
100061,100233
100202,100380
100320,100461
100360,100437
100342,100373
100366,100383
100540,100542
100623,100566
100613,100535
100573,100489
100594,100472
100680,100608
100739,100634
100704,100574
100640,100471
100636,100479
100697,100600
100748,100611
100677,100535
100628,100467
100564,100447
100607,100555
100675,100551
100618,100477
100513,100402
100483,100379
100589,100510
100606,100496
100540,100473
100510,100362
100425,100386
100507,100464
100553,100487
100553,100440
100467,100355
100441,100347
100539,100514
100583,100484
100587,100457
100478,100387
100472,100368
100618,100530
100645,100531
100584,100498
100602,100427
100589,100469
100708,100572
100775,100609
100770,100592
100744,100503
100773,100548
100884,100697
100994,100712
100994,100665
100990,100658
100988,100644
101153,100822
101210,100818
101231,100793
101223,100733
101214,100758
101379,100925
101428,100917
101417,100887
101355,100840
101398,100833
101565,100986
101599,100972
101612,100959
101583,100917
101609,100975
101699,101053
101799,101082
101768,101074
101755,100997
101748,101036
101920,101170
101948,101178
101918,101120
101885,101074
101941,101127
102079,101275
102094,101241
102065,101211
102015,101105
102019,101169
102161,101262
102138,101251
102133,101174
102031,101152
102067,101168
102191,101274
102185,101237
102114,101221
102060,101119
102112,101195
102208,101258
102223,101273
102206,101246
102130,101159
102163,101205
102317,101338
102281,101297
102285,101290
102218,101172
102253,101275
102349,101348
102330,101297
102233,101238
102083,101117
102033,101106
101997,101138
101866,101034
101646,100929
101362,100704
101225,100689
101134,100666
100902,100539
100774,100459
100514,100300
100408,100256
100421,100298
100263,100214
100044,100114
99908,99957
99844,100021
99832,100018
99719,99977
99649,99920
99514,99794
99483,99876
99510,99893
99470,99899
99371,99836
99279,99749
99313,99815
99365,99869
99282,99848
99296,99811
99201,99715
99299,99845
99334,99861
99338,99850
99335,99834
99259,99770
99352,99855
99428,99956
99427,99920
99468,99938
99386,99834
99511,99945
99600,100068
99624,100042
99672,100019
99584,99978
99741,100068
99863,100200
99914,100179
99954,100173
99890,100105
100091,100252
100202,100358
100253,100336
100290,100362
100301,100309
100455,100461
100604,100541
100668,100542
100693,100558
100661,100501
100844,100633
100925,100685
101002,100681
100957,100683
100896,100569
101020,100720
101061,100752
101107,100726
101025,100673
100990,100586
101061,100711
101090,100741
101042,100669
100986,100609
100863,100535
100922,100635
100968,100637
100871,100592
100831,100512
100692,100434
100755,100531
100770,100536
100728,100534
100652,100438
100567,100358
100662,100481
100693,100503
100689,100480
100642,100407
100565,100355
100673,100495
100756,100564
100752,100511
100685,100465
100669,100422
100813,100574
100918,100617
100882,100558
100874,100517
100825,100514
100934,100621
100972,100660
100988,100653
100933,100551
100893,100543
101000,100645
101018,100652
100988,100621
100934,100544
100918,100514
100970,100630
101046,100663
101008,100632
100948,100583
100930,100559
101032,100677
101064,100686
101045,100639
101011,100585
100982,100587
101139,100733
101215,100743
101168,100724
101172,100687
101186,100651
101310,100801
101398,100844
101404,100849
101399,100787
101423,100803
101550,100943
101651,100989
101693,100991
101748,100951
101693,100960
101882,101104
101991,101163
102011,101150
101996,101083
101992,101098
102163,101240
102257,101274
102237,101253
102200,101177
102198,101174
102354,101320
102370,101334
102364,101283
102315,101234
102322,101230
102435,101357
102444,101365
102454,101321
102361,101242
102337,101235
102469,101336
102489,101367
102494,101332
102428,101252
102367,101235
102547,101404
102562,101382
102510,101352
102454,101271
102468,101282
102569,101392
102567,101389
102531,101346
102470,101249
102365,101235
102464,101338
102400,101298
102255,101154
102030,101000
101871,100918
101779,100939
101567,100841
101342,100668
101070,100518
100874,100429
100827,100453
100698,100371
100515,100267
100278,100080
100147,100058
100143,100093
100079,100058
99873,100011
99709,99821
99654,99829
99669,99911
99586,99887
99492,99786
99426,99741
99393,99760
99466,99855
99457,99816
99431,99813
99375,99725
99364,99793
99505,99918
99512,99896
99549,99878
99539,99833
99570,99926
99755,100052
99791,100041
99860,100037
99830,100003
99947,100087
100161,100232
100195,100273
100222,100245
100239,100230
100329,100309
100504,100431
100507,100389
100532,100349
100469,100327
100523,100377
100642,100477
100667,100439
100660,100446
100562,100349
100659,100435
100789,100556
100785,100528
100814,100483
100718,100444
100798,100497
100979,100618
100973,100609
100943,100568
100871,100496
100927,100566
101091,100642
101048,100637
100983,100561
100940,100459
100944,100513
101021,100616
100955,100565
100922,100511
100797,100419
100795,100476
100900,100548
100801,100465
100716,100419
100571,100286
100619,100336
100626,100392
100575,100337
100485,100272
100360,100154
100353,100214
100423,100295
100359,100214
100285,100205
100202,100100
100196,100163
100301,100239
100265,100166
100206,100132
100161,100073
100183,100152
100293,100234
100312,100214
100234,100188
100182,100125
100290,100219
100384,100286
100415,100284
100365,100241
100326,100197
100447,100276
100547,100405
100555,100350
100548,100334
100486,100254
100582,100407
100723,100466
100722,100448
100737,100435
100640,100363
100792,100487
100905,100561
100899,100550
100918,100498
100875,100462
100994,100595
101096,100670
101115,100619
101082,100599
101042,100540
101139,100684
101278,100724
101227,100700
101220,100664
101170,100598
101271,100710
101355,100770
101382,100758
101319,100739
101291,100665
101418,100775
101467,100824
101473,100794
101456,100763
101381,100702
101500,100825
101562,100876
101556,100839
101510,100792
101466,100716
101562,100856
101645,100895
101602,100870
101592,100840
101564,100764
101662,100898
101775,100972
101736,100934
101741,100876
101721,100858
101861,100997
101904,101054
101946,101040
101938,100979
101856,100929
102025,101086
102051,101116
102019,101043
101963,100989
101838,100903
101877,100990
101834,100996
101665,100833
101486,100697
101235,100584
101133,100592
101007,100523
100786,100373
100572,100226
100343,100105
100289,100152
100193,100105
100019,99982
99834,99844
99646,99788
99644,99813
99532,99802
99430,99701
99257,99575
99166,99529
99123,99596
99114,99624
99024,99547
98893,99461
98818,99404
98870,99518
98883,99540
98820,99495
98777,99409
98700,99404
98813,99510
98809,99532
98834,99532
98767,99428
98768,99442
98879,99584
98892,99553
98956,99562
98879,99527
98903,99506
99028,99639
99117,99676
99109,99665
99142,99623
99114,99636
99259,99789
99375,99815
99357,99792
99372,99724
99377,99739
99523,99872
99613,99932
99584,99928
99547,99820
99565,99847
99736,100039
99789,99993
99759,99972
99719,99886
99704,99943
99857,100057
99823,100019
99810,99956
99731,99911
99727,99916
99788,100009
99811,99995
99738,99934
99659,99844
99643,99866
99717,99956
99714,99940
99656,99893
99569,99803
99593,99828
99667,99924
99638,99887
99610,99868
99525,99786
99532,99795
99598,99894
99584,99864
99544,99809
99425,99697
99423,99772
99516,99854
99502,99807
99435,99760
99376,99693
99392,99715
99463,99808
99445,99790
99446,99766
99370,99709
99402,99768
99551,99859
99553,99840
99558,99815
99490,99755
99538,99834
99684,99931
99679,99907
99666,99896
99621,99823
99692,99902
99803,100013
99805,99981
99813,99953
99790,99882
99808,99968
99957,100090
99964,100045
99964,100023
99934,99981
100021,100036
100111,100165
100155,100171
100193,100133
100118,100074
100223,100154
100358,100264
100355,100257
100373,100252
100329,100153
100383,100235
100540,100344
100560,100327
100546,100296
100523,100266
100599,100310
100720,100442
100742,100442
100758,100399
100674,100325
100787,100427
100922,100511
100925,100507
100960,100487
100931,100420
100967,100488
101111,100607
101139,100562
101121,100553
101048,100461
101157,100575
101256,100666
101273,100655
101271,100616
101224,100556
101345,100667
101442,100734
101453,100726
101460,100712
101430,100658
101535,100747
101651,100836
101625,100819
101680,100780
101591,100706
101660,100825
101779,100912
101721,100833
101648,100794
101475,100659
101446,100680
101401,100670
101216,100582
100971,100376
100748,100224
100601,100254
100530,100238
100343,100068
100209,99981
99925,99827
99900,99889
99842,99871
99698,99755
99590,99662
99383,99581
99343,99615
99332,99634
99233,99548
99104,99452
98957,99385
98964,99472
99035,99477
98940,99444
98883,99392
98727,99252
98797,99357
98852,99452
98785,99416
98733,99378
98650,99287
98761,99423
98859,99485
98862,99450
98790,99393
98785,99357
98908,99498
99003,99570
99012,99546
99008,99503
98984,99488
99121,99599
99252,99700
99246,99655
99223,99627
99235,99629
99353,99738
99482,99781
99458,99778
99497,99712
99465,99693
99615,99844
99664,99876
99670,99875
99673,99806
99623,99805
99774,99920
99867,99957
99831,99943
99778,99851
99751,99827
99820,99944
99874,99984
99863,99899
99825,99855
99707,99766
99793,99903
99832,99905
99805,99873
99653,99779
99635,99738
99662,99829
99683,99851
99612,99779
99505,99685
99468,99651
99473,99709
99495,99743
99375,99668
99309,99595
99183,99496
99230,99607
99256,99618
99169,99568
99060,99452
99008,99452
99037,99511
99059,99554
99020,99476
98991,99417
98893,99376
98951,99494
99005,99536
98927,99455
98896,99352
98830,99374
98918,99484
98931,99447
98934,99433
98837,99390
98806,99363
98882,99460
98923,99479
98918,99437
98836,99354
98863,99373
98945,99474
98997,99505
99018,99480
98932,99444
98989,99444
99095,99579
99176,99599
99168,99595
99135,99534
99164,99536
99278,99673
99376,99725
99356,99690
99385,99626
99388,99680
99567,99794
99635,99835
99660,99827
99626,99740
99669,99825
99844,99947
99942,99994
99976,99979
99967,99925
100062,100026
100218,100148
100361,100200
100373,100183
100388,100106
100438,100202
100630,100330
100712,100353
100736,100321
100697,100273
100745,100325
100862,100447
100912,100412
100928,100397
100858,100323
100862,100343
100989,100482
101034,100452
100968,100450
100901,100306
100961,100401
101030,100480
101071,100483
101081,100462
100992,100357
101014,100425
101181,100566
101140,100489
101119,100463
101041,100360
100997,100407
101016,100429
100919,100321
100774,100228
100496,100069
100355,99985
100310,100040
100107,99904
99942,99791
99702,99630
99562,99641
99533,99645
99397,99577
99249,99491
99049,99315
98997,99336
98929,99386
98839,99272
98720,99208
98506,99107
98499,99116
98504,99179
98453,99109
98333,99068
98167,98911
98169,99014
98215,99047
98145,99052
98079,98973
98000,98847
98006,98954
98094,99046
98053,99002
98034,98964
97976,98895
98002,98964
98117,99072
98134,99046
98125,99023
98058,98974
98139,99059
98248,99102
98263,99112
98239,99122
98221,99028
98301,99119
98436,99210
98391,99176
98402,99149
98331,99094
98444,99184
98527,99264
98560,99239
98593,99277
98488,99121
98595,99276
98744,99335
98767,99340
98755,99362
98672,99218
98804,99379
98933,99458
98942,99427
98922,99432
98841,99301
98939,99419
99007,99486
99010,99463
98957,99421
98876,99323
98923,99411
98985,99494
98975,99416
98912,99379
98810,99270
98872,99339
98946,99428
98861,99370
98859,99321
98732,99241
98769,99330
98824,99369
98791,99340
98763,99268
98627,99162
98709,99282
98778,99343
98726,99283
98712,99266
98605,99192
98680,99277
98744,99320
98701,99254
98670,99206
98619,99180
98686,99282
98768,99327
98706,99270
98681,99249
98611,99178
98690,99292
98796,99344
98754,99325
98693,99254
98653,99172
98731,99305
98790,99366
98818,99322
98764,99299
98673,99228
98831,99364
98899,99416
98871,99348
98850,99304
98791,99277
98910,99405
98966,99441
98959,99402
98930,99348
98881,99309
98984,99428
99072,99483
99034,99444
99029,99397
98998,99365
99049,99446
99149,99525
99132,99468
99105,99413
99005,99389
99129,99502
99211,99554
99177,99499
99130,99444
99111,99449
99238,99529
99257,99585
99283,99548
99242,99511
99233,99484
99348,99613
99409,99638
99425,99634
99429,99575
99381,99552
99558,99713
99570,99689
99572,99709
99561,99631
99518,99617
99655,99754
99666,99748
99663,99709
99580,99662
99554,99601
99649,99726
99667,99758
99621,99694
99524,99574
99449,99548
99508,99611
99456,99660
99382,99534
99209,99426
99084,99391
99080,99416
98970,99355
98867,99267
98664,99166
98538,99088
98495,99116
98439,99102
98281,98987
98090,98888
97940,98800
97985,98916
97933,98849
97763,98777
97653,98638
97539,98665
97541,98718
97566,98712
97466,98631
97335,98540
97292,98564
97368,98654
97386,98626
97313,98608
97199,98505
97187,98524
97250,98615
97296,98609
97208,98551
97165,98494
97190,98502
97252,98631
97280,98612
97244,98584
97192,98505
97233,98535
97322,98683
97377,98630
97345,98607
97279,98551
97304,98568
97434,98692
97426,98704
97439,98672
97376,98580
97387,98633
97516,98737
97561,98761
97553,98727
97561,98692
97580,98739
97677,98865
97754,98837
97753,98850
97728,98799
97775,98819
97917,98921
97942,98938
97970,98922
97854,98827
97954,98894
98058,99026
98053,98955
98064,98948
98009,98876
98029,98929
98129,99054
98163,98984
98111,98959
98053,98869
98116,98935
98186,99030
98154,99015
98108,98971
98061,98893
98051,98914
98105,99043
98140,98962
98061,98930
97964,98811
97978,98888
98043,98992
98066,98925
98012,98912
97897,98785
97951,98863
98044,98979
98036,98908
97973,98888
97930,98814
97992,98874
98121,98996
98121,98989
98129,98961
98061,98877
98127,98983
98262,99042
98282,99073
98252,99024
98192,98932
98306,99047
98397,99155
98397,99100
98436,99085
98333,99009
98431,99110
98594,99235
98573,99195
98620,99230
98552,99145
98699,99246
98821,99353
98825,99321
98877,99324
98803,99260
98931,99351
99056,99437
99035,99422
99038,99399
98963,99332
99060,99409
99216,99521
99170,99476
99165,99420
99136,99405
99252,99506
99304,99606
99340,99556
99354,99539
99317,99445
99430,99581
99554,99686
99540,99609
99596,99637
99507,99577
99626,99692
99734,99752
99812,99754
99803,99728
99710,99666
99855,99772
99952,99846
99926,99826
99937,99773
99871,99716
99997,99808
100125,99947
100084,99866
100121,99872
100014,99816
100174,99919
100279,99986
100261,99955
100236,99931
100171,99858
100296,100015
100351,100028
100337,100014
100246,99908
100105,99814
100132,99861
100092,99857
99942,99782
99708,99618
99483,99449
99471,99528
99332,99503
99177,99346
98994,99219
98759,99131
98712,99124
98642,99129
98468,99025
98277,98907
98137,98798
98111,98856
98060,98857
97878,98778
97797,98666
97652,98585
97652,98714
97605,98693
97539,98654
97399,98559
97335,98531
97396,98608
97391,98607
97383,98595
97310,98513
97233,98504
97334,98595
97372,98660
97418,98640
97371,98579
97363,98564
97476,98691
97593,98737
97595,98703
97582,98683
97587,98710
97726,98803
97865,98885
97901,98849
97889,98826
97851,98839
98042,98967
98208,99029
98165,98995
98197,98976
98176,98995
98351,99099
98476,99182
98463,99128
98496,99101
98487,99123
98620,99240
98737,99292
98735,99289
98716,99221
98728,99200
98905,99372
98954,99361
98911,99375
98847,99277
98876,99314
98998,99416
99015,99434
99003,99364
98928,99294
98864,99255
99013,99375
98994,99373
98990,99366
98900,99239
98812,99262
98949,99371
99012,99368
98914,99304
98845,99216
98798,99227
98926,99311
98921,99343
98850,99266
98775,99190
98727,99205
98864,99328
98845,99267
98823,99267
98756,99166
98722,99163
98899,99328
98861,99244
98840,99264
98788,99182
98721,99201
98920,99342
98903,99322
98880,99301
98804,99205
98821,99225
98940,99355
98978,99370
98926,99305
98878,99206
98901,99318
99013,99420
99031,99382
99044,99384
98948,99291
98998,99378
99126,99472
99191,99444
99114,99401
99071,99313
99108,99421
99242,99493
99258,99470
99194,99426
99163,99360
99209,99417
99319,99540
99287,99478
99284,99489
99209,99399
99254,99461
99412,99568
99461,99591
99469,99566
99429,99522
99550,99614
99690,99752
99688,99711
99756,99739
99681,99652
99793,99761
99950,99862
100044,99866
100012,99818
99998,99791
100027,99857
100196,99952
100201,99970
100203,99914
100098,99838
100158,99894
100290,99991
100247,99974
100203,99935
100126,99815
100166,99882
100253,99981
100281,99928
100207,99895
100138,99814
100211,99888
100282,99963
100299,99945
100265,99905
100150,99802
100208,99895
100317,99987
100309,99968
100268,99920
100127,99807
100200,99890
100298,99964
100266,99948
100223,99883
100109,99778
100167,99873
100231,99956
100214,99899
100191,99841
100018,99762
100055,99831
100113,99848
99997,99805
99864,99691
99672,99547
99578,99551
99548,99549
99338,99415
99121,99339
98876,99169
98819,99152
98737,99168
98514,99032
98305,98884
98058,98735
97970,98767
97872,98809
97702,98652
97504,98511
97323,98471
97259,98455
97171,98481
97114,98430
96973,98337
96830,98243
96835,98348
96836,98354
96825,98338
96773,98273
96666,98214
96773,98330
96839,98393
96805,98330
96793,98308
96784,98283
96870,98400
96985,98488
97010,98436
97046,98438
97003,98404
97179,98549
97279,98641
97328,98597
97319,98593
97303,98564
97417,98677
97573,98735
97563,98772
97570,98696
97526,98673
97686,98765
97798,98846
97800,98853
97798,98804
97794,98790
97926,98877
98064,98971
98072,98972
98073,98924
98081,98903
98205,99039
98333,99103
98368,99129
98372,99069
98366,99007
98485,99162
98568,99193
98548,99191
98515,99133
98495,99061
98578,99196
98641,99255
98596,99161
98519,99084
98489,99053
98543,99140
98576,99197
98531,99103
98467,99070
98381,99015
98507,99105
98536,99168
98465,99072
98420,99018
98383,99019
98463,99096
98521,99117
98504,99122
98437,99019
98361,98995
98466,99108
98523,99103
98469,99096
98380,99025
98356,98988
98466,99099
98509,99109
98458,99088
98363,98982
98318,98973
98437,99050
98478,99117
98411,99079
98343,98997
98333,98986
98466,99088
98515,99144
98497,99075
98451,98997
98464,99015
98642,99183
98665,99238
98659,99175
98623,99121
98644,99160
98784,99307
98855,99307
98880,99302
98840,99229
98859,99249
99032,99409
99128,99426
99136,99452
99107,99388
99167,99410
99324,99583
99437,99599
99468,99561
99462,99532
99491,99560
99622,99690
99723,99699
99752,99718
99711,99644
99762,99676
99941,99810
99950,99853
99968,99774
99901,99696
99940,99755
100029,99873
100059,99835
100006,99837
99983,99759
99985,99775
100125,99895
100156,99905
100115,99842
100070,99769
100091,99826
100239,99933
100255,99943
100281,99890
100185,99830
100212,99857
100413,100013
100412,100011
100415,99955
100352,99908
100358,99944
100566,100057
100527,100058
100477,99998
100431,99925
100439,100000
100486,100065
100464,99989
100386,99980
100237,99852
100200,99838
100239,99903
100104,99754
99908,99711
99671,99514
99547,99477
99507,99537
99320,99419
99134,99254
98891,99118
98775,99097
98733,99109
98555,99043
98381,98912
98150,98754
98051,98793
98026,98799
97885,98710
97788,98672
97593,98504
97512,98551
97532,98580
97441,98564
97378,98478
97196,98365
97199,98448
97243,98507
97209,98476
97121,98398
97057,98327
97101,98441
97186,98517
97175,98445
97162,98462
97121,98364
97204,98483
97334,98589
97363,98576
97366,98583
97354,98526
97480,98630
97607,98753
97645,98711
97690,98726
97657,98663
97748,98765
97928,98888
97943,98878
97990,98849
97920,98793
98010,98892
98165,98973
98167,98958
98149,98929
98154,98859
98230,99006
98333,99086
98353,99025
98340,99031
98280,98928
98394,99057
98481,99160
98467,99068
98452,99071
98337,98947
98436,99055
98522,99106
98455,99091
98407,98995
98375,98971
98419,99017
98496,99079
98449,99048
98441,98987
98263,98902
98375,99016
98438,99044
98333,99021
98277,98946
98154,98845
98220,98927
98246,98958
98201,98920
98131,98838
98004,98764
98078,98870
98096,98889
98056,98810
97969,98795
97860,98692
97907,98782
97935,98789
97924,98770
97848,98680
97745,98644
97858,98759
97899,98818
97836,98749
97817,98724
97764,98668
97873,98783
97962,98836
97927,98823
97913,98780
97864,98717
97985,98883
98076,98912
98071,98872
98056,98828
98039,98827
98172,98909
98299,99014
98245,98986
98267,98943
98231,98893
98367,99071
98430,99110
98468,99035
98462,99046
98387,99024
98527,99120
98636,99155
98665,99183
98639,99097
98612,99101
98770,99230
98826,99251
98848,99234
98797,99214
98752,99128
98932,99311
98991,99322
99012,99335
98991,99240
98936,99238
99101,99394
99146,99421
99131,99325
99082,99284
99036,99258
99140,99394
99170,99424
99114,99350
99052,99244
98984,99245
99102,99391
99091,99364
99082,99308
99007,99232
98969,99232
99097,99371
99087,99338
99147,99352
99073,99276
99076,99272
99204,99395
99262,99435
99230,99399
99190,99344
99195,99328
99327,99503
99368,99482
99352,99436
99270,99388
99229,99336
99290,99480
99275,99417
99177,99334
99007,99198
98932,99167
98887,99246
98761,99123
98627,99042
98403,98889
98238,98838
98183,98847
98032,98766
97843,98671
97661,98519
97424,98444
97365,98475
97231,98408
97037,98286
96838,98163
96700,98137
96690,98172
96562,98111
96455,98057
96309,97926
96185,97944
96222,97992
96208,97988
96105,97936
96017,97837
95997,97858
96110,97960
96116,97983
96095,97919
96026,97862
96074,97918
96189,98035
96252,98026
96218,98027
96203,97972
96227,98014
96429,98153
96463,98138
96478,98137
96449,98058
96525,98176
96686,98263
96707,98256
96719,98269
96685,98174
96725,98238
96895,98390
96930,98353
96932,98365
96867,98278
96961,98344
97087,98461
97121,98462
97111,98430
97063,98346
97116,98427
97254,98525
97273,98521
97295,98481
97236,98450
97299,98506
97377,98569
97398,98560
97397,98545
97282,98448
97328,98525
97452,98599
97448,98568
97393,98498
97330,98435
97364,98510
97414,98573
97388,98514
97352,98528
97260,98405
97316,98477
97400,98546
97317,98523
97281,98435
97221,98356
97196,98438
97269,98490
97259,98446
97211,98417
97106,98324
97201,98450
97209,98486
97251,98465
97186,98427
97151,98352
97170,98419
97313,98521
97267,98502
97265,98433
97220,98378
97315,98488
97441,98594
97419,98556
97430,98550
97370,98468
97483,98572
97571,98687
97595,98625
97638,98650
97564,98548
97691,98706
97810,98788
97818,98723
97858,98754
97819,98671
97925,98817
98065,98895
98099,98876
98135,98850
98060,98820
98256,98935
98372,99066
98379,99039
98437,99014
98398,98964
98576,99121
98702,99185
98782,99195
98772,99162
98761,99162
98848,99253
98998,99342
99069,99338
99047,99279
99001,99291
99162,99386
99292,99451
99313,99460
99280,99425
99243,99362
99405,99506
99522,99586
99534,99546
99528,99534
99471,99474
99622,99598
99730,99656
99759,99676
99706,99569
99678,99561
99775,99716
99899,99698
99875,99669
99813,99623
99777,99589
99854,99725
99970,99733
99922,99735
99875,99643
99820,99615
99933,99706
100000,99774
99944,99738
99934,99671
99887,99615
99981,99775
100047,99835
100082,99770
100017,99720
99975,99675
100044,99780
100071,99818
100070,99764
99897,99635
99769,99533
99789,99629
99662,99551
99508,99431
99283,99305
99047,99135
99010,99220
98882,99147
98700,99026
