11111,11111
0,0
82455,81852
136080,104655
140458,104662
140452,104670
140447,104640
140485,104652
140478,104665
140482,104603
140484,104641
140422,104629
140507,104649
140523,104665
140489,104621
140499,104639
140472,104617
140517,104655
140583,104659
140518,104652
140529,104663
140545,104645
140594,104697
140605,104667
140623,104650
140615,104681
140582,104693
140653,104713
140636,104678
140681,104687
140679,104710
140662,104703
140720,104700
140757,104682
140729,104743
140780,104702
140733,104745
140793,104713
140844,104745
140805,104718
140800,104738
140817,104755
140826,104743
140869,104720
140863,104767
140810,104719
140808,104741
140806,104707
140898,104725
140829,104753
140817,104716
140801,104735
140810,104741
140823,104704
140821,104699
140809,104725
140796,104718
140840,104721
140852,104704
140780,104719
140737,104712
140773,104682
140799,104687
140791,104718
140798,104694
140756,104705
140780,104686
140851,104676
140834,104662
140780,104693
140817,104692
140764,104730
140810,104676
140861,104711
140812,104702
140811,104689
140839,104702
140850,104715
140904,104722
140866,104754
140844,104699
140847,104685
140913,104703
140901,104770
140869,104709
140857,104703
140896,104713
140936,104720
140929,104714
140947,104764
140906,104729
140930,104737
140983,104744
140964,104746
140983,104742
140928,104734
140924,104708
140987,104727
140999,104759
141000,104734
140970,104717
140987,104769
141004,104738
141008,104742
141002,104732
141001,104752
141065,104781
141066,104793
141031,104736
141068,104785
141054,104750
141032,104806
141111,104774
141069,104772
141086,104768
141090,104789
141076,104766
141145,104758
141127,104804
141112,104750
141080,104748
141135,104782
141166,104800
141134,104760
141131,104777
141124,104768
140659,104594
140391,104475
140414,104469
140670,104543
140676,104553
140668,104561
140766,104570
140775,104543
140773,104558
140704,104539
140732,104551
140736,104568
140779,104560
140820,104572
140786,104566
140799,104562
140799,104591
140797,104530
140865,104576
140820,104573
140825,104584
140795,104568
140829,104593
140892,104580
140877,104600
140868,104580
140827,104580
140887,104601
140942,104603
140906,104616
140932,104607
140931,104639
140949,104594
140975,104589
141024,104652
141002,104611
140973,104636
141001,104611
141035,104616
141033,104659
141055,104622
141012,104615
141084,104641
141098,104648
141057,104649
141066,104647
141091,104618
141117,104670
141118,104646
141107,104642
141113,104652
141120,104659
141139,104671
141166,104647
141181,104685
141158,104660
141122,104678
141183,104666
141215,104673
141189,104701
141203,104687
141182,104679
141240,104666
141234,104718
141267,104671
141283,104698
141243,104709
141256,104698
141279,104678
141302,104713
141270,104704
141250,104678
141315,104699
141317,104696
141346,104744
141282,104722
141293,104706
141332,104694
141295,104696
141307,104676
141272,104674
141190,104674
141220,104636
141187,104620
141113,104601
141038,104576
140967,104564
140910,104524
140858,104480
140852,104522
140720,104455
140680,104480
140674,104420
140652,104402
140564,104404
140557,104383
140503,104380
140545,104371
140516,104386
140479,104336
140462,104346
140433,104392
140490,104375
140471,104383
140439,104314
140432,104349
140447,104346
140492,104365
140507,104365
140471,104344
140472,104377
140498,104369
140535,104396
140529,104393
140527,104377
140517,104379
140536,104386
140573,104392
140570,104425
140587,104394
140586,104385
140580,104399
140651,104378
140638,104420
140650,104402
140625,104419
140660,104406
140672,104437
140689,104401
140682,104463
140668,104414
140684,104424
140737,104439
140775,104487
140753,104435
140748,104475
140794,104469
140850,104478
140835,104483
140829,104492
140838,104496
140873,104503
140930,104531
140880,104540
140893,104490
140884,104496
140896,104484
140970,104504
140896,104441
140906,104482
140889,104452
140826,104454
140931,104487
140921,104473
140921,104459
140955,104458
140912,104489
140913,104461
140961,104483
140974,104461
140962,104497
140931,104506
140966,104473
141012,104485
140974,104468
140996,104499
140969,104515
141028,104490
141067,104510
141045,104483
141042,104515
141009,104507
141083,104520
141102,104538
141115,104506
141071,104518
141125,104537
141146,104546
141148,104558
141130,104534
141115,104534
141105,104513
141192,104531
141201,104570
141153,104523
141147,104554
141183,104535
141242,104554
141261,104590
141229,104521
141207,104553
141231,104550
141227,104558
141298,104549
141251,104583
141206,104562
141237,104585
141297,104553
141273,104590
141309,104560
141276,104537
141241,104594
141309,104585
141365,104583
141373,104611
141337,104613
141302,104578
141393,104597
141415,104632
141389,104575
141341,104626
141337,104562
141424,104607
141413,104598
141410,104618
141359,104587
141420,104607
141456,104613
141396,104576
141398,104587
141290,104575
141267,104562
141242,104522
141251,104506
141140,104495
141089,104445
141018,104456
140995,104406
140910,104377
140857,104394
140748,104317
140752,104309
140742,104334
140685,104295
140620,104249
140608,104262
140567,104245
140616,104255
140541,104258
140527,104233
140502,104246
140531,104257
140508,104251
140484,104226
140552,104236
140471,104209
140524,104238
140558,104234
140562,104273
140519,104226
140507,104231
140526,104243
140569,104265
140593,104254
140597,104271
140516,104233
140646,104276
140653,104299
140608,104265
140633,104300
140596,104287
140685,104309
140743,104324
140726,104297
140709,104299
140699,104332
140741,104301
140793,104329
140767,104358
140802,104365
140775,104348
140871,104393
140888,104405
140865,104349
140930,104420
140912,104384
140962,104399
140992,104430
140982,104402
141014,104431
140973,104435
141011,104413
141057,104434
141050,104418
141068,104416
141053,104456
141063,104413
141091,104450
141045,104432
141073,104460
141016,104448
141131,104423
141100,104453
141078,104451
141046,104450
141039,104406
141075,104446
141048,104424
141070,104394
141015,104379
141034,104443
141046,104410
141096,104417
141029,104438
141004,104384
141014,104422
141064,104403
141074,104410
141052,104405
141025,104435
141010,104388
141105,104404
141058,104422
141069,104401
141062,104401
141033,104429
141087,104399
141108,104405
141106,104426
141090,104424
141079,104410
141122,104437
141169,104420
141145,104426
141158,104426
141145,104447
141199,104468
141226,104447
141180,104466
141143,104453
141214,104473
141234,104460
141232,104462
141233,104447
141229,104458
141256,104479
141262,104461
141284,104486
141316,104488
141246,104476
141305,104478
141351,104522
141352,104485
141371,104516
141326,104509
141359,104497
141422,104527
141460,104502
141432,104529
141418,104520
141454,104531
141503,104548
141495,104547
141486,104553
141491,104565
141501,104571
141572,104594
141567,104555
141565,104558
141529,104598
141550,104552
141613,104571
141633,104572
141641,104619
141578,104589
141636,104581
141694,104603
141661,104604
141681,104578
141677,104601
141703,104618
141733,104609
141755,104618
141703,104615
141718,104594
141745,104660
141782,104609
141769,104637
141734,104649
141713,104597
141681,104628
141651,104582
141615,104527
141522,104531
141413,104502
141345,104444
141303,104428
141232,104399
141112,104347
141055,104321
141002,104348
140930,104313
140906,104274
140859,104248
140793,104240
140799,104263
140764,104244
140717,104237
140714,104197
140698,104241
140707,104197
140725,104227
140703,104189
140704,104208
140628,104194
140715,104193
140732,104217
140682,104240
140664,104204
140714,104195
140730,104247
140762,104235
140779,104245
140753,104257
140719,104221
140792,104237
140820,104221
140786,104251
140791,104256
140821,104222
140833,104303
140877,104274
140916,104275
140890,104305
141092,104334
141105,104376
141130,104354
141170,104382
141155,104347
141173,104359
141201,104407
141246,104382
141216,104401
141206,104400
141265,104377
141300,104411
141269,104392
141268,104395
141260,104398
141222,104394
141272,104416
141246,104404
141248,104383
141229,104379
141220,104380
141248,104384
141201,104393
141224,104374
141198,104379
141142,104337
141231,104372
141197,104351
141167,104344
141130,104341
141145,104326
141184,104363
141174,104343
141147,104360
141127,104326
141175,104333
141184,104364
141171,104325
141174,104346
141120,104335
141193,104348
141219,104356
141226,104348
141209,104351
141181,104340
141227,104349
141291,104358
141253,104384
141238,104331
141258,104362
141253,104375
141320,104373
141344,104429
141293,104359
141301,104376
141299,104395
141319,104400
141336,104375
141342,104406
141294,104392
141352,104387
141402,104416
141400,104416
141364,104418
141341,104407
141434,104427
141441,104438
141426,104392
141451,104449
141380,104412
141500,104440
141454,104441
141505,104410
141485,104444
141492,104461
141501,104429
141530,104461
141568,104476
141527,104447
141507,104446
141583,104485
141613,104489
141603,104455
141614,104466
141580,104509
141590,104468
141638,104465
141619,104493
141614,104472
141614,104451
141646,104514
141682,104472
141660,104491
141621,104496
141648,104492
141654,104503
141669,104474
141708,104480
141684,104504
141680,104481
141678,104476
141707,104486
141729,104515
141708,104479
141671,104497
141735,104508
141688,104494
141673,104453
141657,104470
141599,104434
141621,104439
141525,104390
141520,104402
141386,104388
141297,104332
141266,104312
141159,104285
141099,104227
141012,104220
140910,104203
140920,104168
140835,104123
140772,104142
140712,104091
140632,104104
140646,104065
140606,104059
140554,104024
140459,104033
140461,104026
140453,104036
140436,104001
140440,104029
140405,104028
140361,104005
140426,103988
140397,104018
140328,103982
140372,104003
140383,103972
140368,104008
140370,104017
140364,104006
140362,103967
140405,103993
140388,104007
140401,104022
140421,103980
140419,104007
140378,104003
140480,104004
140490,104049
140435,104015
140460,104008
140435,104056
140519,103999
140523,104041
140503,104066
140493,104018
140492,104052
140537,104046
140536,104019
140557,104061
140570,104059
140592,104105
140593,104083
140632,104078
140626,104071
140618,104093
140676,104099
140719,104082
140682,104133
140711,104078
140685,104092
140702,104094
140765,104113
140744,104122
140743,104113
140707,104138
140698,104092
140752,104119
140746,104115
140729,104117
140667,104092
140738,104086
140754,104121
140696,104070
140743,104084
140666,104051
140666,104091
140701,104048
140650,104083
140647,104093
140616,104041
140663,104066
140680,104090
140615,104062
140637,104032
140610,104062
140671,104040
140624,104069
140607,104028
140613,104051
140559,104040
140626,104033
140646,104021
140621,104055
140596,104022
140592,104028
140610,104062
140639,104035
140614,104058
140620,104038
140587,104013
140651,104089
140637,104033
140637,104033
140685,104064
140610,104051
140667,104065
140687,104066
140648,104059
140659,104055
140601,104023
140706,104085
140709,104034
140697,104079
140690,104047
140658,104077
140714,104041
140730,104058
140741,104071
140700,104079
140696,104046
140746,104102
140782,104095
140770,104059
140769,104084
140749,104103
140765,104057
140900,104146
140885,104115
140907,104135
140922,104132
140984,104154
140932,104137
140955,104122
140968,104149
140997,104146
141002,104172
140998,104122
140974,104134
140970,104153
141044,104156
141007,104127
140998,104124
140942,104104
140911,104120
140919,104092
140844,104080
140779,104045
140709,104009
140590,103971
140606,103981
140548,103954
140404,103928
140336,103896
140280,103881
140256,103845
140207,103807
140101,103779
140058,103780
140015,103735
139995,103742
139895,103726
139928,103723
139837,103710
139827,103735
139823,103691
139804,103659
139766,103698
139724,103656
139693,103677
139723,103642
139729,103665
139671,103646
139660,103668
139691,103640
139755,103672
139709,103676
139701,103664
139684,103656
139689,103635
139768,103639
139746,103676
139725,103645
139705,103667
139685,103685
139735,103654
139791,103654
139729,103697
139735,103669
139760,103692
139801,103688
139840,103663
139813,103700
139809,103687
139827,103712
139904,103739
139864,103716
139916,103704
139868,103702
139968,103732
139959,103736
140012,103757
139958,103773
139973,103730
140033,103758
140060,103782
140035,103763
140050,103736
140022,103768
140061,103794
140088,103753
140133,103778
140081,103777
140081,103760
140086,103791
140111,103755
140109,103820
140062,103746
140069,103759
140128,103763
140097,103789
140057,103768
140089,103745
140046,103752
140055,103758
140053,103744
140033,103720
140015,103771
139995,103719
140031,103707
140061,103740
140000,103723
140037,103727
139970,103729
140011,103744
140018,103727
140015,103732
140038,103761
139999,103733
140036,103716
140046,103729
140039,103688
140024,103731
139995,103709
140047,103752
140052,103705
140094,103720
140052,103781
140054,103728
140108,103742
140083,103752
140104,103723
140106,103739
140059,103724
140108,103734
140140,103746
140149,103741
140148,103756
140092,103724
140177,103755
140172,103738
140206,103792
140165,103795
140142,103754
140248,103780
140248,103799
140245,103764
140203,103781
140197,103783
140246,103787
140262,103784
140323,103788
140238,103812
140284,103809
140334,103792
140336,103795
140356,103831
140304,103782
140341,103847
140347,103819
140405,103847
140387,103808
140394,103863
140387,103859
140470,103837
140449,103860
140399,103858
140420,103857
140457,103832
140517,103898
140448,103882
140489,103864
140492,103886
140481,103897
140559,103888
140564,103926
140528,103877
140512,103882
140541,103875
140603,103915
140568,103907
140593,103875
140544,103919
140523,103889
140582,103873
140545,103876
140463,103814
140393,103816
140326,103792
140346,103770
140248,103777
140148,103683
140078,103690
139994,103662
139951,103647
139863,103610
139802,103560
139725,103573
139644,103524
139676,103531
139577,103479
139542,103504
139431,103467
139428,103425
139446,103436
139365,103438
139326,103382
139252,103402
139282,103423
139260,103384
139242,103387
139258,103391
139206,103398
139192,103394
139259,103385
139236,103394
139169,103367
139182,103372
139233,103383
139229,103414
139218,103384
139223,103407
139184,103392
139238,103391
139284,103405
139247,103404
139268,103409
139225,103404
139288,103392
139329,103445
139326,103433
139349,103448
139294,103426
139366,103417
139427,103463
139397,103432
139387,103467
139400,103461
139468,103463
139514,103486
139526,103518
139508,103491
139522,103484
139572,103541
139592,103494
139604,103537
139575,103519
139598,103528
139632,103517
139667,103516
139690,103520
139654,103545
139627,103522
139662,103520
139670,103534
139678,103552
139656,103519
139622,103497
139694,103561
139686,103515
139637,103542
139634,103501
139598,103487
139645,103530
139630,103513
139620,103489
139575,103484
139602,103473
139599,103511
139579,103486
139594,103508
139574,103498
139543,103500
139608,103506
139569,103503
139553,103455
139580,103484
139558,103478
139589,103467
139577,103468
139623,103480
139556,103506
139531,103479
139626,103476
139639,103473
139632,103498
139570,103487
139576,103468
139664,103506
139648,103510
139653,103500
139599,103505
139620,103516
139707,103523
139688,103524
139683,103514
139685,103509
139696,103532
139710,103512
139754,103511
139718,103563
139731,103540
139721,103551
139792,103561
139797,103586
139760,103536
139792,103558
139811,103584
139873,103589
139851,103553
139854,103593
139820,103556
139884,103568
139910,103549
139904,103580
139920,103571
139921,103605
139925,103593
139989,103630
139967,103586
139982,103600
139920,103594
139957,103604
140017,103654
140000,103612
140017,103626
139997,103643
140046,103641
140055,103641
140098,103624
140083,103648
140057,103674
140086,103656
140151,103691
140107,103696
140144,103649
140102,103683
140140,103662
140176,103654
140103,103653
140095,103630
140039,103649
140000,103606
139998,103626
139928,103573
139854,103534
139742,103517
139664,103457
139656,103458
139586,103459
139469,103405
139363,103381
139354,103336
139295,103348
139213,103320
139117,103303
139033,103266
139009,103257
139023,103216
139011,103229
138887,103191
138852,103166
138867,103205
138811,103172
138790,103151
138762,103187
138709,103145
138713,103154
138735,103134
138708,103139
138677,103127
138686,103142
138690,103163
138689,103138
138712,103163
138689,103125
138695,103137
138717,103129
138753,103149
138753,103198
138738,103150
138719,103156
138791,103168
138786,103163
138806,103173
138801,103196
138816,103159
138843,103187
138847,103188
138879,103193
138875,103208
138869,103219
138931,103205
138967,103222
138976,103226
138984,103206
138984,103220
139070,103242
139030,103243
139091,103283
139066,103235
139096,103272
139108,103280
139164,103268
139142,103290
139126,103271
139180,103304
139199,103281
139169,103298
139191,103273
139131,103284
139166,103288
139163,103285
139188,103280
139152,103287
139120,103305
139130,103277
139179,103297
139131,103299
139128,103275
139107,103249
139099,103260
139106,103289
139107,103266
139085,103228
139077,103233
139070,103233
139070,103254
139062,103275
139055,103253
139061,103226
139070,103262
139072,103243
139079,103233
139094,103229
139084,103245
139068,103289
139105,103226
139129,103269
139107,103262
139106,103249
139139,103274
139153,103267
139189,103291
139204,103293
139146,103304
139225,103300
139216,103325
139236,103282
139239,103314
139217,103297
139267,103339
139249,103264
139259,103310
139319,103309
139274,103324
139323,103345
139305,103307
139364,103331
139347,103310
139323,103327
139411,103380
139403,103363
139430,103358
139394,103370
139393,103338
139458,103367
139442,103363
139499,103386
139502,103376
139491,103399
139488,103399
139564,103392
139548,103407
139572,103401
139573,103412
139619,103438
139580,103414
139630,103411
139640,103453
139595,103466
139652,103445
139701,103477
139645,103433
139705,103457
139694,103480
139703,103450
139761,103469
139752,103448
139775,103520
139730,103482
139288,103258
139185,103232
139088,103208
139018,103185
138952,103180
138871,103156
138796,103094
138705,103104
138650,103064
138624,103042
138570,103036
138458,103018
138421,102958
138368,102981
138385,102972
138320,102958
138300,102931
138196,102904
138219,102907
138203,102938
138198,102933
138195,102894
138173,102914
138125,102922
138139,102872
138222,102919
138167,102904
138151,102908
138129,102882
138200,102940
138195,102922
138195,102931
138201,102916
138184,102926
138246,102948
138227,102955
138253,102918
138240,102948
138238,102937
138315,102950
138330,102935
138352,102931
138357,102986
138379,102980
138402,102986
138440,102974
138424,103037
138402,103000
138470,103009
138513,103042
138528,103038
138566,103065
138524,103053
138559,103039
138685,103090
138624,103066
138661,103073
138640,103068
138682,103096
138689,103062
138707,103096
138719,103072
138667,103106
138719,103098
138752,103090
138713,103094
138750,103095
138672,103104
138677,103098
138701,103125
138690,103085
138741,103069
138666,103125
138675,103081
138722,103093
138687,103069
138707,103101
138635,103069
138655,103047
138679,103108
138645,103064
138631,103097
138617,103074
138654,103048
138669,103093
138671,103084
138657,103076
138634,103050
138666,103084
138680,103054
138674,103086
138668,103111
138668,103085
138660,103082
138724,103102
138720,103098
138759,103090
138703,103100
138706,103124
138780,103109
138784,103109
138792,103118
138763,103141
138775,103110
138856,103149
138854,103148
138821,103167
138808,103115
138888,103169
138957,103184
138901,103161
138886,103188
138898,103147
138973,103189
138974,103198
138990,103179
139008,103181
138950,103198
139028,103231
139038,103189
139083,103201
139044,103216
139019,103202
139130,103256
139140,103272
139122,103250
139148,103230
139144,103271
139177,103255
139215,103276
139186,103264
139211,103244
139217,103280
139270,103277
139305,103291
139284,103319
139263,103268
139322,103303
139345,103331
139342,103302
139371,103323
139330,103328
139372,103325
139375,103357
139403,103322
139384,103364
139381,103305
139394,103320
139439,103325
139434,103372
139392,103322
139376,103353
139350,103333
139376,103286
139358,103309
139254,103285
139176,103218
139097,103212
139037,103208
138988,103158
138886,103117
138767,103117
138688,103057
138661,103038
138568,103000
138467,102977
138377,102977
138278,102914
138239,102920
138165,102898
138065,102838
138012,102831
137960,102841
137915,102774
137861,102755
137834,102792
137764,102733
137735,102747
137715,102724
137721,102715
137699,102729
137633,102679
137654,102726
137673,102696
137662,102708
137652,102740
137642,102696
137661,102726
137696,102719
137676,102700
137684,102725
137641,102705
137681,102714
137765,102731
137738,102727
137785,102742
137748,102750
137787,102784
137800,102761
137820,102774
137841,102760
137821,102804
137818,102803
137896,102771
137909,102795
137922,102809
137917,102814
137948,102835
138002,102816
138030,102851
138001,102840
138022,102869
138026,102827
138078,102883
138077,102856
138133,102860
138099,102853
138163,102852
138196,102896
138182,102883
138219,102908
138157,102886
138198,102883
138251,102931
138203,102904
138229,102896
138173,102867
138230,102875
138242,102881
138197,102904
138227,102887
138189,102895
138241,102901
138203,102883
138207,102903
138175,102876
138185,102895
138217,102866
138213,102906
138207,102899
138200,102896
138171,102864
138220,102863
138199,102911
138187,102895
138209,102897
138161,102879
138235,102914
138262,102888
138256,102915
138205,102883
138227,102908
138240,102911
138255,102878
138315,102901
138268,102962
138251,102941
138287,102924
138372,102910
138372,102946
138345,102954
138346,102950
138393,102918
138435,102967
138399,102947
138455,102997
138419,102974
138456,102984
138484,103005
138489,102986
138472,103013
138442,103009
138550,103007
138564,103038
138565,103041
138589,102998
138554,103019
138654,103041
138613,103049
138634,103028
138677,103061
138689,103083
138684,103056
138759,103066
138759,103101
138711,103096
138746,103091
138808,103107
138803,103099
138819,103092
138793,103125
138819,103123
138881,103117
138875,103147
138839,103125
138913,103116
138930,103132
138987,103169
138977,103195
138979,103149
138955,103197
138957,103185
139032,103193
139054,103171
139093,103209
139051,103206
139054,103220
139114,103238
139092,103239
139090,103187
139106,103233
139106,103208
139081,103207
139035,103186
139044,103153
138963,103178
138912,103132
138888,103107
138821,103080
138753,103047
138633,103066
138562,103017
138505,102990
138409,102954
138321,102915
138214,102893
138167,102859
138126,102821
138073,102817
137968,102788
137849,102774
137840,102739
137790,102705
137765,102728
137659,102725
137592,102667
137572,102670
137579,102680
137555,102682
137494,102627
137464,102657
137475,102636
137503,102614
137486,102621
137436,102601
137454,102655
137438,102645
137493,102643
137513,102632
137484,102674
137494,102622
137516,102634
137574,102696
137541,102653
137570,102659
137550,102677
137596,102657
137659,102723
137622,102701
137682,102712
137623,102684
137710,102734
137748,102708
137769,102745
137736,102757
137731,102723
137819,102755
137820,102771
137837,102799
137872,102754
137896,102813
137945,102787
137941,102816
137982,102829
137998,102778
138007,102834
138044,102850
138081,102851
138084,102845
138090,102824
138056,102856
138114,102894
138118,102840
138103,102865
138081,102859
138111,102883
138148,102901
138151,102845
138143,102869
138093,102836
138066,102881
138156,102883
138148,102852
138116,102874
138131,102858
138092,102837
138162,102869
138100,102840
138145,102869
138109,102857
138084,102864
138125,102838
138165,102885
138128,102867
138110,102851
138112,102841
138153,102896
138154,102871
138114,102871
138136,102858
138135,102860
138186,102904
138191,102882
138195,102878
138188,102888
138171,102916
138247,102901
138281,102913
138236,102914
138236,102934
138251,102927
138289,102903
138348,102954
138321,102947
138288,102912
138332,102907
138376,102973
138355,102931
138373,102935
138378,102963
138343,102947
138443,102976
138465,102990
138417,103012
138468,102971
138470,102995
138520,102992
138529,102997
138515,103020
138509,102997
138512,103004
138620,103010
138598,103047
138586,103040
138588,102997
138632,103047
138649,103058
138641,103036
138690,103053
138644,103062
138670,103062
138725,103065
138756,103065
138748,103097
138703,103060
138727,103099
138808,103123
138772,103091
138760,103089
138803,103099
138816,103113
138879,103138
138864,103087
138855,103156
138837,103090
138848,103138
138910,103143
138909,103133
138895,103136
138869,103136
138911,103108
138959,103153
138892,103125
138903,103123
138809,103129
138818,103105
138768,103068
138716,103033
138661,103023
138560,103009
138504,102998
138492,102972
138391,102956
138267,102870
138208,102857
138153,102864
138106,102855
137992,102798
137906,102748
137873,102772
137840,102727
137832,102740
137739,102702
137703,102682
137624,102679
137601,102669
137637,102636
137617,102656
137551,102662
137523,102609
137591,102656
137507,102631
137525,102618
137528,102627
137458,102634
137532,102621
137562,102668
137552,102661
137581,102654
137521,102615
137613,102685
137619,102674
137611,102688
137591,102637
137613,102673
137641,102673
137699,102709
137655,102713
137731,102681
137667,102737
137728,102717
137767,102723
137767,102743
137753,102740
137740,102736
137831,102732
137888,102757
137875,102762
137908,102764
137953,102791
137969,102832
137986,102783
137995,102810
138022,102812
137983,102834
138054,102807
138095,102871
138078,102840
138089,102847
138082,102835
138114,102833
138135,102849
138117,102873
138117,102820
138107,102845
138100,102878
138150,102817
138142,102852
138094,102869
138040,102837
138104,102858
138102,102815
138084,102828
138060,102843
138036,102831
138071,102809
138096,102840
138091,102820
138049,102799
138050,102779
138075,102844
138077,102805
138058,102794
138051,102813
138043,102842
138082,102797
138077,102832
138079,102828
138045,102820
138076,102847
138089,102827
138096,102824
138117,102835
138089,102854
138095,102828
138155,102841
138156,102847
138143,102833
138151,102845
138135,102851
138167,102854
138189,102868
138173,102855
138172,102869
138218,102868
138212,102882
138237,102893
138265,102878
138188,102867
138276,102887
138298,102901
138279,102923
138284,102927
138267,102884
138292,102892
138369,102915
138340,102895
138341,102897
138314,102939
138346,102957
138363,102905
138377,102923
138437,102933
138361,102921
138391,102940
138460,102974
138466,102977
138481,102964
138478,102955
138477,102967
138534,102999
138523,102996
138527,102994
138546,102957
138565,103009
138594,103006
138603,103011
138588,102995
138597,103020
138632,103040
138643,102991
138645,103030
138624,103026
138629,102994
138661,103003
138654,103038
138670,103026
138676,103015
138651,103005
138630,103024
138620,102966
138597,102972
138559,102980
138453,102939
138421,102945
138398,102886
138327,102861
138249,102867
138131,102810
137842,102712
137842,102723
137822,102702
137750,102694
137670,102692
137624,102626
137664,102624
137636,102672
137615,102633
137539,102623
137515,102582
137583,102597
137514,102611
137505,102615
137514,102612
137461,102597
137526,102585
137535,102616
137540,102608
137523,102589
137507,102588
137552,102647
137560,102603
137584,102628
137543,102630
137568,102633
137606,102643
137647,102639
137642,102646
137633,102669
137594,102637
137703,102638
137720,102675
137695,102688
137705,102689
137676,102688
137757,102660
137782,102706
137780,102726
137781,102695
137832,102726
137855,102742
137885,102709
137913,102742
137889,102742
137910,102732
137972,102773
137956,102769
137985,102775
137953,102776
137948,102762
138060,102769
138020,102788
138008,102767
138029,102769
138032,102797
138016,102786
138058,102781
138050,102802
137982,102754
138035,102774
138045,102782
138024,102796
138017,102767
137997,102799
137976,102761
138046,102734
137991,102768
138006,102736
137952,102766
137964,102760
138024,102768
138008,102732
137996,102752
137982,102741
137946,102757
138019,102780
137982,102780
137985,102749
137974,102756
137976,102763
138037,102769
137981,102773
138041,102770
137989,102752
138020,102766
138075,102806
138074,102790
138042,102793
138031,102770
138106,102797
138114,102800
138103,102808
138122,102781
138124,102829
138109,102824
138180,102800
138178,102830
138218,102831
138144,102815
138167,102860
138241,102832
138240,102861
138248,102838
138220,102828
138272,102857
138290,102877
138300,102868
138308,102851
138298,102888
138319,102900
138388,102892
138376,102885
138412,102916
138326,102886
138384,102894
138428,102899
138441,102930
138447,102916
138409,102944
138447,102920
138513,102930
138505,102970
138490,102949
138488,102938
138554,102968
138535,102959
138598,102952
138552,102973
138574,102937
138584,102987
138594,102974
138600,102978
138623,102982
138613,102970
138659,103001
138677,102974
138665,102979
138682,103009
138645,102980
138681,102996
138705,102981
138672,102987
138613,102986
138558,102930
138554,102925
138532,102915
138438,102893
138352,102851
138294,102887
138240,102842
138249,102793
138162,102787
138100,102750
138063,102744
138004,102762
137965,102691
137898,102698
137871,102677
137789,102686
137805,102635
137825,102671
137730,102640
137759,102660
137704,102628
137709,102629
137742,102627
137697,102664
137662,102588
137623,102624
137673,102620
137705,102661
137692,102612
137662,102638
137678,102601
137740,102626
137767,102638
137750,102647
137771,102656
137714,102646
137794,102638
137823,102688
137831,102674
137813,102676
137839,102684
137866,102703
137871,102667
137907,102732
137874,102714
137937,102709
137944,102743
137957,102687
137989,102731
137956,102721
137969,102723
138035,102763
138053,102746
138030,102759
138043,102749
138080,102798
138136,102790
138139,102802
138106,102797
138146,102753
138210,102808
138208,102799
138238,102830
138205,102789
138227,102807
138235,102828
138289,102818
138268,102842
138284,102825
138216,102813
138258,102807
138316,102838
138308,102822
138278,102826
138275,102812
138301,102828
138293,102843
138311,102828
138300,102835
138294,102821
138266,102821
138324,102821
138268,102832
138287,102814
138259,102822
138273,102848
138293,102800
138309,102835
138301,102821
138242,102813
138302,102832
138343,102824
138330,102826
138343,102826
138307,102879
138327,102858
138389,102885
138383,102866
138368,102871
138405,102876
138411,102907
138433,102870
138449,102866
138451,102871
138426,102880
138432,102895
138509,102913
138505,102907
138480,102890
138520,102920
138510,102925
138581,102920
138538,102932
138565,102930
138546,102953
138590,102928
138610,102938
138645,102935
138589,102948
138630,102967
138672,102982
138667,102970
138717,102966
138680,102965
138677,102993
138739,102985
138735,102995
138967,103043
138943,103104
138917,103063
138949,103079
138989,103113
138961,103070
138989,103046
138957,103079
139013,103102
139000,103078
139055,103090
139005,103111
138995,103101
139006,103103
139018,103077
138977,103076
138981,103049
138910,103041
138906,103023
138842,102978
138790,102947
138744,102986
138661,102921
138645,102919
138606,102892
138530,102882
138424,102833
138403,102861
138396,102823
138378,102841
138277,102806
138245,102766
138204,102778
138272,102804
138198,102785
138166,102755
138179,102764
138142,102746
138158,102759
138183,102742
138192,102745
138118,102794
138124,102762
138178,102778
138197,102743
138203,102748
138187,102794
138198,102794
138220,102795
138264,102791
138256,102769
138256,102833
138245,102803
138310,102813
138261,102810
138309,102811
138277,102791
138301,102828
138368,102806
138388,102829
138378,102857
138320,102819
138385,102838
138395,102859
138404,102861
138424,102861
138445,102868
138462,102858
138498,102912
138462,102897
138503,102860
138524,102910
138514,102912
138569,102893
138616,102915
138582,102952
138586,102901
138649,102932
138643,102956
138648,102935
138668,102979
138634,102908
138683,102973
138688,102984
138666,102932
138721,102943
138656,102930
138706,102941
138750,102940
138698,102969
138711,102987
138680,102952
138728,102953
138715,102940
138710,102902
138730,102956
138617,102937
138691,102944
138705,102942
138691,102937
138707,102966
138626,102926
138665,102928
138697,102925
138695,102928
138687,102930
138643,102912
138679,102941
138722,102941
138707,102954
138697,102942
138644,102936
138736,102963
138743,102958
138752,102948
138713,102961
138693,102942
138770,102974
138780,102966
138774,102968
138759,102960
138731,102980
138802,102995
138801,102981
138807,102963
138812,102984
138779,102975
138852,103000
138841,102999
138852,103006
138855,102981
138849,102991
138907,103029
138907,103014
138886,103041
138919,102992
138860,103003
138937,103016
138979,103031
138960,103010
138948,103051
138942,103005
138994,103054
139028,103031
139042,103061
138984,103062
138980,103065
139059,103051
139060,103105
139028,103063
139045,103040
139015,103060
139118,103097
139075,103064
139084,103091
139121,103110
139119,103071
139131,103097
139180,103090
139181,103106
139124,103083
139141,103118
139188,103114
139219,103117
139196,103100
139174,103097
139199,103106
139243,103114
139227,103125
139256,103123
139218,103110
139239,103132
139226,103132
139298,103127
139257,103162
139251,103122
139289,103138
139304,103167
139296,103109
139261,103130
139218,103125
139200,103126
139225,103077
139163,103111
139113,103046
139040,103058
138997,103040
138993,102980
138926,102988
138854,102961
138768,102943
138737,102931
138755,102893
138699,102878
138673,102885
138590,102898
138570,102869
138598,102864
138594,102860
138546,102869
138481,102803
138525,102820
138564,102840
138517,102856
138524,102820
138511,102818
138521,102817
138570,102875
138564,102836
138561,102838
138541,102846
138592,102870
138631,102899
138614,102885
138589,102891
138600,102849
138594,102885
138654,102916
138662,102874
138664,102901
138636,102864
138673,102892
138691,102923
138719,102892
138686,102916
138726,102886
138724,102928
138753,102919
138767,102931
138788,102931
138737,102936
138754,102949
138821,102913
138807,102955
138790,102945
138800,102933
138817,102948
138901,102979
138896,102968
138910,102997
138868,102949
138928,102994
138936,102954
138916,102992
138960,102987
138881,102992
138955,102975
138958,103033
138940,103012
138939,102968
138938,102957
138996,103003
138992,103004
138994,102984
138948,103001
138913,102977
138995,102975
138972,103008
138959,102962
138982,102955
138909,102953
138930,102989
139007,102949
138990,102996
138943,102951
138901,103007
138918,102974
138981,102991
138930,102981
138926,102948
138905,102959
138993,102988
138984,102957
138985,102955
138957,102988
138932,102966
139019,103002
138995,102989
139023,103010
138967,102976
139005,102986
139054,103015
139021,102998
139047,103008
139031,102970
139057,103015
139075,103000
139094,103005
139095,103023
139060,103008
139071,103035
139110,103032
139164,103002
139152,103047
139114,103036
139128,103015
139156,103061
139179,103012
139219,103035
139152,103063
139171,103061
139245,103052
139204,103059
139238,103053
139218,103094
139202,103044
139277,103086
139301,103080
139264,103055
139286,103106
139245,103071
139335,103066
139330,103068
139341,103079
139286,103079
139309,103084
139415,103108
139375,103116
139385,103124
139323,103079
139358,103122
139428,103107
139385,103127
139406,103121
139425,103143
139399,103148
139453,103133
139479,103115
139431,103119
139477,103152
139462,103156
139491,103147
139479,103154
139494,103163
139471,103168
139492,103141
139533,103139
139511,103160
139547,103174
139486,103151
139568,103169
139559,103166
139530,103156
139565,103156
139525,103172
139538,103171
139609,103139
139582,103164
139558,103154
139474,103128
139497,103131
139523,103109
139460,103127
139391,103102
139301,103039
139321,103023
139287,103029
139214,103018
139152,102972
139102,102987
138890,102900
138936,102917
138901,102912
138898,102922
138891,102909
138935,102932
138941,102901
138939,102927
138946,102934
138916,102904
138999,102925
139011,102951
139010,102939
138994,102938
138966,102921
139038,102942
139058,102986
139035,102954
139050,102957
139029,102945
139066,102961
139112,102934
139120,102953
139076,102990
139047,102943
139111,102980
139157,102982
139159,102995
139099,102991
139133,102960
139220,103002
139207,103031
139236,103047
139229,103031
139187,103009
139238,103007
139310,103048
139276,103045
139308,103029
139256,103042
139291,103052
139355,103008
139318,103042
139338,103055
139260,103046
139363,103065
139351,103037
139348,103024
139340,103060
139319,103033
139353,103040
139349,103039
139383,103056
139285,103044
139290,103043
139342,103026
139317,103043
139294,103032
139323,103025
139282,103020
139325,103039
139343,103024
139328,103062
139261,103011
139284,103046
139311,103034
139310,103027
139326,103018
139309,103041
139269,103047
139349,103012
139331,103039
139333,103045
139295,103047
139297,103053
139364,103031
139332,103064
139349,103055
139370,103051
139342,103047
139386,103058
139413,103059
139405,103062
139345,103024
139420,103047
139413,103114
139433,103079
139467,103090
139398,103085
139408,103063
139486,103096
139484,103064
139472,103084
139421,103090
139453,103075
139528,103101
139493,103066
139498,103129
139489,103061
139516,103083
139561,103112
139508,103084
139551,103093
139520,103113
139558,103119
139582,103094
139604,103121
139607,103140
139554,103094
139615,103111
139618,103139
139579,103102
139631,103099
139595,103149
139621,103111
139651,103128
139670,103115
139631,103145
139625,103125
139659,103127
139709,103152
139660,103145
139703,103131
139660,103141
139669,103126
139763,103159
139729,103167
139730,103141
139668,103162
139714,103160
139800,103147
139750,103202
139741,103139
139777,103171
139765,103174
139789,103193
139787,103153
139804,103157
139753,103167
139790,103189
139833,103167
139792,103167
139813,103204
139735,103160
139805,103180
139850,103184
139811,103199
139790,103181
139803,103169
139820,103194
139816,103153
139757,103160
139769,103131
139680,103099
139683,103109
139690,103130
139625,103060
139575,103058
139482,103050
139462,103036
139461,102997
139422,103010
139380,102968
139296,102976
139333,102963
139324,102951
139272,102937
139276,102965
139221,102951
139254,102955
139239,102939
139254,102919
139240,102947
139193,102957
139244,102947
139262,102953
139283,102947
139263,102979
139227,102916
139303,102949
139318,102983
139329,102973
139298,102975
139297,102999
139328,102983
139376,102995
139392,103003
139321,102997
139330,102991
139375,102996
139425,103025
139384,102990
139381,103019
139402,102970
139429,103032
139438,103017
139472,103008
139430,103035
139466,103012
139492,103026
139512,103016
139571,103040
139485,103065
139494,103025
139569,103063
139576,103064
139598,103053
139538,103079
139552,103029
139654,103058
139659,103099
139628,103084
139588,103069
139615,103069
139667,103054
139691,103106
139677,103102
139678,103101
139642,103077
139663,103107
139725,103085
139713,103093
139639,103053
139640,103081
139688,103084
139652,103052
139683,103062
139625,103091
139655,103095
139662,103097
139657,103055
139639,103071
139650,103091
139622,103061
139682,103077
139663,103090
139685,103045
139601,103090
139593,103053
139695,103075
139652,103056
139657,103071
139641,103072
139627,103076
139658,103069
139678,103080
139678,103069
139687,103098
139696,103092
139723,103105
139692,103088
139717,103099
139689,103091
139711,103090
139727,103104
139722,103108
139714,103070
139724,103110
139755,103088
139785,103111
139798,103124
139755,103128
139723,103077
139789,103116
139804,103110
139820,103115
139814,103120
139801,103129
139789,103125
139837,103121
139845,103107
139858,103143
139820,103110
139854,103120
139909,103176
139867,103118
139864,103144
139858,103158
139881,103134
139907,103120
139948,103151
139917,103164
139872,103122
139929,103123
139939,103133
139965,103160
139961,103165
139912,103165
139965,103156
139998,103165
139956,103162
139999,103192
139933,103155
140000,103182
140015,103183
140037,103178
139989,103204
139970,103148
140051,103181
140024,103185
140017,103182
140051,103197
140019,103173
140042,103181
140103,103202
140035,103174
140085,103190
140057,103176
140093,103205
140135,103203
140081,103200
140133,103218
140078,103209
140150,103196
140141,103204
140141,103211
140132,103209
140077,103211
140151,103204
140111,103197
140146,103197
140115,103197
140085,103176
140038,103163
140063,103144
140011,103136
139889,103124
139865,103088
139901,103084
139850,103072
139779,103061
139701,103068
139644,103033
139682,102991
139642,103021
139620,103006
139584,102975
139556,102989
139549,102997
139583,102952
139599,102994
139543,102992
139512,102959
139569,102966
139565,102999
139520,102965
139547,102939
139532,102961
139565,102986
139600,102969
139611,102999
139571,103027
139580,103003
139633,103036
139630,102990
139663,102989
139622,103011
139644,103025
139631,103037
139715,103060
139679,103035
139671,103012
139684,103004
139759,103048
139723,103041
139707,103064
139717,103043
139738,103029
139752,103054
139793,103059
139770,103062
139772,103051
139800,103067
139823,103101
139865,103066
139851,103091
139816,103082
139862,103077
139894,103125
139919,103091
139902,103102
139904,103109
139937,103109
139978,103137
139946,103112
139972,103124
139892,103107
139959,103126
139999,103122
139989,103140
139962,103107
139964,103094
139933,103094
139983,103110
139991,103107
139949,103096
139935,103113
139918,103107
139996,103127
139959,103095
139934,103082
139886,103077
139929,103089
139951,103098
139950,103076
139905,103079
139910,103068
139912,103087
139940,103089
139921,103077
139942,103110
139892,103066
139920,103087
139925,103076
139960,103075
139964,103087
139893,103074
139926,103094
139969,103094
139982,103105
139922,103090
139954,103091
139979,103104
139967,103090
139993,103114
140004,103098
139937,103088
139986,103108
140029,103118
140001,103101
139992,103113
139967,103108
140029,103129
140035,103117
140043,103122
140012,103104
140022,103106
140042,103120
140091,103152
140086,103121
140057,103111
140040,103127
140101,103118
140120,103121
140099,103111
140094,103132
140093,103130
140123,103142
140138,103132
140153,103137
140104,103153
140124,103162
140182,103152
140177,103148
140192,103170
140169,103139
140145,103171
140205,103183
140211,103177
140188,103164
140205,103168
140214,103193
140232,103171
140256,103169
140251,103184
140256,103195
140262,103179
140276,103180
140302,103200
140276,103183
140275,103189
140266,103194
140319,103205
140319,103213
140311,103194
140302,103210
140300,103184
140319,103208
140317,103198
140314,103170
140307,103194
140256,103184
140296,103216
140288,103184
140227,103139
140216,103138
140092,103118
140150,103130
140086,103096
140013,103065
139943,103043
139925,103059
139933,103025
139888,103026
139829,102995
139795,103003
139748,102956
139806,102974
139730,102955
139763,102979
139703,102979
139723,102952
139742,102946
139728,102972
139742,102938
139673,102942
139708,102954
139740,102978
139730,102960
139729,102968
139679,102968
139730,102982
139787,102990
139760,102993
139754,102999
139709,102972
139787,103011
139824,102998
139825,102984
139827,102979
139776,102968
139820,103001
139829,103003
139874,103015
139846,103014
139833,103006
139837,103022
139907,103007
139915,103001
139951,103045
139853,103015
139877,103044
139961,103039
139931,103012
139961,103019
139958,103081
139993,103056
140019,103068
140005,103050
140060,103042
139997,103092
140008,103065
140061,103068
140108,103091
140079,103075
140062,103073
140054,103093
140095,103057
140097,103120
140127,103090
140066,103088
140091,103094
140106,103049
140099,103100
140103,103070
140052,103036
140080,103075
140085,103064
140105,103094
140048,103066
140055,103079
140058,103068
140076,103050
140069,103091
140066,103050
140016,103036
140093,103071
140087,103077
140061,103048
140069,103063
140004,103035
140062,103076
140103,103069
140062,103063
140075,103060
139996,103026
140086,103046
140102,103056
140086,103057
140095,103037
140026,103054
140086,103068
140135,103064
140110,103096
140070,103070
140064,103052
140110,103081
140115,103074
140101,103054
140154,103048
140079,103078
140130,103084
140155,103080
140173,103094
140147,103078
140147,103054
140184,103113
140202,103101
140203,103106
140160,103082
140172,103069
140238,103090
140211,103110
140245,103117
140208,103116
140173,103084
140245,103080
140295,103121
140258,103113
140247,103097
140269,103104
140291,103143
140286,103087
140310,103113
140284,103115
140277,103132
140321,103104
140352,103127
140324,103136
140311,103137
140295,103134
140347,103165
140389,103127
140396,103148
140345,103157
140323,103137
140429,103146
140434,103170
140382,103144
140387,103143
140393,103141
140469,103194
140439,103136
140439,103178
140404,103178
140413,103130
140482,103169
140409,103123
140417,103166
140366,103125
139966,102995
139921,102963
139933,102981
139884,102906
139864,102920
139784,102911
139764,102936
139813,102888
139789,102891
139789,102913
139714,102904
139718,102867
139782,102906
139768,102896
139716,102892
139690,102869
139721,102884
139787,102907
139752,102888
139771,102881
139735,102892
139725,102917
139781,102864
139804,102923
139807,102924
139735,102901
139817,102936
139810,102914
139852,102933
139815,102925
139831,102915
139823,102937
139894,102912
139853,102931
139869,102931
139854,102909
139868,102940
139905,102916
139877,102948
139892,102948
139866,102953
139883,102919
139980,102990
139956,102984
139930,102976
139963,102950
140020,102960
139999,103019
140034,102990
139994,102996
140013,102972
140052,102987
140061,103020
140101,103002
140052,103002
140050,103002
140022,102969
140114,103015
140053,102960
140079,103012
140002,102963
140048,102991
140052,102966
140051,102984
140061,102977
139963,102959
140030,102945
140018,102957
140034,102954
140052,102944
139972,102958
140029,102990
140005,102947
140026,102957
140025,102989
139953,102965
139983,102947
140075,102992
140037,102941
140026,102944
139997,102998
139994,102968
140064,102953
140011,102957
140025,102978
139985,102968
140059,102966
140033,102986
140046,102984
140015,102975
140066,102979
140057,102979
140104,102995
140094,102969
140074,102998
140034,102985
140086,102983
140112,102986
140086,102994
140110,102969
140094,102991
140114,103012
140115,102961
140119,103010
140081,102995
140072,102971
140172,102991
140116,103026
140131,102993
140120,103000
140098,102990
140164,102988
140171,103031
140167,103030
140183,103010
140155,103016
140202,103000
140196,103039
140179,103027
140197,103018
140205,103009
140247,103041
140236,102994
140274,103019
140260,103005
140276,103037
140280,103073
140302,103031
140296,103043
140259,103045
140285,103029
140272,103038
140345,103068
140311,103034
140297,103057
140301,103042
140350,103060
140371,103050
140333,103092
140351,103067
140308,103058
140408,103066
140342,103066
140378,103079
140332,103046
140305,103027
140310,103032
140260,103008
140227,102989
140154,102974
140116,102966
140109,102960
140004,102935
139965,102887
139859,102877
139828,102844
139879,102838
139772,102849
139721,102818
139675,102827
139633,102796
139700,102766
139637,102820
139617,102788
139556,102773
139554,102747
139603,102758
139554,102739
139583,102742
139540,102729
139547,102758
139553,102767
139583,102737
139565,102761
139536,102766
139555,102757
139593,102790
139583,102754
139585,102771
139540,102736
139563,102757
139587,102783
139615,102781
139597,102754
139579,102757
139588,102807
139600,102726
139622,102754
139607,102763
139597,102748
139659,102793
139632,102775
139651,102787
139696,102782
139628,102791
139659,102802
139738,102800
139715,102780
139715,102824
139668,102808
139768,102816
139768,102872
139777,102842
139744,102826
139724,102836
139846,102826
139820,102891
139830,102857
139816,102825
139817,102875
139868,102846
139883,102827
139850,102863
139871,102844
139823,102865
139847,102839
139900,102852
139899,102832
139841,102843
139821,102841
139869,102825
139901,102857
139869,102864
139844,102822
139820,102847
139850,102827
139860,102856
139845,102828
139846,102858
139836,102802
139863,102843
139902,102851
139872,102848
139809,102818
139823,102831
139874,102818
139870,102825
139867,102825
139887,102859
139848,102805
139881,102857
139910,102843
139893,102821
139874,102844
139832,102850
139921,102847
139919,102857
139913,102847
139919,102843
139869,102845
139960,102877
139952,102861
139937,102868
139952,102834
139899,102879
139967,102869
139977,102896
139960,102895
139960,102887
139960,102872
139997,102901
139977,102876
140029,102878
140006,102898
139992,102874
140068,102914
140041,102888
140056,102908
140059,102893
140063,102896
140092,102929
140071,102910
140074,102891
140093,102917
140083,102890
140122,102928
140164,102963
140118,102933
140112,102911
140119,102920
140196,102939
140167,102932
140142,102929
140186,102930
140177,102953
140236,102957
140255,102953
140224,102964
140203,102932
140215,102948
140279,102960
140222,102958
140272,102991
140262,102955
140225,102982
140307,102990
140294,102977
140281,102953
140305,102969
140291,102955
140300,102989
140262,102978
140241,102930
140237,102951
140193,102926
140162,102911
140086,102918
140017,102857
139991,102853
139948,102830
139935,102840
139857,102788
139801,102786
139763,102746
139737,102747
139747,102759
139701,102730
139654,102719
139577,102708
139590,102711
139636,102708
139613,102724
139592,102747
139529,102680
139565,102709
139585,102688
139620,102700
139582,102711
139514,102678
139594,102714
139619,102731
139581,102735
139580,102705
139595,102746
139617,102745
139650,102745
139630,102752
139598,102716
139644,102734
139676,102708
139721,102744
139689,102741
139656,102732
139668,102731
139679,102769
139717,102752
139729,102737
139718,102755
139650,102745
139730,102754
139781,102756
139786,102770
139770,102777
139752,102759
139798,102775
139823,102797
139819,102806
139808,102791
139809,102779
139835,102828
139852,102815
139869,102792
139921,102780
139829,102825
139939,102828
139920,102829
139947,102845
139921,102803
139947,102863
139962,102826
139984,102809
139943,102829
139956,102804
139901,102840
139973,102833
139947,102810
139951,102821
139940,102814
139889,102830
139941,102815
139934,102846
139932,102799
139940,102808
139906,102834
139934,102819
139958,102807
139939,102804
139945,102852
139906,102796
139934,102817
139964,102817
139953,102821
139915,102808
139903,102843
139960,102832
139966,102799
139990,102805
139932,102844
139949,102807
139973,102849
139984,102817
139973,102815
139993,102859
139989,102827
140027,102850
140057,102838
140043,102852
140013,102834
139975,102839
140064,102882
140052,102821
140047,102832
140032,102886
140056,102880
140074,102880
140118,102871
140088,102887
140037,102842
140073,102875
140131,102882
140132,102888
140136,102878
140122,102871
140117,102887
140165,102884
140192,102913
140136,102914
140132,102863
140169,102888
140218,102886
140212,102914
140203,102917
140173,102873
140190,102904
140267,102924
140222,102917
140223,102912
140223,102901
140247,102928
140287,102910
140288,102927
140303,102930
140251,102940
140296,102956
140348,102962
140288,102933
140333,102947
140329,102953
140302,102961
140394,102952
140360,102964
140357,102950
140321,102931
140368,102964
140388,102959
140409,102999
140379,102963
140269,102935
140312,102941
140351,102939
140255,102902
140237,102897
140172,102876
140100,102863
140132,102890
140044,102823
139990,102795
139949,102792
139949,102781
139895,102770
139896,102800
139831,102744
139775,102725
139784,102737
139806,102738
139747,102747
139712,102707
139774,102736
139766,102732
139766,102709
139755,102746
139691,102693
139720,102703
139734,102714
139734,102722
139742,102699
139774,102751
139708,102720
139766,102750
139802,102724
139769,102760
139808,102736
139720,102742
139777,102717
139837,102757
139804,102759
139836,102743
139791,102765
139800,102778
139855,102777
139841,102743
139901,102759
139854,102783
139912,102790
139907,102792
139899,102817
139893,102750
139910,102796
139953,102786
139963,102789
139977,102779
139985,102800
139942,102778
140012,102807
140047,102809
140034,102851
140012,102804
140010,102848
140053,102834
140092,102831
140097,102841
140066,102818
140022,102872
140083,102829
140093,102857
140072,102819
140067,102846
140067,102849
140097,102861
140135,102850
140098,102861
140043,102808
140099,102833
140088,102844
140129,102840
140123,102843
140039,102835
140040,102817
140106,102849
140095,102822
140097,102812
140138,102832
140171,102857
140114,102856
140215,102869
140170,102881
140162,102818
140191,102882
140198,102856
140239,102876
140241,102884
140194,102886
140190,102865
140177,102881
140256,102890
140236,102885
140267,102886
140223,102855
140273,102881
140263,102947
140284,102871
140287,102874
140261,102886
140293,102863
140349,102911
140308,102893
140351,102906
140325,102898
140353,102929
140355,102944
140358,102913
140352,102940
140341,102940
140318,102944
140402,102953
140414,102942
140376,102949
140377,102905
140392,102939
140491,102928
140417,102960
140432,102941
140361,102923
140403,102908
140484,102955
140422,102951
140458,102949
140414,102965
140444,102938
140507,102942
140455,102983
140422,102934
140406,102951
140378,102925
140434,102911
140339,102899
140326,102894
140240,102840
140205,102859
140193,102817
140184,102830
140117,102825
140040,102781
140068,102762
140021,102799
140002,102751
139938,102737
139920,102759
139917,102722
139935,102750
139891,102708
139856,102739
139834,102691
139905,102727
139912,102759
139876,102745
139821,102724
139836,102703
139910,102754
139863,102726
139877,102747
139919,102747
139820,102742
139902,102774
139942,102769
139932,102769
139938,102775
139931,102745
139968,102755
139966,102776
139969,102784
139975,102752
139957,102761
140010,102793
139981,102771
139998,102764
140011,102766
139981,102791
140034,102782
140027,102814
140042,102811
140008,102808
140032,102800
140118,102813
140114,102805
140126,102830
140076,102824
140108,102805
140143,102828
140194,102816
140164,102829
140125,102821
140104,102808
140199,102838
140186,102870
140167,102840
140182,102834
140133,102854
140183,102849
140201,102856
140163,102829
140197,102817
140191,102841
140215,102841
140221,102837
140238,102849
140151,102838
140162,102825
140176,102855
140196,102827
140188,102843
140153,102782
140170,102820
140168,102831
140202,102854
140176,102828
140177,102820
140157,102819
140221,102844
140182,102810
140213,102846
140161,102806
140138,102815
140240,102853
140201,102816
140197,102805
140168,102842
140196,102860
140255,102856
140237,102842
140221,102844
140212,102849
140232,102854
140259,102850
140299,102862
140243,102879
140201,102821
140284,102852
140326,102868
140266,102878
140245,102855
140249,102853
140284,102839
140332,102883
140287,102871
140307,102856
140267,102825
140310,102863
140379,102884
140338,102862
140378,102853
140293,102885
140296,102856
140415,102875
140362,102921
140334,102877
140337,102883
140348,102873
140409,102906
140418,102890
140433,102884
140381,102908
140420,102896
140453,102914
140458,102907
140497,102934
140385,102899
140462,102914
140467,102909
140512,102950
140490,102928
140485,102915
140488,102955
140528,102939
140534,102944
140481,102932
140512,102955
140522,102931
140509,102945
140528,102938
140502,102930
140524,102942
140512,102935
140520,102930
140504,102887
140477,102906
140425,102902
140399,102883
140386,102879
140346,102843
140251,102831
140206,102772
140187,102785
140185,102795
140128,102771
140087,102755
140024,102739
140002,102749
140027,102735
139996,102721
139925,102714
139923,102709
139955,102731
139930,102698
139901,102698
139926,102701
139867,102706
139884,102702
139978,102721
139939,102730
139908,102695
139919,102702
140012,102740
140109,102752
140105,102764
140127,102770
140118,102766
140107,102793
140136,102804
140205,102771
140184,102818
140153,102793
140185,102794
140194,102810
140230,102806
140235,102799
140246,102813
140177,102832
140215,102789
140276,102825
140233,102828
140222,102814
140180,102796
140285,102810
140251,102844
140201,102801
140223,102811
140193,102793
140237,102823
140204,102777
140246,102805
140180,102806
140152,102804
140206,102776
140230,102785
140201,102809
140133,102800
140163,102787
140227,102828
140184,102795
140240,102807
140131,102772
140131,102794
140217,102795
140202,102800
140200,102794
140188,102791
140188,102795
140238,102826
140229,102778
140234,102759
140193,102832
140204,102822
140266,102800
140277,102842
140238,102823
140238,102796
140250,102826
140314,102855
140299,102819
140273,102841
140262,102824
140268,102819
140307,102821
140319,102832
140346,102836
140315,102803
140293,102822
140388,102854
140352,102835
140328,102842
140347,102838
140338,102862
140355,102819
140400,102857
140379,102864
140343,102804
140381,102849
140433,102848
140421,102878
140370,102874
140361,102847
140391,102866
140460,102836
140423,102866
140454,102850
140380,102865
140439,102882
140448,102885
140472,102857
140472,102886
140439,102874
140470,102879
140507,102913
140528,102887
140469,102882
140516,102912
140478,102912
140551,102871
140526,102901
140523,102868
140509,102886
140517,102914
140515,102882
140561,102878
140475,102869
140425,102878
140422,102853
140025,102695
140046,102714
140039,102686
140013,102681
139969,102686
139879,102647
139937,102632
139924,102682
139902,102682
139891,102625
139860,102659
139894,102685
139884,102640
139913,102668
139900,102673
139850,102657
139861,102649
139932,102671
139871,102673
139897,102643
139847,102671
139884,102654
139925,102674
139944,102655
139923,102700
139899,102673
139921,102689
139980,102672
139972,102674
139920,102684
139890,102662
139995,102706
139990,102658
140019,102678
139989,102708
139953,102703
139992,102684
140043,102724
140051,102686
140030,102734
139986,102703
140033,102686
140106,102708
140077,102731
140068,102726
140062,102731
140113,102743
140147,102722
140120,102757
140107,102755
140107,102745
140122,102750
140153,102742
140143,102766
140102,102695
140123,102727
140145,102748
140182,102729
140181,102743
140094,102725
140100,102716
140162,102749
140134,102737
140148,102749
140071,102703
140076,102713
140149,102758
140142,102754
140134,102712
140075,102735
140050,102723
140090,102701
140129,102734
140121,102719
140028,102698
140084,102706
140119,102723
140093,102711
140088,102703
140093,102692
140111,102688
140117,102732
140092,102692
140137,102703
140083,102734
140114,102685
140163,102709
140130,102732
140110,102694
140106,102716
140113,102724
140150,102718
140162,102705
140178,102708
140133,102728
140146,102718
140204,102751
140208,102773
140206,102750
140139,102728
140198,102719
140243,102777
140224,102753
140206,102775
140180,102735
140239,102748
140259,102781
140250,102747
140248,102753
140179,102772
140232,102742
140307,102759
140265,102796
140250,102746
140256,102773
140289,102761
140312,102772
140308,102770
140307,102780
140250,102753
140314,102786
140346,102778
140364,102775
140318,102812
140308,102759
140382,102820
140346,102803
140351,102787
140365,102781
140364,102814
140352,102801
140388,102779
140402,102802
140417,102810
140353,102778
140401,102794
140442,102841
140401,102811
140403,102816
140374,102789
140418,102835
140417,102848
139801,102544
139812,102582
139784,102554
139722,102537
139773,102578
139777,102568
139775,102579
139731,102545
139741,102553
139815,102592
139812,102570
139787,102570
139802,102579
139756,102567
139822,102580
139846,102596
139793,102596
139841,102609
139813,102593
139845,102596
139868,102607
139868,102609
139837,102608
139828,102583
139859,102596
139878,102607
139864,102602
139866,102602
139822,102606
139910,102603
139940,102617
139912,102615
139907,102628
139903,102604
139966,102615
139943,102615
139940,102618
139966,102610
139931,102623
140028,102651
139987,102643
139996,102640
140005,102630
139979,102646
140021,102626
140041,102674
139988,102628
139981,102619
139998,102641
140053,102662
140014,102619
140027,102648
139952,102641
139987,102628
140013,102636
139978,102633
139993,102614
139945,102590
139923,102647
139994,102632
139986,102637
139947,102613
139956,102632
139949,102590
139972,102631
139966,102601
139989,102608
139932,102619
139957,102597
139962,102650
139947,102604
139993,102591
139944,102644
139957,102620
140032,102609
140005,102632
140065,102623
140055,102656
140094,102640
140129,102643
140108,102676
140076,102655
140085,102641
140112,102654
140131,102673
140102,102661
140160,102663
140090,102671
140131,102663
140173,102677
140169,102674
140132,102671
140158,102655
140205,102707
140198,102693
140187,102677
140216,102676
140166,102678
140237,102733
140224,102677
140248,102701
140225,102693
140180,102697
140252,102696
140271,102678
140274,102710
140262,102727
140237,102720
140271,102715
140308,102702
140302,102709
140267,102735
140249,102692
140286,102694
140351,102712
140338,102720
140329,102741
140269,102698
140320,102719
140333,102730
140305,102707
140343,102730
140276,102725
140243,102704
140299,102686
140236,102681
140206,102653
140136,102637
140136,102655
140039,102596
140048,102589
139984,102596
139886,102540
139923,102551
139852,102550
139831,102526
139818,102544
139734,102511
139772,102513
139742,102509
139707,102492
139718,102499
139651,102494
139678,102482
139710,102481
139669,102505
139657,102456
139649,102493
139674,102513
139699,102494
139679,102511
139655,102469
139644,102472
139714,102490
139682,102487
139709,102498
139695,102501
139683,102510
139721,102497
139746,102515
139726,102518
139691,102473
139674,102517
139766,102510
139720,102519
139708,102481
139726,102498
139700,102514
139762,102511
139788,102529
139759,102538
139721,102471
139757,102521
139802,102509
139799,102547
139804,102491
139786,102547
139766,102520
139847,102519
139820,102534
139859,102537
139823,102547
139851,102543
139908,102564
139876,102546
139914,102551
139860,102553
139839,102549
139915,102528
139928,102566
139881,102555
139842,102554
139846,102548
139892,102538
139901,102534
139910,102576
139854,102517
139830,102526
139910,102523
139920,102553
139884,102588
139840,102521
139886,102557
139862,102525
139901,102547
139871,102575
139821,102483
139887,102534
139882,102562
139854,102541
139865,102529
139849,102549
139863,102541
139882,102579
139875,102508
139891,102552
139806,102517
139887,102540
139912,102551
139886,102572
139861,102536
139856,102523
139896,102583
139930,102571
139892,102559
139901,102521
139890,102565
139880,102562
139932,102583
139922,102545
139956,102535
139893,102578
139932,102558
139955,102557
140004,102570
139957,102594
139985,102568
139997,102587
140009,102554
140001,102590
140012,102582
139975,102579
139993,102566
140068,102598
140025,102627
140031,102607
139969,102612
140020,102571
140083,102593
140053,102606
140031,102624
140051,102604
140042,102621
140110,102631
140092,102627
140094,102589
140078,102615
140081,102611
140135,102627
140122,102636
140081,102593
140118,102615
140159,102633
140142,102640
140154,102637
140137,102626
140150,102626
140198,102670
140181,102652
140201,102656
140191,102626
140189,102638
140225,102676
140199,102634
140214,102671
140187,102646
140148,102656
140211,102627
140240,102677
140201,102659
140213,102657
140168,102643
140249,102661
140272,102672
140220,102650
140240,102638
140177,102619
140193,102640
140146,102620
140117,102613
140094,102575
140037,102575
140023,102552
140005,102524
139958,102512
139903,102546
139841,102498
139855,102485
139816,102487
139772,102486
139756,102489
139705,102450
139748,102443
139735,102477
139718,102458
139670,102447
139662,102423
139716,102441
139710,102458
139681,102447
139662,102448
139658,102433
139758,102481
139721,102472
139704,102437
139745,102460
139740,102474
139739,102480
139742,102444
139799,102475
139716,102462
139735,102462
139813,102479
139801,102495
139749,102477
139785,102474
139760,102495
139792,102476
139810,102495
139802,102496
139802,102512
139799,102482
139816,102500
139856,102510
139834,102500
139830,102479
139843,102504
139880,102524
139931,102541
139919,102553
139880,102503
139914,102547
139969,102534
139971,102540
139967,102546
139932,102546
139937,102568
140001,102569
139980,102561
139998,102552
139930,102522
139997,102546
139987,102547
139979,102542
140004,102557
139930,102524
139942,102531
140008,102568
139963,102530
140001,102545
139930,102532
139952,102538
139953,102559
139952,102516
139972,102546
139896,102504
139947,102519
139992,102526
139942,102531
139954,102516
139906,102499
139968,102528
139957,102517
139943,102492
139981,102530
139919,102529
139967,102508
139960,102503
140007,102533
139970,102551
139920,102500
139966,102548
139960,102547
140001,102534
139987,102546
139953,102538
140025,102542
140045,102575
140036,102555
139997,102546
139994,102549
140063,102584
140043,102537
140054,102565
140026,102574
140008,102537
140094,102557
140075,102597
140062,102588
140079,102602
140031,102563
140096,102571
140118,102620
140092,102596
140125,102558
140115,102572
140126,102613
140147,102565
140172,102602
140116,102587
140143,102580
140206,102610
140168,102617
140178,102606
140174,102596
140177,102589
140211,102619
140216,102610
140228,102609
140219,102597
140227,102632
140223,102679
140256,102605
140288,102645
140278,102639
140206,102658
140248,102630
140320,102670
140298,102651
140279,102636
140268,102635
140317,102680
140332,102621
140328,102663
140290,102668
140263,102660
140331,102636
140332,102686
140335,102643
140325,102659
140324,102664
140338,102668
140350,102651
140353,102655
140312,102662
140308,102673
140315,102646
140360,102645
140266,102638
140251,102638
140227,102617
140184,102636
140157,102582
140130,102572
140051,102550
140044,102533
