
113257,117277
113289,117275
113247,117210
113212,117210
113224,117192
113282,117269
113342,117280
113313,117250
113296,117243
113270,117231
113372,117264
113383,117310
113343,117264
113308,117256
113328,117229
113405,117291
113403,117302
113401,117263
113381,117218
113384,117287
113402,117310
113479,117289
113431,117326
113384,117230
113382,117273
113473,117301
113472,117325
113446,117274
113443,117289
113424,117247
113486,117295
113465,117328
113450,117287
113438,117279
113425,117236
113504,117292
113527,117328
113492,117273
113465,117278
113425,117247
113528,117285
113547,117327
113496,117297
113429,117269
113426,117256
113537,117286
113520,117324
113512,117264
113479,117282
113477,117253
113513,117301
113490,117268
113426,117225
113352,117171
113294,117170
113267,117170
113169,117177
113103,117070
112893,117025
112766,116954
112679,116893
112575,116895
112397,116814
112260,116767
112148,116681
112169,116687
112124,116719
112070,116658
112033,116641
112026,116636
112132,116658
112142,116723
112189,116699
112128,116657
112189,116714
112310,116744
112396,116766
112368,116782
112339,116762
112449,116779
112536,116876
112572,116843
112632,116846
112609,116864
112637,116863
112747,116915
112771,116956
112767,116945
112808,116933
112845,116945
112875,117032
112922,117025
112910,117025
112903,116978
112908,117005
113019,117040
113060,117042
113046,117064
113020,116983
113033,117061
113114,117033
113174,117098
113148,117094
113074,117051
113127,117060
113220,117123
113250,117098
113213,117081
113227,117098
113238,117082
113311,117127
113283,117135
113306,117079
113277,117087
113272,117122
113353,117172
113322,117109
113313,117123
113203,117071
113243,117094
113270,117139
113309,117117
113221,117088
113114,116988
113386,117116
113378,117100
113457,117133
113511,117143
113478,117121
113137,116937
113045,116938
112953,116882
112796,116792
112448,116664
112399,116662
112430,116674
112537,116727
112609,116743
112623,116760
112610,116689
112649,116759
112758,116805
112837,116821
112821,116831
112823,116784
112854,116831
112963,116878
112982,116894
113013,116884
112996,116883
113015,116902
113136,116897
113147,116930
113139,116925
113079,116918
113116,116885
113228,117007
113218,116978
113212,116944
113192,116931
113246,116931
113269,116988
113292,116991
113300,116988
113240,116959
113278,116962
113353,117025
113360,117024
113358,116969
113312,116974
113340,116972
113375,116992
113375,117016
113332,116975
113251,116907
113275,116920
113306,116976
113295,116947
113262,116898
113156,116885
113143,116858
113229,116919
113215,116878
113150,116859
113081,116763
113104,116817
113096,116833
113109,116840
113093,116809
113038,116799
113028,116768
113116,116848
113095,116826
113083,116761
112993,116771
113007,116764
113093,116827
113077,116833
113044,116810
113017,116728
113046,116793
113110,116855
113120,116845
113080,116777
113073,116773
113061,116820
113143,116836
113134,116812
113136,116795
113061,116814
113099,116791
113176,116869
113200,116864
113178,116844
113104,116809
113177,116811
113189,116898
113210,116858
113219,116827
113134,116827
113208,116824
113228,116880
113235,116858
113250,116856
113173,116823
113206,116864
113346,116853
113277,116867
113260,116818
113241,116826
113238,116851
113310,116872
113297,116860
113289,116864
113195,116812
113283,116820
113321,116898
113313,116896
113284,116865
113247,116821
113311,116895
113353,116870
113349,116894
113334,116877
113398,116889
113454,116901
113456,116936
113402,116892
113343,116903
113357,116860
113378,116876
113297,116848
113184,116773
113082,116697
113069,116730
112968,116676
112883,116635
112736,116609
112567,116486
112487,116466
112396,116448
112328,116385
112221,116383
112079,116311
112097,116330
112140,116313
112135,116356
112044,116270
112014,116289
112056,116331
112138,116308
112175,116357
112148,116383
112137,116307
112228,116387
112325,116426
112404,116434
112411,116436
112382,116477
112457,116464
112588,116537
112634,116554
112621,116548
112614,116569
112637,116548
112809,116660
112790,116636
112803,116636
112764,116626
112895,116659
112907,116689
112966,116681
112973,116718
112915,116679
112994,116724
113076,116750
113022,116741
113085,116740
113012,116721
113080,116756
113157,116775
113132,116773
113127,116762
113109,116724
113130,116742
113170,116776
113197,116805
113183,116748
113166,116713
113198,116782
113228,116786
113238,116788
113217,116756
113140,116732
113174,116746
113241,116805
113168,116772
113159,116730
113116,116696
113135,116712
113160,116763
113090,116736
113087,116696
113006,116658
113035,116683
113051,116711
113057,116692
113013,116687
112932,116664
112941,116652
113012,116715
112983,116693
112934,116658
112896,116580
112955,116672
112966,116687
112966,116668
112948,116624
112908,116584
112945,116679
113016,116646
113013,116701
113005,116696
112952,116613
112998,116676
113060,116678
113094,116704
113074,116680
113050,116680
113073,116678
113139,116718
113108,116712
113122,116717
113075,116666
113099,116685
113149,116781
113165,116725
113160,116738
113080,116670
113162,116749
113229,116789
113215,116760
113185,116754
113163,116700
113205,116772
113257,116793
113258,116789
113222,116730
113189,116735
113217,116763
113309,116793
113297,116807
113247,116772
113228,116775
113261,116733
113317,116806
113333,116778
113289,116755
113260,116752
113308,116763
113376,116826
113313,116786
113332,116781
113282,116754
113349,116767
113367,116797
113404,116801
113347,116819
113293,116717
113393,116781
113438,116818
113423,116820
113405,116793
113356,116775
113399,116770
113405,116834
113445,116832
113434,116755
113374,116765
113397,116792
113479,116863
113476,116830
113424,116789
113408,116778
113434,116820
113498,116830
113503,116858
113440,116789
113367,116741
113421,116778
113478,116846
113392,116814
113339,116732
113178,116684
113183,116718
113164,116671
113013,116625
112872,116535
112726,116471
112592,116407
112524,116418
112403,116356
112251,116270
112161,116217
112114,116242
112144,116254
112108,116222
111989,116208
111966,116180
112011,116189
112066,116224
112059,116213
112058,116218
112040,116196
112110,116237
112241,116290
112219,116289
112256,116271
112241,116281
112362,116323
112429,116372
112426,116366
112481,116385
112443,116340
112566,116413
112637,116435
112657,116462
112672,116465
112660,116441
112763,116480
112822,116517
112857,116516
112866,116530
112796,116472
112920,116547
112983,116603
112983,116552
112976,116585
112898,116545
113033,116564
113111,116603
113102,116575
113068,116627
112999,116555
113135,116638
113207,116639
113149,116633
113168,116608
113127,116622
113178,116618
113223,116650
113206,116641
113192,116640
113121,116625
113219,116631
113260,116676
113210,116616
113162,116621
113111,116616
113177,116626
113205,116662
113147,116601
113101,116607
113041,116566
113099,116596
113130,116595
113091,116579
113066,116578
112972,116523
113026,116571
113125,116618
113056,116583
113047,116562
112978,116513
113046,116561
113062,116577
113082,116591
113022,116528
113014,116527
113018,116570
113095,116558
113122,116580
113079,116563
113017,116506
113069,116580
113137,116582
113110,116545
113075,116589
113016,116512
113122,116607
113168,116571
113173,116579
113098,116563
113061,116520
113133,116576
113187,116604
113203,116610
113159,116624
113104,116557
113227,116638
113263,116655
113214,116614
113252,116607
113198,116645
113277,116616
113338,116678
113315,116668
113280,116633
113237,116633
113319,116625
113383,116666
113327,116689
113339,116620
113309,116641
113336,116627
113410,116687
113404,116645
113392,116678
113324,116616
113408,116689
113439,116703
113417,116672
113417,116638
113380,116649
113422,116672
113474,116705
113434,116682
113441,116658
113404,116669
113491,116671
113493,116697
113477,116688
113449,116654
113419,116656
113464,116641
113484,116705
113502,116686
113441,116645
113432,116617
113468,116682
113506,116714
113516,116667
113449,116631
113451,116638
113506,116637
113522,116702
113472,116684
113457,116625
113463,116644
113523,116704
113531,116720
113549,116701
113472,116664
113446,116607
113495,116682
113446,116671
113416,116598
113339,116556
113178,116548
113186,116505
113114,116501
113016,116444
112886,116340
112743,116354
112690,116275
112611,116289
112493,116243
112364,116149
112308,116163
112270,116118
112306,116147
112274,116143
112227,116100
112181,116071
112259,116164
112325,116172
112346,116148
112332,116176
112335,116142
112427,116209
112526,116240
112551,116256
112563,116242
112572,116259
112671,116308
112722,116323
112800,116361
112771,116327
112753,116310
112876,116390
112938,116432
112948,116393
112928,116378
112894,116395
113008,116439
113084,116475
113084,116477
113034,116438
113023,116444
113116,116463
113182,116506
113138,116506
113108,116506
113099,116448
113168,116501
113182,116541
113233,116512
113165,116526
113156,116493
113277,116527
113280,116547
113290,116545
113217,116539
113208,116478
113300,116542
113330,116562
113293,116518
113259,116501
113213,116516
113288,116508
113292,116535
113255,116508
113215,116475
113154,116487
113244,116486
113214,116505
113154,116463
113080,116401
113080,116431
113117,116421
113118,116456
113097,116420
112999,116415
112987,116355
112983,116412
113062,116425
113024,116406
112991,116403
112934,116339
112972,116413
113016,116418
112994,116372
112962,116375
112925,116381
113032,116417
113070,116415
113053,116391
113001,116390
112937,116358
113065,116422
113082,116425
113061,116406
113004,116383
113013,116373
113076,116405
113155,116453
113121,116424
113055,116416
113057,116405
113117,116412
113168,116420
113160,116444
113095,116412
113111,116393
113173,116462
113234,116447
113219,116498
113152,116426
113164,116391
113242,116478
113289,116479
113254,116452
113225,116469
113192,116409
113315,116484
113304,116492
113300,116468
113253,116460
113211,116432
113286,116496
113356,116481
113330,116489
113274,116460
113281,116459
113311,116496
113364,116470
113345,116499
113278,116462
113313,116467
113330,116531
113375,116464
113383,116527
113300,116439
113286,116466
113380,116515
113371,116514
113378,116460
113329,116460
113315,116424
113352,116484
113419,116505
113365,116475
113394,116483
113276,116478
113368,116475
113425,116516
113391,116499
113326,116467
113351,116457
113367,116491
113404,116530
113429,116460
113382,116493
113371,116486
113403,116504
113454,116491
113412,116496
113409,116463
113399,116462
113460,116529
113439,116518
113428,116510
113375,116445
113286,116459
113356,116458
113251,116465
113193,116373
113103,116344
112982,116261
112972,116285
112874,116256
112834,116231
112685,116166
112624,116121
112605,116145
112549,116157
112500,116074
112423,116050
112357,116052
112429,116056
112451,116083
112464,116083
112411,116037
112384,116032
112512,116094
112507,116141
112514,116106
112506,116107
112505,116144
112580,116142
112665,116215
112649,116141
112666,116150
112647,116171
112738,116228
112817,116239
112757,116226
112806,116189
112765,116216
112851,116294
112947,116294
112893,116266
112907,116230
112921,116286
112992,116331
113045,116324
112996,116335
112971,116290
113002,116295
113044,116355
113083,116315
113092,116328
113037,116347
113046,116295
113150,116371
113166,116373
113133,116372
113146,116336
113118,116340
113194,116369
113212,116417
113202,116351
113157,116325
113159,116345
113225,116344
113232,116415
113220,116334
113143,116334
113103,116324
113147,116349
113213,116350
113102,116311
113058,116269
113027,116282
113024,116294
113112,116325
113011,116262
112950,116224
112916,116262
113025,116254
112982,116251
112977,116234
112917,116247
112931,116207
112975,116285
112991,116259
112952,116233
112913,116233
112904,116245
113008,116308
113031,116277
112999,116297
112966,116253
112951,116281
112996,116286
113059,116341
113028,116249
112998,116254
113018,116257
113069,116314
113070,116326
113070,116295
113023,116291
113043,116279
113122,116336
113144,116331
113131,116303
113077,116316
113067,116277
113189,116333
113155,116348
113197,116379
113114,116321
113137,116294
113261,116358
113249,116416
113210,116354
113148,116340
113173,116349
113246,116360
113294,116401
113275,116366
113225,116356
113256,116383
113290,116403
113364,116415
113280,116419
113235,116334
113233,116388
113308,116405
113380,116434
113352,116386
113239,116357
113273,116363
113334,116372
113346,116394
113347,116385
113259,116367
113249,116363
113361,116387
113381,116389
113338,116381
113277,116352
113300,116342
113343,116394
113395,116418
113335,116384
113296,116343
113294,116346
113381,116404
113410,116408
113331,116386
113283,116349
113313,116368
113387,116381
113424,116411
113379,116376
113339,116373
113362,116375
113390,116393
113416,116391
113402,116381
113333,116338
113332,116369
113391,116375
113429,116426
113388,116396
113307,116335
113311,116362
113344,116356
113289,116371
113234,116330
113126,116254
113027,116254
112997,116202
112954,116215
112840,116106
112658,116055
112558,116040
112491,116015
112484,115991
112367,115962
112226,115881
112209,115899
112254,115921
112203,115905
112235,115914
112174,115861
112201,115913
112254,115939
112332,115915
112320,115955
112277,115916
112329,115937
112464,116023
112462,115991
112497,116018
112488,116001
112564,116030
112627,116095
112664,116070
112681,116093
112619,116114
112717,116082
112792,116186
112828,116169
112827,116144
112792,116124
112828,116185
112896,116218
112953,116214
112956,116200
112918,116149
112966,116216
112996,116272
113039,116217
113058,116243
112995,116200
113043,116246
113099,116307
113156,116286
113148,116273
113060,116253
113144,116284
113172,116339
113244,116338
113220,116328
113134,116275
113227,116301
113236,116338
113282,116375
113221,116324
113202,116259
113181,116333
113223,116366
113239,116347
113135,116298
113103,116271
113073,116269
113119,116260
113110,116301
113059,116254
112974,116209
113001,116232
112996,116239
112990,116215
112962,116220
112905,116149
112870,116207
112952,116207
112950,116201
112919,116195
112828,116156
112888,116190
112930,116201
112963,116253
112912,116194
112892,116160
112892,116200
112969,116238
113018,116231
112979,116234
112906,116184
112988,116233
112984,116274
113052,116241
113049,116234
112977,116212
113026,116206
113093,116282
113068,116249
113136,116252
113011,116219
113089,116264
113106,116267
113172,116271
113139,116311
113101,116247
113122,116253
113196,116300
113201,116316
113155,116275
113168,116270
113160,116269
113250,116286
113227,116314
113247,116295
113155,116233
113209,116277
113302,116311
113265,116310
113268,116279
113222,116258
113201,116286
113341,116277
113303,116331
113283,116315
113257,116239
113306,116315
113307,116330
113358,116336
113327,116328
113269,116311
113306,116288
113389,116343
113357,116305
113359,116325
113263,116294
113322,116309
113380,116324
113373,116334
113385,116325
113307,116263
113349,116330
113397,116364
113396,116358
113378,116332
113334,116297
113325,116317
113422,116366
113437,116356
113350,116335
113374,116308
113375,116370
113457,116334
113453,116359
113418,116357
113354,116338
113432,116327
113480,116397
113482,116342
113455,116358
113364,116344
113433,116381
113508,116390
113466,116375
113451,116355
113351,116338
113364,116345
113381,116336
113331,116290
113227,116240
113092,116225
113038,116165
112952,116163
112887,116098
112759,116048
112537,115949
112512,115945
112462,115943
112404,115890
112257,115812
112141,115818
112100,115767
112179,115807
112126,115807
112103,115785
112013,115739
112086,115772
112171,115800
112243,115808
112221,115794
112212,115832
112317,115845
112409,115947
112415,115888
112491,115941
112462,115904
112520,115947
112598,116048
112647,116015
112694,116023
112635,116027
112684,116072
112809,116110
112821,116110
112807,116081
112810,116087
112874,116108
112937,116150
112963,116142
112934,116159
112918,116100
112977,116197
113023,116180
112990,116154
113053,116176
112966,116177
113027,116167
113123,116231
113075,116190
113073,116168
113059,116189
113091,116219
113148,116226
113156,116248
113122,116215
113079,116189
113119,116219
113207,116261
113159,116236
113179,116191
113075,116202
113139,116207
113158,116247
113161,116208
113086,116203
113018,116116
113063,116185
113086,116167
113032,116174
113019,116144
112960,116131
112959,116142
112997,116124
112984,116154
112937,116107
112889,116104
112906,116134
112967,116117
112901,116142
112925,116120
112862,116066
112848,116132
112957,116148
112915,116114
112949,116113
112841,116081
112932,116110
112976,116196
112974,116148
113005,116181
112918,116102
112957,116125
113049,116192
112972,116182
113020,116147
112951,116103
113024,116163
113109,116205
113056,116178
113073,116163
112978,116135
113066,116155
113149,116221
113127,116182
113104,116192
113067,116139
113143,116230
113203,116204
113176,116235
113163,116209
113116,116158
113201,116204
113228,116241
113282,116228
113213,116224
113173,116175
113281,116233
113279,116280
113331,116258
113251,116224
113231,116188
113312,116288
113383,116262
113346,116280
113327,116270
113275,116209
113332,116282
113423,116320
113393,116262
113333,116258
113302,116243
113326,116268
113409,116292
113411,116294
113368,116278
113283,116229
113366,116229
113386,116307
113375,116268
113361,116232
113306,116227
113344,116250
113420,116276
113385,116225
113365,116229
113245,116189
113383,116261
113388,116251
113387,116236
113325,116248
113307,116204
113368,116244
113407,116263
113380,116267
113385,116202
113292,116246
113371,116223
113428,116292
113422,116260
113362,116251
113331,116245
113378,116263
113425,116299
113429,116265
113375,116244
113337,116237
113390,116288
113461,116272
113411,116275
113369,116263
113315,116221
113411,116280
113457,116273
113367,116261
113348,116250
113209,116195
113251,116225
113209,116207
113140,116164
113034,116121
112866,116036
112857,116030
112780,116009
112649,115958
112522,115896
112372,115852
112347,115824
112299,115825
112247,115798
112130,115733
112064,115711
112130,115717
112145,115751
112104,115757
112112,115731
112081,115697
112161,115765
112201,115777
112218,115800
112239,115794
112235,115775
112347,115857
112384,115860
112424,115849
112429,115869
112440,115853
112555,115951
112604,115978
112612,115957
112658,115948
112620,115972
112723,115988
112755,116036
112802,116016
112786,116012
112805,116004
112849,116035
112877,116106
112898,116081
112902,116035
112853,116041
112921,116106
113000,116089
113006,116068
112940,116056
112920,116012
113017,116122
113048,116096
113018,116112
113038,116077
113023,116088
113054,116120
113132,116132
113114,116131
113090,116081
113028,116123
113059,116093
113141,116166
113084,116133
113040,116108
112986,116092
113074,116071
113055,116101
113032,116088
113009,116079
112911,116031
113022,116094
113006,116065
112984,116050
112936,116002
112919,116025
112946,116062
112949,116078
112899,116048
112923,116010
112864,116028
112893,115985
113017,116073
112930,116037
112863,116011
112837,115975
112946,116051
112981,116030
112936,116033
112911,116018
112902,115984
112950,116075
112995,116040
112971,116005
112941,116023
112921,116012
113035,116044
113018,116093
112999,116065
113023,116057
112948,116004
113035,116066
113097,116112
113060,116079
113038,116051
113043,116035
113116,116129
113153,116135
113114,116099
113118,116076
113107,116095
113156,116120
113233,116154
113177,116128
113153,116101
113129,116071
113265,116127
113274,116162
113222,116145
113188,116139
113183,116089
113272,116108
113296,116208
113262,116155
113276,116120
113248,116133
113272,116162
113359,116160
113318,116166
113248,116098
113268,116138
113280,116138
113365,116160
113312,116126
113316,116153
113243,116123
113331,116157
113376,116195
113327,116180
113335,116158
113255,116157
113342,116135
113397,116209
113385,116188
113297,116177
113302,116128
113362,116186
113427,116199
113408,116210
113345,116173
113304,116165
113381,116194
113414,116197
113410,116158
113350,116177
113317,116159
113411,116192
113430,116237
113391,116170
113375,116181
113323,116141
113387,116206
113442,116185
113423,116234
113383,116126
113363,116175
113411,116176
113467,116199
113442,116188
113393,116149
113406,116151
113415,116211
113497,116194
113452,116168
113418,116199
113367,116164
113409,116176
113383,116182
113331,116137
113225,116100
113127,116066
113148,116092
113097,116028
113007,116022
112885,115942
112789,115938
112808,115914
112764,115948
112651,115852
112615,115854
112533,115797
112556,115840
112587,115858
112538,115838
112506,115833
112473,115785
112558,115847
112586,115879
112587,115842
112549,115831
112582,115843
112629,115912
112720,115908
112705,115929
112701,115881
112677,115911
112791,115908
112822,115995
112823,115936
112821,115950
112850,115960
112927,115965
112967,116034
112911,115986
112926,115991
112886,115971
113013,115996
113059,116031
113029,116041
112998,115979
113034,116024
113045,116078
113147,116095
113084,116066
113107,116058
113071,116051
113156,116086
113186,116116
113187,116074
113130,116053
113184,116073
113207,116145
113274,116147
113213,116123
113229,116106
113219,116119
113269,116125
113310,116194
113274,116132
113253,116128
113245,116106
113263,116159
113295,116147
113254,116109
113169,116081
113145,116074
113210,116128
113223,116085
113174,116081
113086,116061
113108,116023
113149,116091
113157,116105
113112,116037
113013,116031
113017,115998
113088,116071
113104,116104
113090,116053
112989,116000
113054,115999
113074,116081
113114,116075
113098,116057
113007,116036
113004,115994
113114,116076
113157,116061
113112,116054
113079,116020
113074,116048
113205,116085
113209,116115
113146,116085
113149,116061
113127,116061
113218,116077
113261,116120
113199,116107
113161,116046
113189,116084
113252,116095
113321,116132
113228,116131
113237,116060
113228,116094
113320,116093
113352,116130
113289,116106
113251,116120
113240,116100
113377,116140
113368,116141
113383,116134
113255,116086
113328,116122
113397,116147
113382,116195
113383,116117
113313,116076
113353,116122
113431,116153
113445,116175
113393,116154
113377,116140
113392,116132
113443,116181
113465,116200
113439,116144
113386,116177
113376,116130
113500,116184
113519,116201
113446,116225
113423,116154
113427,116198
113509,116217
113512,116237
113495,116218
113445,116201
113442,116216
113537,116220
113555,116269
113491,116215
113471,116227
113465,116218
113531,116234
113594,116256
113512,116252
113451,116173
113478,116225
113539,116269
113533,116270
113528,116205
113463,116204
113477,116212
113540,116251
113594,116272
113539,116269
113508,116180
113506,116209
113562,116249
113613,116241
113582,116230
113521,116224
113541,116197
113566,116250
113583,116262
113576,116246
113515,116187
113496,116209
113460,116211
113442,116224
113358,116139
113215,116090
113114,116047
113098,116040
113004,116041
112884,115940
112698,115826
112624,115849
112594,115835
112491,115801
112440,115734
112307,115693
112303,115693
112330,115715
112349,115710
112305,115701
112263,115656
112301,115671
112372,115741
112402,115764
112394,115727
112426,115744
112439,115785
112529,115816
112563,115809
112606,115822
112560,115803
112659,115798
112688,115907
112780,115910
112758,115896
112748,115858
112823,115867
112852,115976
112917,115933
112912,115953
112893,115928
112912,115919
112995,115974
112998,115978
113012,116018
112991,115979
113004,115977
113043,116018
113095,116053
113081,116001
113018,115986
113066,115998
113108,116058
113147,116066
113151,116019
113072,115984
113109,116037
113198,116062
113237,116085
113209,116061
113130,116033
113194,116054
113251,116085
113273,116106
113217,116059
113181,116053
113169,116051
113239,116082
113192,116080
113188,116058
113054,115995
113145,116034
113137,116046
113150,116019
113145,116029
113055,115973
113049,115960
113141,116046
113102,116018
113061,115946
112992,115946
112993,115963
113100,115983
113084,116013
113053,115951
112964,115940
113022,115972
113122,115989
113072,116018
113067,115952
112994,115955
113072,115983
113078,116004
113070,116007
113091,115981
113027,115954
113088,115972
113113,116006
113143,116013
113132,116012
113077,115962
113097,115988
113182,116044
113176,116018
113193,116031
113079,115992
113153,116010
113240,116075
113198,116018
113245,116080
113180,116014
113195,116037
113283,116046
113284,116081
113257,116024
113177,116007
113266,116047
113315,116076
113342,116041
113275,116051
113244,116032
113314,116075
113350,116070
113344,116064
113365,116069
113265,116066
113318,116025
113405,116126
113401,116085
113407,116091
113298,116066
113342,116064
113424,116138
113440,116089
113405,116080
113333,116070
113377,116040
113421,116123
113459,116095
113408,116060
113387,116053
113379,116088
113504,116095
113458,116086
113457,116072
113357,116037
113396,116060
113458,116107
113469,116085
113446,116073
113344,116060
113408,116031
113477,116097
113454,116059
113431,116072
113377,116038
113413,116093
113520,116067
113474,116091
113456,116079
113388,116030
113446,116034
113497,116114
113465,116066
113467,116096
113400,116068
113479,116064
113470,116101
113477,116118
113504,116090
113446,116056
113460,116079
113557,116113
113578,116108
113497,116089
113465,116039
113499,116098
113561,116102
113546,116097
113471,116060
113365,116028
113391,115976
113350,116045
113288,115987
113162,115924
113053,115843
112982,115877
112977,115845
112870,115818
112770,115761
112672,115700
112688,115708
112651,115732
112612,115705
112566,115673
112478,115645
112548,115662
112557,115705
112557,115655
112553,115716
112493,115632
112597,115706
112611,115741
112669,115717
112615,115735
112611,115677
112688,115759
112779,115742
112773,115770
112782,115737
112776,115752
112805,115799
112913,115840
112907,115785
112914,115821
112853,115778
112983,115874
113020,115873
113026,115869
113043,115872
113011,115862
113034,115889
113125,115926
113110,115880
113070,115917
113016,115846
113078,115924
113198,115948
113174,115916
113108,115877
113102,115865
113134,115874
113193,115951
113198,115909
113167,115898
113147,115874
113196,115938
113275,115958
113252,115945
113190,115914
113165,115866
113242,115962
113308,115935
113289,115963
113221,115939
113171,115868
113182,115882
113276,115921
113210,115943
113190,115903
113099,115850
113121,115901
113180,115893
113179,115893
113106,115883
113028,115835
113115,115816
113134,115889
113057,115845
113068,115866
112968,115813
113033,115834
113128,115852
113096,115882
113043,115805
112990,115817
113075,115828
113132,115858
113069,115826
113064,115826
112978,115817
113080,115802
113147,115851
113074,115808
113111,115861
113036,115819
113102,115825
113213,115846
113171,115881
113138,115825
113080,115832
113153,115844
113227,115873
113207,115901
113177,115816
113150,115833
113203,115863
113260,115902
113193,115870
113241,115854
113138,115846
113217,115878
113307,115886
113214,115884
113264,115895
113160,115862
113250,115881
113254,115924
113292,115907
113262,115864
113214,115828
113248,115917
113334,115912
113286,115909
113270,115862
113251,115847
113278,115881
113366,115911
113318,115925
113294,115873
113267,115864
113314,115870
113408,115936
113353,115917
113338,115882
113305,115873
113319,115941
113390,115918
113368,115910
113379,115907
113324,115894
113404,115910
113421,115915
113439,115913
113378,115916
113339,115869
113402,115943
113461,115947
113444,115893
113397,115905
113334,115867
113435,115920
113453,115929
113446,115891
113426,115862
113391,115871
113400,115867
113472,115914
113421,115886
113392,115877
113362,115836
113464,115887
113456,115910
113452,115836
113443,115864
113392,115856
113433,115878
113494,115906
113489,115891
113409,115854
113409,115848
113490,115901
113528,115944
113464,115857
113487,115899
113427,115888
113461,115910
113520,115934
113478,115907
113407,115833
113337,115821
113333,115828
113345,115834
113214,115776
113176,115761
113079,115664
113119,115743
113087,115691
113029,115672
112931,115620
112899,115619
112903,115633
112963,115626
112879,115612
112843,115582
112845,115570
112849,115630
112900,115631
112871,115616
112812,115584
112793,115595
112890,115582
112939,115660
112866,115653
112847,115604
112854,115583
112917,115644
112954,115674
112984,115630
112928,115656
112874,115622
113031,115674
113022,115668
113039,115700
112994,115644
113028,115635
113067,115707
113110,115708
113102,115715
113109,115722
113053,115710
113138,115770
113178,115738
113175,115746
113130,115754
113121,115729
113196,115772
113257,115757
113209,115741
113192,115772
113168,115741
113261,115772
113326,115822
113242,115757
113278,115787
113197,115780
113282,115814
113359,115818
113368,115800
113274,115775
113273,115797
113324,115779
113396,115847
113330,115796
113287,115811
113258,115768
113317,115814
113362,115825
113301,115806
113291,115782
113232,115768
113287,115783
113309,115794
113241,115778
113177,115748
113180,115763
113254,115774
113255,115792
113222,115775
113144,115761
113153,115755
113209,115769
113236,115783
113196,115763
113179,115735
113149,115724
113159,115725
113220,115778
113201,115739
113177,115756
113135,115714
113188,115719
113264,115749
113206,115710
113162,115684
113156,115717
113194,115705
113258,115754
113234,115744
113211,115713
113166,115694
113248,115767
113245,115758
113293,115756
113232,115718
113179,115705
113283,115782
113301,115790
113326,115787
113290,115719
113259,115773
113322,115792
113365,115835
113355,115770
113320,115764
113310,115787
113391,115833
113393,115859
113431,115842
113388,115818
113364,115830
113458,115854
113486,115896
113447,115833
113440,115834
113393,115820
113490,115888
113476,115910
113470,115848
113449,115840
113442,115851
113501,115873
113530,115877
113499,115888
113434,115839
113479,115855
113491,115896
113583,115920
113536,115912
113472,115880
113474,115855
113567,115923
113603,115972
113554,115888
113508,115903
113523,115901
113577,115932
113601,115957
113586,115897
113539,115897
113491,115902
113587,115919
113613,115923
113540,115956
113479,115902
113556,115916
113570,115921
113614,115921
113578,115911
113527,115870
113521,115907
113610,115926
113604,115933
113623,115929
113576,115883
113523,115912
113623,115912
113688,115989
113596,115893
113548,115890
113553,115900
113592,115940
113592,115907
113508,115894
113407,115833
113366,115784
113358,115795
113335,115800
113166,115729
113044,115675
112988,115690
112985,115659
112926,115640
112874,115622
112761,115566
112737,115554
112805,115582
112742,115568
112683,115539
112662,115524
112603,115555
112688,115542
112753,115567
112699,115575
112656,115547
112665,115553
112779,115631
112785,115623
112849,115648
112758,115614
112804,115615
112879,115684
112939,115645
112919,115695
112867,115638
112923,115688
113020,115690
113058,115744
113020,115721
113001,115686
113041,115671
113123,115752
113137,115806
113125,115699
113100,115732
113100,115770
113167,115770
113248,115790
113224,115757
113144,115752
113160,115777
113266,115783
113318,115845
113275,115790
113230,115789
113252,115772
113354,115839
113348,115848
113387,115847
113297,115814
113338,115828
113368,115863
113463,115880
113371,115835
113348,115820
113376,115830
113400,115862
113417,115869
113380,115845
113334,115849
113348,115789
113376,115857
113388,115874
113353,115862
113230,115796
113274,115802
113279,115820
113302,115818
113268,115819
113199,115756
113230,115749
113267,115815
113241,115768
113235,115793
113160,115738
113190,115728
113254,115813
113199,115777
113208,115762
113152,115706
113193,115767
113211,115789
113263,115787
113215,115731
113184,115718
113205,115747
113250,115781
113248,115791
113227,115734
113214,115719
113192,115753
113270,115757
113287,115763
113255,115731
113214,115686
113207,115751
113279,115745
113326,115776
113294,115731
113248,115714
113246,115753
113301,115734
113388,115787
113333,115751
113318,115721
113272,115764
113359,115775
113375,115802
113424,115801
113369,115778
113361,115748
113439,115806
113437,115813
113428,115793
113379,115783
113403,115756
113466,115819
113451,115806
113472,115797
113377,115785
113449,115784
113537,115851
113511,115853
113475,115823
113431,115764
113444,115822
113576,115837
113565,115870
113534,115819
113460,115797
113515,115786
113577,115874
113582,115840
113557,115843
113471,115780
113521,115833
113582,115846
113582,115855
113545,115863
113493,115811
113523,115786
113580,115847
113562,115849
113516,115801
113494,115794
113522,115809
113599,115842
113609,115845
113537,115825
113487,115764
113538,115850
113621,115855
113578,115835
113585,115833
113511,115815
113573,115809
113640,115848
113671,115832
113599,115842
113537,115836
113593,115857
113626,115899
113649,115853
113584,115840
113541,115813
113536,115799
113572,115847
113477,115804
113403,115773
113251,115692
113191,115710
113181,115662
113086,115645
112995,115550
112870,115531
112842,115516
112827,115516
112840,115468
112766,115431
112621,115426
112653,115399
112705,115449
112637,115418
112626,115435
112554,115351
112626,115426
112654,115438
112684,115429
112669,115446
112644,115391
112682,115441
112770,115465
112796,115505
112753,115471
112782,115475
112777,115496
112897,115527
112897,115581
112938,115517
112889,115539
112931,115543
113001,115602
113042,115607
113058,115586
112970,115588
113051,115638
113082,115685
113152,115685
113094,115648
113082,115615
113117,115672
113190,115685
113205,115700
113205,115638
113149,115652
113193,115647
113276,115730
113246,115694
113242,115693
113205,115668
113235,115677
113344,115760
113296,115747
113293,115714
113276,115693
113264,115716
113376,115790
113374,115716
113358,115733
113305,115712
113339,115755
113401,115763
113324,115707
113328,115749
113232,115712
113268,115711
113322,115737
113307,115706
113237,115723
113162,115641
113218,115695
113248,115725
113217,115692
113198,115676
113095,115570
113171,115678
113177,115675
113139,115644
113130,115630
113097,115570
113095,115626
113176,115635
113133,115659
113132,115591
113079,115560
113113,115621
113173,115666
113171,115657
113137,115619
113107,115589
113151,115631
113243,115660
113216,115664
113158,115647
113138,115593
113203,115664
113274,115696
113252,115672
113253,115674
113152,115606
113252,115676
113293,115708
113323,115714
113263,115679
113247,115635
113283,115678
113371,115691
113320,115721
113294,115681
113270,115656
113327,115671
113390,115717
113382,115691
113323,115675
113282,115631
113342,115682
113452,115754
113426,115709
113362,115688
113302,115646
113393,115687
113471,115732
113441,115698
113411,115721
113365,115662
113436,115703
113493,115742
113442,115743
113448,115727
113380,115700
113452,115726
113499,115753
113481,115759
113447,115709
113408,115728
113485,115755
113519,115769
113531,115733
113448,115750
113439,115708
113470,115760
113552,115799
113530,115769
113525,115737
113454,115754
113540,115758
113579,115781
113545,115751
113556,115767
113504,115745
113562,115770
113539,115792
113558,115810
113548,115756
113514,115755
113555,115802
113586,115802
113567,115828
113567,115775
113519,115742
113594,115798
113597,115816
113605,115777
113602,115809
113512,115732
113569,115800
113617,115810
113602,115823
113564,115775
113548,115756
113616,115774
113642,115830
113610,115810
113588,115778
113481,115727
113514,115760
113532,115765
113403,115711
113326,115638
113206,115579
113187,115619
113165,115628
113070,115524
112952,115517
112899,115481
112901,115480
112926,115488
112846,115462
112808,115410
112755,115408
112797,115412
112811,115471
112772,115408
112765,115401
112684,115399
112758,115416
112845,115461
112791,115462
112800,115410
112778,115458
112855,115487
112899,115500
112912,115501
112919,115473
112840,115477
112917,115522
113029,115559
112982,115508
112966,115526
113003,115520
113066,115569
113132,115566
113142,115590
113099,115596
113099,115549
113205,115631
113214,115633
113229,115624
113168,115626
113182,115544
113278,115656
113277,115656
113292,115642
113263,115635
113221,115638
113341,115650
113348,115692
113325,115711
113335,115651
113300,115616
113391,115705
113418,115678
113394,115684
113377,115672
113373,115676
113419,115709
113452,115737
113474,115695
113395,115702
113346,115626
113442,115691
113446,115714
113407,115668
113397,115691
113304,115668
113359,115658
113412,115694
113350,115695
113258,115617
113269,115624
113329,115670
113341,115650
113273,115608
113256,115610
113139,115609
113242,115602
113272,115626
113209,115608
113187,115574
113117,115588
113221,115604
113262,115646
113237,115575
113206,115614
113137,115553
113216,115591
113319,115655
113229,115600
113218,115617
113205,115553
113291,115615
113296,115651
113306,115625
113277,115612
113219,115614
113287,115628
113358,115639
113327,115659
113279,115583
113309,115652
113371,115659
113378,115664
113353,115629
113314,115638
113333,115598
113335,115659
113427,115680
113408,115647
113367,115636
113346,115653
113420,115658
113460,115691
113451,115649
113390,115615
113382,115616
113477,115691
113450,115670
113478,115663
113438,115640
113408,115643
113476,115716
113529,115689
113488,115701
113453,115647
113413,115669
113500,115692
113525,115725
113526,115668
113467,115656
113502,115655
113570,115693
113571,115735
113546,115706
113536,115695
113507,115637
113582,115732
113582,115742
113564,115737
113533,115687
113524,115691
113595,115751
113633,115722
113582,115722
113564,115699
113560,115711
113582,115751
113628,115717
113589,115738
113579,115685
113531,115710
113604,115764
113640,115727
113614,115750
113541,115683
113544,115685
113646,115750
113685,115769
113602,115724
113570,115698
113598,115732
113643,115780
113676,115791
113660,115753
113572,115711
113623,115739
113651,115781
113710,115814
113690,115772
113614,115724
113618,115768
113643,115782
113698,115789
113604,115742
113498,115696
113454,115648
113464,115700
113404,115658
113310,115636
113206,115565
113114,115511
113110,115546
113100,115514
113041,115528
112898,115430
112890,115454
112928,115472
112949,115453
112918,115428
112838,115447
112845,115406
112935,115423
112923,115478
112871,115412
112875,115416
112830,115414
112941,115451
112982,115498
112957,115455
112872,115424
112943,115466
112983,115498
113062,115505
112984,115479
113001,115495
112976,115460
113086,115499
113109,115566
113141,115519
113076,115511
113097,115528
113210,115595
113231,115611
113191,115577
113170,115540
113188,115559
113296,115605
113331,115657
113289,115647
113274,115557
113262,115621
113365,115645
113425,115669
113360,115628
113364,115643
113354,115608
113449,115648
113461,115667
113443,115655
113395,115641
113414,115651
113506,115672
113495,115714
113500,115696
113432,115645
113433,115690
113487,115717
113506,115680
113485,115679
113407,115627
113425,115690
113448,115678
113464,115666
113449,115660
113323,115613
113340,115624
113350,115648
113346,115640
113285,115583
113250,115569
113218,115549
113244,115606
113278,115618
113262,115583
113148,115538
113225,115596
113238,115600
113263,115592
113223,115586
113173,115537
113225,115554
113256,115620
113251,115580
113224,115586
113183,115564
113200,115547
113291,115611
113257,115598
113291,115592
113235,115555
113266,115569
113322,115641
113325,115566
113312,115632
113256,115576
113295,115574
113363,115642
113365,115665
113337,115606
113316,115628
113346,115612
113406,115644
113430,115659
113376,115654
113367,115614
113359,115647
113468,115666
113484,115669
113462,115650
113367,115644
113399,115629
113528,115707
113503,115693
113495,115676
113394,115633
113473,115650
113536,115741
113539,115666
113498,115684
113448,115644
113492,115692
113546,115660
113588,115741
113505,115679
113456,115647
113505,115667
113605,115719
113598,115696
113592,115682
113475,115649
113561,115684
113645,115707
113601,115686
113616,115683
113530,115668
113555,115706
113661,115717
113668,115697
113598,115683
113524,115680
113613,115680
113679,115755
113684,115720
113600,115705
113587,115659
113617,115708
113661,115711
113696,115744
113624,115672
113612,115675
113606,115703
113670,115710
113721,115712
113668,115725
113596,115680
113652,115704
113732,115740
113725,115740
113676,115716
113598,115678
113660,115714
113736,115739
113750,115757
113686,115741
113605,115677
113635,115686
113654,115691
113614,115698
113527,115656
113381,115587
113357,115577
113336,115537
113273,115517
113132,115465
113050,115419
113020,115415
113020,115415
112992,115405
112914,115338
112834,115315
112859,115348
112889,115355
112845,115359
112851,115334
112768,115268
112824,115337
112890,115376
112904,115371
112877,115358
112825,115328
112845,115353
112943,115396
112966,115416
112972,115404
112899,115360
112990,115427
113018,115434
113056,115437
113021,115433
113025,115379
113033,115456
113127,115486
113149,115468
113142,115444
113132,115435
113150,115513
113221,115508
113218,115542
113265,115513
113187,115464
113264,115519
113299,115561
113327,115550
113289,115512
113251,115474
113337,115545
113367,115551
113409,115598
113408,115526
113332,115498
113445,115580
113451,115600
113503,115608
113441,115583
113422,115537
113449,115607
113531,115667
113520,115618
113512,115615
113414,115566
113492,115611
113535,115651
113514,115598
113497,115614
113388,115522
113462,115588
113477,115616
113439,115575
113447,115571
113324,115496
113382,115535
113428,115592
113360,115526
113347,115498
113249,115475
113302,115504
113362,115537
113351,115522
113297,115520
113211,115422
113306,115514
113352,115511
113282,115510
113303,115467
113198,115477
113259,115512
113361,115511
113331,115518
113285,115543
113258,115450
113347,115543
113356,115520
113409,115559
113324,115508
113315,115506
113377,115563
113444,115568
113419,115560
113367,115556
113323,115547
113376,115565
113485,115590
113451,115617
113386,115531
113366,115584
113450,115600
113510,115610
113515,115625
113462,115590
113404,115591
113455,115612
113550,115615
113546,115631
113505,115629
113466,115612
113538,115628
113597,115668
113602,115643
113531,115616
113472,115586
113552,115617
113621,115692
113602,115636
113590,115656
113517,115587
113625,115622
113630,115688
113632,115665
113601,115634
113574,115612
113622,115666
113687,115695
113624,115671
113658,115640
113560,115666
113667,115682
113722,115707
113681,115706
113665,115643
113623,115665
113694,115701
113693,115676
113743,115708
113673,115673
113630,115637
113677,115681
113737,115715
113694,115668
113680,115632
113610,115662
113665,115689
113724,115671
113695,115665
113715,115676
113646,115617
113702,115690
113763,115686
113731,115677
113719,115623
113633,115625
113732,115658
113759,115729
113747,115694
113681,115640
113693,115614
113740,115706
113762,115681
113753,115697
113727,115663
113674,115626
113741,115664
113733,115726
113714,115685
113608,115605
113568,115580
113551,115626
113551,115578
113426,115546
113360,115514
113225,115440
113300,115453
113283,115476
113184,115408
113102,115425
113053,115331
113069,115382
113104,115435
113074,115372
113004,115347
113014,115357
113077,115388
113097,115418
113064,115380
113041,115405
113028,115348
113116,115394
113150,115425
113148,115461
113065,115381
113069,115401
113161,115456
113231,115478
113158,115442
113184,115444
113147,115414
113238,115467
113280,115516
113240,115477
113203,115463
113231,115439
113271,115513
113353,115488
113314,115492
113318,115501
113269,115441
113352,115529
113446,115556
113358,115511
113352,115479
113321,115524
113439,115532
113487,115563
113469,115563
113409,115525
113378,115545
113488,115557
113523,115618
113502,115559
113497,115573
113469,115536
113561,115596
113607,115627
113567,115595
113499,115574
113533,115579
113558,115611
113604,115606
113575,115593
113567,115571
113475,115577
113563,115578
113577,115630
113570,115598
113457,115551
113450,115526
113523,115604
113516,115551
113478,115561
113459,115529
113390,115542
113475,115539
113457,115578
113430,115520
113404,115532
113391,115488
113409,115529
113474,115566
113459,115549
113357,115516
113365,115503
113419,115544
113432,115529
113446,115526
113363,115516
113354,115488
113457,115541
113453,115523
113437,115521
113397,115493
113357,115496
113469,115513
113499,115562
113444,115542
113444,115502
113401,115503
113491,115534
113499,115556
113514,115537
113431,115521
113475,115544
113505,115569
113558,115548
113583,115582
113492,115525
113499,115537
113579,115572
113615,115601
113571,115590
113517,115509
113521,115555
113610,115590
113623,115626
113599,115571
113571,115578
113542,115517
113631,115606
113688,115642
113624,115583
113591,115533
113594,115596
113648,115591
113667,115624
113667,115579
113626,115573
113616,115590
113666,115606
113723,115658
113679,115607
113638,115581
113610,115565
113720,115633
113729,115605
113690,115607
113619,115571
113645,115594
113703,115630
113713,115618
113732,115630
113629,115558
113647,115618
113745,115663
113784,115668
113700,115653
113693,115602
113660,115622
113755,115658
113781,115627
113739,115636
113642,115609
113667,115640
113737,115670
113789,115667
113749,115641
113653,115610
113693,115588
113772,115667
113789,115630
113760,115648
113645,115606
113696,115598
113794,115669
113783,115652
113801,115661
113719,115665
113730,115633
113776,115646
113784,115682
113699,115613
113610,115594
113568,115563
113573,115597
113564,115601
113423,115558
113378,115486
113312,115460
113314,115488
113331,115499
113216,115442
113153,115381
113110,115396
113201,115406
113165,115435
113125,115370
113087,115396
113066,115384
113143,115409
113156,115398
113139,115410
113050,115341
113084,115392
113173,115396
113195,115453
113170,115419
113127,115380
113125,115389
113232,115463
113267,115464
113235,115440
113197,115415
113210,115458
113331,115496
113322,115509
113323,115482
113257,115454
113334,115507
113381,115539
113436,115512
113398,115507
113337,115494
113382,115503
113498,115562
113515,115551
113498,115571
113411,115501
113461,115542
113524,115635
113561,115609
113561,115596
113506,115555
113548,115603
113628,115622
113670,115673
113620,115671
113579,115603
113648,115632
113681,115672
113720,115687
113676,115645
113625,115615
113630,115629
113720,115682
113726,115665
113685,115629
113609,115620
113631,115627
113651,115650
113692,115671
113644,115635
113549,115574
113580,115597
113619,115617
113616,115640
113578,115599
113487,115567
113495,115589
113564,115614
113584,115600
113497,115558
113431,115540
113467,115576
113532,115594
113527,115587
113475,115570
113435,115549
113463,115569
113516,115605
113528,115595
113480,115583
113451,115550
113457,115582
113534,115604
113532,115584
113504,115576
113461,115538
113508,115580
113566,115608
113569,115593
113537,115587
113450,115560
113528,115583
113604,115613
113609,115619
113559,115582
113487,115582
113568,115604
113648,115644
113607,115616
113610,115619
113564,115594
113595,115622
113684,115618
113614,115635
113632,115630
113556,115571
113666,115617
113664,115671
113659,115639
113669,115620
113591,115578
113657,115600
113690,115671
113694,115643
113690,115652
113615,115585
113685,115615
113764,115676
113742,115648
113727,115642
113687,115602
113702,115638
113779,115675
113771,115672
113722,115619
113722,115645
113738,115668
113760,115669
113818,115662
113781,115663
113710,115627
113785,115675
113809,115728
113796,115693
113796,115651
113718,115629
113760,115679
113845,115702
113788,115711
113788,115640
113716,115672
113777,115688
113832,115732
113804,115669
113845,115667
113734,115638
113837,115706
113855,115687
113875,115702
113821,115686
113765,115626
113833,115713
113850,115696
113851,115711
113804,115694
113732,115610
113733,115668
113723,115629
113672,115613
113593,115591
113409,115549
113401,115490
113429,115538
113352,115478
113242,115412
113108,115378
113103,115356
113183,115413
113093,115346
113052,115310
112928,115277
112982,115287
113047,115338
113002,115317
113032,115313
112898,115273
112999,115294
113096,115318
113067,115331
113061,115317
113001,115288
113090,115349
113139,115368
113130,115360
113115,115352
113105,115358
113182,115393
113236,115408
113237,115440
113261,115424
113196,115393
113263,115428
113334,115473
113316,115463
113349,115487
113256,115433
113385,115479
113471,115499
113428,115529
113449,115531
113334,115466
113487,115530
113537,115552
113549,115542
113495,115546
113473,115543
113547,115565
113604,115597
113603,115600
113604,115576
113538,115543
113608,115591
113712,115631
113683,115651
113653,115615
113631,115614
113702,115653
113766,115678
113733,115665
113719,115643
113655,115614
113695,115653
113748,115654
113684,115655
113678,115636
113635,115605
113638,115610
113691,115653
113659,115616
113568,115576
113514,115540
113572,115584
113608,115599
113544,115567
113511,115534
113456,115512
113478,115560
113546,115585
113483,115545
113453,115531
113412,115507
113451,115515
113506,115562
113425,115514
113414,115498
113392,115487
113432,115516
113474,115554
113480,115518
113412,115499
113399,115496
113480,115535
113486,115537
113514,115543
113468,115494
113410,115488
113497,115536
113586,115558
113549,115538
113507,115525
113515,115508
113566,115549
113636,115590
113589,115566
113565,115559
113572,115540
113626,115577
113680,115620
113675,115580
113597,115578
113610,115548
113691,115603
113708,115622
113696,115587
113635,115578
113638,115545
113707,115585
113772,115625
113736,115611
113702,115603
113670,115569
113747,115622
113788,115653
113739,115632
113736,115584
113723,115595
113814,115649
113808,115657
113799,115633
113769,115610
113735,115617
113842,115645
113885,115662
113816,115662
113798,115633
113721,115612
113815,115671
113849,115669
113864,115668
113781,115649
113758,115606
113832,115659
113883,115686
113813,115632
113799,115644
113782,115612
113845,115643
113919,115699
113867,115650
113821,115625
113789,115619
113860,115675
113940,115666
113865,115670
113850,115643
113796,115661
113865,115651
113942,115726
113887,115693
113819,115657
113806,115654
113881,115657
113891,115702
113825,115655
113725,115603
113641,115581
113687,115580
113618,115560
113546,115505
113415,115456
113306,115427
113310,115432
113297,115421
113193,115385
113115,115327
113097,115316
113138,115337
113114,115340
113089,115318
113045,115283
112983,115287
113080,115337
113098,115349
113062,115332
113062,115281
113009,115300
113091,115354
113130,115345
113126,115367
113100,115312
113088,115339
113179,115358
113198,115411
113214,115399
113179,115378
113176,115372
113259,115404
113324,115440
113305,115417
113259,115396
113270,115407
113352,115460
113413,115476
113412,115475
113359,115448
113360,115444
113454,115486
113501,115532
113493,115512
113430,115473
113452,115508
113547,115527
113584,115590
113581,115562
113513,115492
113539,115514
113606,115546
113682,115597
113644,115561
113583,115511
113617,115552
113698,115587
113738,115620
113686,115585
113594,115535
113646,115531
113713,115576
113725,115612
113673,115573
113599,115522
113637,115524
113684,115558
113696,115591
113649,115563
113565,115504
113598,115495
113634,115553
113669,115564
113583,115527
113510,115470
113521,115473
113570,115497
113577,115516
113526,115513
113497,115452
113419,115450
113514,115494
113560,115502
113497,115483
113416,115459
113459,115470
113518,115485
113514,115490
113507,115480
113422,115436
113450,115454
113552,115458
113562,115519
113492,115456
113478,115463
113483,115454
113546,115461
113590,115509
113528,115495
113445,115446
113531,115471
113548,115506
113563,115506
113602,115488
113497,115465
113518,115449
113619,115534
113606,115500
113616,115494
113517,115453
113572,115465
113599,115541
113621,115532
113645,115481
113590,115503
113582,115491
113694,115536
113710,115545
113660,115524
113638,115499
113618,115515
113705,115531
113765,115571
113680,115535
113641,115492
113660,115503
113733,115579
113756,115564
113753,115541
113684,115556
113688,115515
113739,115565
113756,115584
113765,115530
113722,115541
113728,115563
113784,115581
113815,115596
113786,115549
113719,115514
113749,115541
113808,115588
113801,115553
113760,115555
113745,115545
113748,115552
113831,115597
113826,115574
113801,115530
113743,115506
113739,115548
113854,115591
113855,115598
113826,115551
113773,115535
113773,115518
113858,115614
113849,115610
113809,115549
113784,115541
113778,115570
113892,115605
113888,115590
113829,115593
113748,115518
113783,115538
113861,115607
113880,115575
113804,115557
113759,115540
113722,115524
113805,115563
113715,115532
113637,115494
113510,115392
113550,115419
113510,115448
113445,115409
113445,115397
113294,115318
113327,115328
113338,115365
113354,115356
113268,115326
113187,115270
113209,115276
113303,115373
113285,115339
113256,115298
113213,115283
113209,115325
113293,115391
113295,115367
113257,115316
113210,115325
113256,115350
113351,115368
113351,115377
113324,115385
113265,115331
113289,115359
113430,115398
113420,115395
113359,115367
113354,115346
113382,115423
113512,115411
113474,115426
113463,115408
113411,115415
113455,115389
113546,115470
113545,115439
113542,115423
113482,115402
113538,115474
113598,115444
113624,115484
113608,115485
113519,115434
113619,115455
113653,115436
113689,115468
113647,115470
113623,115442
113696,115476
113713,115518
113734,115529
113729,115477
113653,115477
113699,115460
113744,115527
113748,115528
113720,115497
113675,115445
113739,115531
113751,115510
113764,115510
113720,115490
113651,115470
113653,115505
113730,115501
113681,115482
113673,115454
113600,115439
113622,115459
113659,115497
113617,115477
113615,115445
113510,115407
113576,115446
113629,115463
113595,115466
113600,115440
113467,115393
113538,115411
113593,115477
113584,115432
113580,115427
113501,115416
113529,115408
113632,115489
113602,115454
113602,115434
113502,115411
113549,115401
113656,115500
113609,115451
113609,115425
113529,115413
113623,115419
113637,115491
113663,115485
113638,115435
113551,115386
113622,115477
113730,115512
113691,115471
113638,115462
113585,115434
113696,115478
113764,115496
113693,115501
113668,115466
113651,115417
113685,115503
113754,115516
113739,115486
113719,115460
113657,115437
113717,115523
113812,115501
113777,115508
113740,115522
113649,115451
113756,115467
113797,115514
113783,115520
113764,115506
113700,115473
113776,115490
113831,115517
113822,115513
113743,115475
113723,115462
113776,115491
113859,115551
113778,115500
113802,115482
113744,115472
113824,115501
113852,115550
113849,115526
113812,115539
113715,115474
113826,115486
113869,115547
113858,115521
113825,115492
113798,115493
113825,115493
113846,115545
113851,115536
113815,115513
113794,115483
113820,115489
113858,115560
113854,115534
113858,115522
113791,115490
113857,115564
113909,115522
113856,115538
113854,115513
113783,115463
113829,115550
113853,115543
113785,115492
113744,115468
113577,115407
113614,115418
113571,115373
113517,115372
113414,115333
113300,115273
113345,115290
113318,115312
113229,115238
113218,115216
113118,115176
113163,115225
113165,115207
113155,115246
113121,115191
113060,115174
113117,115192
113172,115245
113188,115260
113144,115184
113135,115191
113140,115230
113244,115266
113211,115273
113240,115215
113171,115221
113220,115289
113314,115280
113321,115326
113296,115261
113287,115279
113364,115311
113442,115366
113395,115332
113394,115332
113379,115307
113459,115399
113510,115416
113518,115399
113493,115392
113472,115365
113551,115417
113601,115443
113592,115449
113565,115423
113550,115407
113608,115438
113663,115460
113657,115446
113619,115411
113594,115391
113689,115482
113763,115483
113710,115463
113671,115450
113650,115474
113715,115445
113780,115470
113765,115481
113713,115457
113694,115444
113719,115498
113786,115488
113700,115457
113671,115463
113604,115417
113716,115445
113719,115469
113668,115435
113606,115416
113525,115379
113612,115418
113672,115403
113584,115372
113528,115381
113437,115339
113571,115389
113598,115387
113518,115393
113455,115308
113475,115345
113490,115353
113494,115358
113528,115370
113448,115348
113422,115340
113512,115361
113539,115364
113505,115385
113490,115337
113452,115339
113496,115362
113563,115382
113498,115399
113505,115317
113471,115327
113525,115397
113606,115406
113531,115378
113546,115380
113503,115359
113592,115375
113616,115416
113590,115354
113551,115380
113558,115332
113571,115393
113640,115435
113658,115363
113594,115362
113582,115362
113668,115415
113671,115433
113656,115379
113620,115385
113652,115401
113670,115423
113725,115437
113713,115450
113683,115398
113656,115395
113738,115430
113745,115458
113716,115419
113707,115424
113644,115412
113751,115460
113763,115472
113770,115408
113695,115413
113719,115413
113783,115451
113806,115458
113755,115420
113741,115408
113733,115431
113804,115406
113824,115458
113792,115458
113716,115417
113752,115396
113786,115501
113833,115465
113800,115449
113764,115408
113738,115429
113847,115473
113859,115468
113777,115459
113767,115427
113767,115424
113820,115505
113832,115473
113850,115473
113753,115429
113761,115433
113854,115479
113841,115467
113778,115449
113690,115387
113605,115367
113693,115411
113604,115375
113503,115328
113384,115297
113312,115226
113344,115294
113303,115236
113270,115228
113126,115175
113079,115137
113146,115198
113127,115137
113119,115158
113031,115103
113020,115117
113080,115113
113136,115123
113074,115161
113020,115116
113032,115150
113128,115132
113138,115154
113129,115163
113040,115136
113072,115145
113166,115179
113207,115204
113184,115165
113188,115167
113167,115210
113271,115207
113294,115235
113301,115245
113230,115216
113274,115190
113355,115280
113389,115266
113380,115250
113367,115225
113373,115273
113452,115262
113467,115321
113436,115305
113422,115221
113423,115288
113518,115353
113540,115326
113555,115331
113507,115293
113515,115307
113602,115361
113610,115341
113609,115344
113520,115291
113563,115280
113668,115414
113630,115347
113655,115344
113577,115358
113595,115304
113682,115405
113676,115396
113633,115360
113562,115292
113601,115350
113641,115326
113659,115359
113607,115334
113487,115276
113576,115329
113579,115311
113604,115362
113517,115332
113457,115267
113424,115276
113527,115320
113488,115317
113510,115268
113396,115267
113413,115247
113464,115258
113462,115268
113390,115277
113354,115192
113411,115244
113431,115248
113447,115288
113396,115237
113362,115197
113393,115226
113467,115248
113453,115244
113428,115247
113392,115180
113429,115264
113486,115259
113459,115265
113475,115264
113408,115209
113452,115241
113524,115290
113535,115274
113504,115301
113457,115238
113484,115284
113562,115273
113604,115334
113539,115256
113481,115231
113517,115255
113630,115295
113618,115325
113565,115273
113525,115253
113574,115286
113649,115303
113619,115305
113610,115299
113544,115272
113585,115269
113650,115356
113674,115320
113635,115316
113583,115254
113644,115300
113658,115320
113660,115283
113623,115297
113611,115277
113624,115311
113704,115306
113734,115336
113656,115287
113624,115264
113700,115292
113748,115355
113681,115368
113705,115305
113656,115304
113704,115329
113718,115380
113712,115329
113745,115354
113655,115306
113683,115348
113712,115366
113745,115376
113721,115335
113627,115284
113738,115331
113722,115353
113718,115321
113709,115352
113621,115297
113699,115325
113772,115342
113773,115364
113746,115313
113689,115304
113702,115291
113793,115336
113750,115343
113713,115283
113610,115263
113681,115278
113651,115313
113604,115213
113500,115251
113348,115132
113396,115169
113362,115174
113294,115160
113233,115077
113109,115023
113131,115077
113152,115045
113099,115060
113029,114987
112963,114956
113010,115012
113065,115062
113027,115009
112976,114986
112960,114987
113022,115037
113068,115039
113043,115032
113046,115008
112980,114990
113035,115076
113096,115060
113145,115064
113083,115093
113028,115038
113090,115063
113198,115119
113195,115095
113168,115125
113151,115105
113212,115115
113310,115140
113298,115180
113261,115114
113254,115117
113340,115169
113392,115185
113386,115209
113378,115178
113295,115174
113394,115193
113476,115242
113479,115227
113458,115222
113365,115194
113485,115232
113535,115260
113522,115263
113512,115228
113470,115242
113560,115294
113589,115298
113581,115289
113554,115262
113529,115260
113579,115272
113672,115318
113602,115296
113611,115260
113512,115262
113582,115284
113595,115287
113605,115240
113511,115264
113456,115205
113535,115244
113556,115252
113521,115270
113478,115176
113414,115171
113436,115222
113468,115224
113415,115187
113384,115170
113349,115154
113391,115174
113418,115210
113415,115168
113347,115154
113317,115139
113394,115186
113428,115226
113356,115172
113386,115171
113322,115155
113370,115203
113392,115202
113421,115169
113351,115166
113361,115152
113377,115187
113454,115229
113456,115231
113422,115162
113378,115168
113436,115195
113484,115239
113481,115252
113428,115178
113400,115199
113461,115246
113515,115263
113478,115260
113498,115232
113463,115230
113520,115268
113588,115275
113554,115272
113506,115233
113494,115222
113586,115302
113587,115306
113615,115281
113559,115265
113534,115252
113612,115301
113647,115315
113633,115263
113560,115281
113577,115249
113639,115314
113708,115304
113674,115333
113599,115283
113573,115289
113664,115323
113713,115316
113695,115351
113656,115315
113574,115287
113715,115332
113700,115356
113704,115341
113659,115294
113608,115287
113692,115360
113726,115351
113717,115346
113664,115297
113595,115310
113712,115374
113749,115321
113743,115383
113691,115316
113636,115327
113708,115303
113740,115356
113691,115323
113677,115318
113647,115289
113696,115348
113750,115342
113728,115356
113702,115299
113647,115300
113746,115331
113783,115342
113732,115321
113678,115321
113661,115292
113743,115316
113772,115366
113725,115369
113681,115297
113628,115285
113660,115327
113633,115285
113598,115265
113480,115178
113384,115152
113387,115207
113353,115169
113283,115120
113167,115067
113143,115046
113138,115050
113165,115074
113067,115041
112990,115020
112994,114994
113039,115044
113053,115063
113042,115033
113020,114984
112989,115023
113071,115046
113116,115076
113065,115021
113028,115040
113042,115036
113112,115063
113156,115111
113149,115094
113113,115054
113087,115047
113224,115136
113245,115115
113230,115117
113195,115096
113230,115127
113311,115147
113344,115215
113360,115144
113295,115134
113289,115140
113408,115214
113410,115240
113440,115177
113377,115168
113398,115193
113463,115259
113491,115206
113515,115255
113424,115214
113459,115185
113545,115247
113612,115268
113545,115247
113459,115223
113531,115228
113585,115239
113651,115284
113593,115237
113548,115231
113575,115237
113623,115233
113698,115278
113604,115276
113533,115234
113582,115227
113584,115254
113649,115263
113592,115279
113508,115203
113518,115224
113530,115234
113567,115233
113492,115244
113428,115201
113432,115192
113445,115213
113502,115193
113436,115226
113366,115165
113370,115170
113451,115195
113424,115228
113411,115174
113353,115161
113338,115158
113427,115203
113435,115184
113401,115139
113360,115108
113329,115139
113444,115194
113458,115201
113425,115170
113373,115128
113366,115146
113449,115170
113473,115219
113442,115133
113401,115130
113432,115166
113464,115205
113513,115174
113477,115225
113439,115142
113468,115160
113520,115190
113583,115230
113505,115188
113462,115160
113509,115176
113571,115246
113571,115203
113574,115245
113479,115177
113540,115205
113605,115238
113620,115226
113566,115252
113532,115205
113553,115210
113651,115252
113629,115270
113630,115210
113567,115196
113548,115241
113644,115233
113685,115279
113602,115221
113554,115213
113571,115212
113702,115260
113685,115293
113655,115215
113613,115215
113625,115253
113653,115262
113705,115250
113621,115236
113628,115208
113585,115226
113702,115279
113657,115268
113689,115271
113604,115250
113667,115254
113747,115308
113700,115275
113685,115239
113594,115228
113646,115254
113733,115280
113701,115280
113706,115253
113643,115221
113629,115276
113714,115263
113751,115286
113669,115266
113638,115257
113659,115256
113758,115289
113744,115318
113757,115292
113629,115252
113665,115296
113749,115291
113727,115326
113704,115275
113563,115225
113578,115240
113600,115205
113554,115200
113416,115116
113294,115080
113235,115102
113239,115068
113173,115035
113116,114999
112975,114951
113008,114946
113018,114966
112971,114964
112954,114934
112854,114880
112880,114873
112968,114942
112920,114941
112922,114907
112830,114880
112931,114930
112965,114965
112990,114963
112947,114945
112907,114889
112984,114945
113050,114999
113049,114998
113063,114970
113025,114976
113050,114979
113120,115028
113161,115024
113128,115000
113136,115012
113150,115051
113272,115097
113262,115104
113241,115067
113203,115061
113290,115065
113308,115163
113320,115101
113312,115059
113286,115098
113350,115110
113419,115145
113383,115108
113428,115157
113328,115067
113405,115169
113475,115192
113479,115184
113459,115138
113416,115136
113469,115168
113573,115232
113536,115209
113491,115174
113451,115152
113518,115185
113570,115244
113569,115206
113501,115191
113467,115137
113510,115189
113561,115197
113501,115187
113460,115171
113382,115127
113433,115141
113456,115157
113447,115150
113389,115125
113333,115083
113345,115114
113434,115130
113342,115109
113333,115101
113252,115093
113316,115046
113386,115086
113312,115107
113301,115058
113243,115068
113304,115073
113385,115094
113329,115080
113330,115060
113236,115074
113309,115070
113375,115113
113316,115087
113318,115092
113279,115067
113338,115082
113411,115089
113396,115092
113355,115079
113314,115071
113411,115112
113480,115150
113419,115104
113447,115122
113347,115085
113419,115122
113452,115129
113467,115152
113467,115090
113404,115115
113503,115117
113537,115182
113490,115111
113508,115136
113437,115113
113526,115162
113538,115164
113578,115158
113556,115121
113482,115126
113566,115162
113582,115201
113595,115162
113557,115109
113526,115131
113584,115151
113673,115224
113604,115150
113594,115151
113570,115134
113586,115177
113688,115219
113645,115212
113593,115182
113582,115151
113627,115175
113675,115201
113628,115219
113607,115157
113547,115152
113620,115208
113666,115174
113672,115203
113631,115131
113581,115136
113660,115198
113684,115225
113662,115153
113599,115156
113613,115144
113669,115183
113686,115179
113697,115219
113638,115150
113598,115148
113643,115183
113706,115179
113633,115193
113656,115165
113607,115122
113693,115212
113675,115191
113656,115178
113585,115155
113595,115145
113713,115203
113724,115219
113696,115145
113638,115159
113635,115182
113700,115195
113695,115227
113634,115157
113582,115169
113490,115120
113514,115099
113494,115127
113350,115060
113254,115003
113176,115008
113177,114982
113161,114970
113048,114941
112975,114850
112906,114864
112914,114837
112981,114882
112911,114845
112867,114808
112793,114851
112891,114843
112922,114893
112896,114845
112836,114832
112851,114826
112876,114860
112958,114890
112946,114886
112906,114851
112858,114846
112976,114883
113041,114930
113007,114902
113015,114881
113001,114917
113099,114955
113114,114966
113097,114963
113113,114913
113105,114969
113192,114993
113183,114992
113238,114977
113199,114994
113161,114952
113289,115053
113305,115046
113268,115023
113275,115002
113301,115003
113308,115030
113375,115037
113373,115051
113302,115027
113331,114992
113395,115097
113422,115070
113454,115069
113392,115039
113410,115060
113481,115108
113467,115113
113503,115064
113412,115072
113425,115063
113527,115113
113499,115101
113472,115092
113394,115051
113456,115048
113485,115095
113510,115116
113440,115044
113349,115014
113320,115042
113415,115032
113401,115056
113377,115041
113297,115013
113239,115004
113358,115018
113344,115067
113300,114997
113244,114966
113213,114992
113293,114973
113299,115024
113236,114978
113208,114970
113165,114965
113259,114980
113301,114990
113256,115013
113250,114951
113246,114992
113322,114992
113311,115010
113322,115014
113274,114971
113242,114980
113336,115025
113391,115054
113371,115002
113283,115019
113302,114974
113416,115066
113447,115103
113383,115053
113318,115025
113365,115037
113416,115042
113488,115052
113425,115072
113413,115030
113403,115089
113463,115065
113523,115071
113457,115097
113446,115030
113460,115067
113504,115061
113573,115123
113515,115076
113491,115046
113475,115089
113576,115112
113562,115124
113538,115078
113508,115051
113485,115102
113580,115131
113590,115074
113563,115127
113514,115070
113532,115076
113629,115145
113650,115159
113611,115059
113556,115089
113565,115090
113643,115128
113627,115153
113608,115071
113592,115099
113563,115109
113631,115141
113638,115150
