11111,11111
0,0
82272,82301
121665,115387
121688,115354
121666,115347
121669,115373
121676,115348
121692,115344
121721,115404
121729,115398
121776,115408
121738,115368
121815,115393
121792,115434
121800,115378
121780,115391
121839,115399
121795,115440
121827,115387
121849,115428
121775,115395
121836,115409
121797,115425
121833,115383
121797,115436
121752,115364
121748,115384
121776,115389
121742,115369
121770,115363
121717,115386
121704,115351
121709,115329
121670,115346
121702,115326
121683,115355
121699,115320
121715,115318
121678,115344
121721,115337
121704,115375
121728,115344
121763,115364
121746,115328
121758,115379
121764,115328
121809,115378
121783,115399
121807,115369
121808,115385
121839,115386
121823,115402
121884,115412
121888,115439
121878,115439
121908,115436
121959,115430
121920,115425
122023,115487
121975,115472
122016,115471
122060,115497
122067,115502
122102,115502
122124,115540
122139,115488
122155,115532
122151,115566
122196,115523
122203,115561
122203,115516
122258,115590
122222,115570
122256,115571
122306,115606
122331,115595
122329,115596
122353,115627
122329,115621
122350,115612
122409,115628
122356,115616
122428,115602
122398,115652
122441,115629
122446,115647
122474,115674
122510,115662
122456,115688
122489,115642
122496,115695
122502,115698
122542,115652
122525,115711
122524,115661
122585,115709
122563,115717
122580,115693
122618,115725
122612,115709
122657,115740
122600,115714
122670,115728
122687,115749
122672,115755
122718,115748
122684,115762
122729,115742
122735,115796
122732,115794
122776,115785
122777,115776
122792,115799
122771,115762
122796,115756
122845,115794
122825,115785
122806,115821
122820,115777
122885,115829
122851,115787
122864,115804
122843,115808
122876,115827
122889,115801
122993,115850
123149,115899
123125,115870
121252,115051
121249,115040
121219,115031
121409,115143
121454,115140
121459,115118
121468,115151
121555,115177
121569,115202
121603,115222
121610,115182
121632,115207
121657,115227
121655,115207
121745,115247
121739,115254
121774,115260
121771,115256
121828,115304
121842,115277
121840,115323
121826,115283
121852,115303
121870,115334
121869,115293
121858,115289
121911,115326
121872,115343
121913,115308
121881,115315
121883,115348
121861,115314
121927,115317
121864,115292
121856,115303
121851,115305
121852,115322
121822,115253
121852,115280
121860,115265
121827,115283
121785,115262
121839,115249
121802,115242
121828,115266
121809,115260
121823,115248
121838,115273
121851,115248
121821,115305
121873,115278
121853,115288
121847,115257
121915,115279
121894,115338
121930,115264
121949,115308
121958,115334
122004,115321
122023,115344
122022,115335
122076,115375
122104,115385
122106,115403
122091,115372
122154,115408
122178,115391
122173,115406
122192,115409
122209,115432
122267,115433
122263,115431
122286,115484
122288,115441
122350,115480
122376,115489
122360,115474
122380,115486
122424,115501
122399,115502
122436,115511
122458,115519
122462,115498
122495,115533
122463,115549
122497,115512
122508,115518
122520,115528
122571,115559
122503,115546
122579,115594
122537,115532
122558,115545
122588,115566
122615,115572
122591,115554
122599,115534
122582,115553
122633,115573
122632,115588
122636,115577
122611,115535
122643,115580
122648,115575
122646,115589
122673,115572
122662,115555
122647,115558
122684,115614
122728,115605
122685,115591
122725,115574
122722,115592
122717,115580
122739,115620
122736,115579
122746,115565
122751,115607
122793,115600
122755,115605
122807,115606
122774,115576
122793,115599
122816,115646
122798,115587
122824,115643
122816,115565
122807,115602
122825,115627
122835,115612
122808,115593
122859,115580
122865,115623
122869,115650
122878,115598
122863,115626
122904,115620
122920,115639
122887,115627
122919,115640
122904,115636
122937,115621
122938,115632
122955,115680
122948,115658
122950,115605
122969,115623
122929,115637
122983,115646
122968,115677
122969,115650
122974,115632
122978,115672
123013,115667
122981,115695
123008,115630
122975,115632
122994,115688
123014,115669
123023,115633
122991,115666
123042,115659
123049,115658
123034,115682
123006,115673
123050,115645
123063,115640
123017,115661
123063,115660
123002,115675
123033,115644
123042,115621
123075,115669
123072,115656
123048,115654
123098,115657
123095,115656
123099,115650
123073,115679
123051,115629
123061,115651
123023,115613
122998,115603
122987,115594
122899,115603
122856,115553
122750,115489
122622,115464
122512,115392
122405,115343
122285,115243
122111,115197
122002,115166
121870,115085
121794,115038
121710,115022
121613,114948
121583,114948
121532,114907
121430,114911
121432,114893
121401,114844
121331,114852
121357,114856
121312,114871
121319,114828
121357,114840
121341,114880
121322,114859
121390,114867
121393,114851
121398,114861
121409,114883
121495,114934
121454,114932
121512,114933
121563,114964
121581,114959
121641,115028
121709,114990
121709,114990
121774,115048
121777,115081
121817,115084
121869,115081
121858,115111
121928,115120
121962,115197
121972,115165
122027,115153
122020,115163
122042,115172
122063,115208
122096,115215
122068,115211
122076,115199
122104,115188
122120,115197
122125,115211
122107,115204
122151,115217
122176,115231
122145,115230
122225,115238
122184,115246
122184,115246
122262,115261
122225,115273
122236,115269
122297,115315
122310,115272
122318,115303
122376,115356
122345,115336
122366,115296
122388,115303
122427,115338
122404,115341
122454,115355
122433,115380
122452,115337
122439,115374
122435,115350
122456,115340
122428,115366
122480,115341
122422,115337
122417,115350
122414,115329
122394,115361
122384,115359
122376,115340
122364,115361
122308,115304
122328,115283
122335,115297
122305,115331
122320,115301
122280,115285
122299,115279
122311,115311
122261,115284
122282,115315
122264,115310
122290,115289
122303,115314
122300,115354
122314,115314
122373,115338
122358,115316
122350,115360
122409,115360
122371,115373
122439,115363
122431,115440
122466,115414
122467,115402
122498,115406
122540,115472
122548,115420
122571,115474
122569,115442
122624,115488
122622,115473
122637,115480
122689,115501
122650,115543
122707,115517
122720,115544
122735,115553
122720,115560
122768,115529
122768,115574
122798,115542
122775,115573
122788,115606
122786,115600
122835,115573
122865,115618
122847,115583
122867,115613
122839,115621
122860,115612
122865,115575
122916,115631
122894,115619
122910,115621
122900,115624
122885,115635
122948,115635
122885,115661
122920,115642
122940,115628
122923,115650
122953,115657
122972,115686
122973,115642
122960,115665
123016,115683
122995,115716
123020,115658
123028,115692
122998,115649
123064,115699
123040,115687
123036,115703
123077,115722
123076,115695
123124,115708
123098,115734
123120,115753
123163,115753
123129,115777
123111,115711
123184,115776
123148,115743
123165,115749
123177,115770
123157,115763
123210,115787
123161,115769
123197,115789
123240,115769
123191,115780
123233,115771
123192,115784
123269,115778
123226,115784
123260,115782
123247,115826
123246,115789
123245,115781
123292,115826
123273,115805
123279,115843
123304,115841
123320,115836
123321,115852
123340,115844
123352,115840
123352,115845
123367,115849
123368,115866
123386,115869
123381,115870
123422,115868
123425,115891
123392,115862
123381,115857
123342,115853
123314,115842
123252,115771
123144,115750
123074,115731
122982,115639
122863,115580
122711,115523
122575,115456
122460,115401
122340,115358
122245,115302
122154,115250
122065,115276
121959,115186
121891,115191
121817,115142
121794,115105
121723,115111
121624,115048
121605,115074
121551,115037
121555,115021
121475,115030
121449,114973
121454,115009
121448,114992
121391,114950
121401,114989
121363,114986
121355,114980
121371,114957
121369,114957
121397,114985
121364,114922
121321,114961
121379,114966
121385,114950
121349,114947
121402,114964
121405,114931
121381,114971
121416,114946
121394,114995
121401,114938
121376,114970
121413,114977
121413,114986
121417,114949
121420,114973
121400,114975
121392,114949
121378,114953
121415,114954
121402,114994
121424,114957
121420,114981
121390,114962
121415,114953
121386,114975
121396,114963
121352,114955
121396,114926
121383,114948
121347,114915
121393,114970
121372,114928
121389,114917
121395,114945
121435,114922
121395,114938
121429,114938
121413,114964
121443,114945
121461,114986
121488,114963
121456,114977
121462,114988
121515,114955
121513,115001
121516,114960
121510,114964
121485,114967
121536,114985
121506,114986
121525,114969
121521,114960
121491,114978
121486,114966
121514,114947
121470,114948
121472,114927
121454,114956
121440,114935
121480,114915
121431,114972
121407,114907
121459,114952
121433,114927
121416,114944
121443,114933
121376,114927
121412,114893
121397,114939
121407,114932
121401,114922
121384,114899
121395,114921
121384,114873
121442,114937
121407,114899
121417,114922
121423,114888
121435,114924
121448,114934
121452,114909
121481,114925
121451,114911
121498,114916
121512,114952
121471,114957
121512,114915
121528,114954
121570,114962
121560,114985
121551,114963
121577,114969
121593,114997
121599,115008
121607,114978
121655,115001
121629,115004
121671,115035
121650,115019
121714,115027
121692,115004
121704,115051
121722,115029
121766,115028
121735,115074
121765,115067
121761,115065
121788,115079
121779,115060
121836,115083
121803,115072
121858,115073
121832,115080
121876,115119
121833,115069
121874,115098
121881,115109
121879,115084
121892,115076
121917,115106
121938,115078
121918,115094
121955,115105
121940,115096
121951,115133
121964,115113
121988,115123
121966,115146
122027,115124
122038,115182
122039,115147
122048,115143
122033,115175
122053,115154
122079,115200
122088,115155
122084,115173
122144,115199
122112,115227
122133,115169
122150,115214
122201,115201
122136,115232
122192,115220
122156,115237
122226,115224
122184,115279
122249,115212
122248,115246
122228,115239
122285,115283
122285,115238
122291,115276
122308,115286
122280,115232
122302,115256
122348,115307
122317,115294
122380,115275
122372,115298
122345,115308
122421,115315
122395,115365
122394,115311
122465,115353
122419,115333
122439,115349
122499,115340
122475,115384
122533,115342
122498,115368
122502,115353
122530,115379
122555,115376
122524,115358
122594,115372
122566,115398
122633,115396
122616,115407
122603,115403
122644,115385
122660,115429
122646,115408
122692,115447
122708,115442
122737,115448
122703,115447
122735,115466
122730,115462
122786,115457
122797,115464
122808,115476
122775,115501
122776,115421
122783,115499
122764,115457
122712,115426
122634,115399
122620,115339
122465,115332
122379,115251
122254,115176
122104,115128
121992,115072
121867,114984
121804,114983
121657,114927
121589,114909
121497,114843
121402,114841
121321,114773
121272,114751
121175,114721
121107,114678
121063,114676
121008,114624
120981,114651
120892,114591
120869,114602
120844,114551
120812,114567
120821,114575
120769,114539
120775,114508
120764,114549
120727,114554
120725,114545
120701,114496
120747,114524
120718,114532
120756,114540
120755,114540
120727,114516
120794,114532
120745,114565
120761,114529
120772,114553
120817,114573
120781,114555
120792,114554
120799,114522
120800,114563
120832,114536
120797,114555
120817,114568
120833,114534
120818,114562
120818,114535
120865,114560
120838,114524
120841,114553
120809,114552
120837,114527
120877,114558
120848,114537
120840,114546
120804,114534
120869,114528
120819,114574
120867,114511
120878,114543
120829,114546
120849,114529
120900,114531
120843,114516
120909,114520
120889,114545
120904,114536
120944,114558
120912,114576
120966,114581
120923,114587
120969,114573
120991,114588
120941,114588
120987,114582
121033,114613
120996,114560
121024,114599
121022,114564
121008,114586
121002,114600
121030,114569
121063,114606
121056,114591
121023,114570
121039,114585
120988,114569
121008,114549
120965,114560
120995,114537
120951,114544
120957,114530
120969,114566
120957,114520
120970,114542
120955,114535
120951,114539
120946,114529
120917,114505
120931,114490
120942,114534
120933,114503
120929,114540
120964,114511
120957,114532
121001,114529
120958,114555
121005,114551
121032,114546
120993,114538
121020,114566
121030,114547
121045,114594
121076,114567
121114,114571
121093,114582
121106,114599
121134,114571
121170,114628
121192,114606
121192,114618
121243,114595
121233,114641
121218,114649
121241,114620
121266,114631
121290,114649
121294,114673
121321,114657
121340,114640
121323,114716
121347,114694
121403,114677
121413,114697
121439,114735
121442,114679
121470,114732
121467,114686
121472,114704
121513,114751
121535,114754
121524,114757
121589,114740
121562,114758
121609,114762
121567,114761
121602,114749
121619,114798
121612,114760
121670,114805
121673,114780
121709,114794
121694,114816
121752,114807
121739,114835
121767,114801
121793,114861
121795,114836
121802,114860
121823,114834
121848,114878
121864,114855
121917,114887
121889,114856
121927,114876
121919,114879
121961,114876
121962,114908
121937,114903
122023,114941
122027,114905
122025,114937
122067,114922
122068,114949
122086,114953
122084,114946
122109,114941
122160,115005
122169,114961
122217,114983
122197,115024
122232,114987
122229,115040
122243,114983
122303,115030
122292,115005
122282,115039
122301,115066
122327,115041
122385,115053
122346,115056
122348,115081
122421,115078
122412,115076
122424,115108
122418,115090
122458,115078
122479,115102
122500,115092
122497,115118
122504,115109
122575,115148
122532,115103
122571,115167
122606,115141
122564,115140
122593,115159
122597,115143
122604,115159
122645,115150
122643,115153
122663,115173
122660,115184
122681,115173
122665,115178
122697,115163
122664,115167
122718,115186
122701,115182
122697,115181
122706,115173
122706,115172
122720,115198
122728,115179
122772,115185
122788,115188
122742,115219
122758,115189
122781,115186
122782,115195
122785,115185
122805,115206
122795,115152
122814,115197
122797,115185
122855,115209
122802,115225
122812,115138
122801,115166
122741,115185
122761,115175
122740,115153
122663,115066
122579,115077
122442,115033
122320,114953
122149,114859
122046,114791
121840,114728
121760,114659
121621,114615
121500,114576
121380,114516
121292,114440
121214,114415
121123,114356
121101,114338
121033,114323
120998,114314
120961,114336
120930,114295
120896,114315
120912,114271
120912,114272
120904,114285
120866,114286
120863,114278
120870,114260
120895,114291
120918,114267
120940,114289
120973,114295
120952,114333
120980,114378
121023,114339
121040,114345
121074,114355
121084,114366
121122,114403
121162,114382
121133,114409
121193,114442
121194,114398
121271,114458
121237,114486
121299,114487
121292,114447
121308,114482
121356,114509
121344,114491
121375,114527
121398,114480
121413,114530
121419,114497
121468,114548
121453,114521
121441,114545
121496,114535
121489,114546
121500,114561
121493,114577
121515,114558
121501,114565
121527,114554
121546,114587
121591,114577
121573,114597
121598,114621
121649,114585
121683,114655
121698,114626
121702,114630
121724,114640
121776,114679
121746,114699
121823,114686
121808,114699
121857,114734
121835,114715
121865,114724
121844,114698
121874,114674
121834,114728
121857,114712
121829,114715
121778,114699
121812,114679
121763,114699
121776,114650
121712,114659
121707,114669
121683,114608
121701,114628
121627,114603
121631,114596
121630,114592
121599,114571
121582,114568
121564,114595
121580,114533
121534,114595
121566,114565
121552,114576
121556,114549
121550,114591
121572,114577
121572,114586
121599,114614
121629,114583
121596,114612
121636,114603
121687,114635
121683,114617
121710,114629
121708,114668
121727,114627
121783,114656
121768,114652
121836,114679
121841,114695
121866,114729
121911,114721
121895,114732
121949,114735
121973,114761
122030,114804
122016,114796
122046,114784
122083,114841
122091,114773
122150,114855
122128,114829
122194,114866
122171,114876
122252,114899
122209,114869
122236,114880
122293,114925
122296,114902
122315,114895
122337,114949
122301,114931
122344,114942
122360,114945
122357,114965
122351,114951
122415,114947
122372,114971
122430,114972
122419,114982
122417,114972
122453,114978
122419,115008
122471,114976
122465,114987
122498,114995
122464,115008
122493,115017
122500,115042
122526,115010
122514,115040
122547,115015
122512,115048
122545,115011
122569,115074
122548,115037
122582,115036
122578,115063
122614,115048
122610,115040
122620,115092
122606,115057
122615,115074
122669,115060
122633,115059
122671,115080
122654,115088
122696,115076
122668,115097
122678,115076
122690,115104
122700,115079
122707,115088
122727,115088
122749,115096
122743,115135
122750,115147
122728,115095
122795,115111
122778,115141
122799,115139
122779,115122
122794,115152
122822,115168
122793,115124
122850,115155
122844,115171
122877,115174
122842,115160
122817,115162
122871,115165
122815,115195
122822,115174
122743,115123
122711,115109
122595,115017
122496,114997
122384,114904
122259,114851
122110,114833
121980,114738
121881,114694
121783,114657
121698,114625
121620,114595
121511,114529
121451,114485
121382,114497
121280,114441
121257,114421
121172,114377
121144,114380
121039,114369
121019,114315
120971,114322
120957,114273
120933,114284
120868,114283
120899,114282
120864,114257
120877,114232
120806,114212
120839,114229
120821,114221
120816,114283
120797,114234
120854,114229
120828,114277
120812,114250
120831,114219
120859,114249
120820,114230
120864,114252
120830,114263
120873,114231
120853,114257
120828,114261
120856,114239
120874,114291
120844,114230
120871,114262
120849,114259
120883,114296
120803,114253
120856,114265
120836,114237
120837,114251
120840,114249
120832,114222
120859,114272
120835,114252
120871,114237
120827,114267
120838,114208
120867,114257
120802,114261
120830,114228
120817,114269
120838,114232
120841,114258
120856,114244
120858,114278
120868,114242
120887,114304
120930,114283
120916,114287
120913,114266
120934,114271
120948,114315
120959,114294
120960,114297
120951,114290
120959,114273
121000,114321
120969,114279
120966,114281
120975,114288
120948,114299
120988,114299
120946,114265
120975,114278
120940,114296
120933,114291
120958,114272
120938,114312
120891,114279
120933,114293
120895,114300
120862,114278
120886,114296
120881,114237
120849,114285
120829,114230
120859,114261
120867,114258
120810,114230
120898,114248
120826,114256
120877,114264
120853,114235
120841,114284
120853,114254
120885,114256
120868,114287
120859,114256
120890,114264
120924,114252
120918,114280
120908,114278
120947,114263
120930,114296
120912,114268
120928,114294
120954,114304
120957,114321
120968,114298
120948,114305
121028,114326
121015,114330
121025,114327
121000,114315
121045,114326
121051,114342
121045,114358
121041,114349
121080,114348
121081,114364
121116,114391
121122,114393
121104,114388
121130,114383
121135,114387
121165,114401
121166,114410
121146,114397
121171,114418
121207,114408
121179,114426
121170,114418
121246,114416
121185,114444
121197,114415
121219,114415
121289,114445
121273,114441
121271,114446
121281,114461
121290,114459
121284,114456
121304,114461
121314,114450
121282,114432
121327,114458
121299,114477
121305,114510
121368,114496
121337,114473
121406,114485
121364,114538
121368,114521
121381,114515
121431,114536
121391,114546
121426,114516
121417,114523
121459,114545
121470,114569
121433,114549
121496,114560
121520,114552
121481,114558
121503,114586
121504,114587
121549,114604
121543,114586
121543,114590
121569,114608
121588,114625
121628,114608
121611,114606
121620,114621
121653,114641
121623,114662
121662,114631
121653,114638
121670,114670
121671,114635
121696,114665
121673,114691
121735,114670
121729,114682
121755,114699
121739,114704
121761,114694
121765,114704
121787,114710
121771,114708
121807,114729
121820,114733
121822,114727
121848,114722
121862,114721
121872,114757
121903,114773
121939,114762
121932,114781
121910,114764
121928,114799
121968,114788
121912,114772
121918,114781
121906,114755
121876,114749
121822,114717
121763,114664
121655,114627
121595,114604
121465,114561
121417,114484
121321,114446
121175,114421
121122,114392
121024,114349
120952,114294
120831,114246
120773,114204
120642,114232
120606,114169
120561,114120
120460,114113
120366,114055
120344,114050
120262,114030
120257,114025
120163,114009
120123,113936
120076,113963
120052,113952
120040,113955
119999,113930
120021,113877
119967,113916
119974,113899
119959,113920
119966,113908
119967,113889
119930,113885
119930,113869
119965,113895
119915,113855
119979,113914
119923,113903
119940,113876
119959,113915
119960,113904
119971,113913
119966,113914
119955,113881
119973,113913
119988,113912
119983,113915
119965,113925
119974,113919
119953,113924
119951,113910
119982,113925
119941,113892
119964,113899
119939,113925
119946,113908
119942,113915
119970,113895
119934,113910
119940,113907
119949,113886
119945,113931
119979,113901
119922,113902
119952,113938
119980,113931
119972,113886
119976,113927
120011,113921
120002,113924
120063,113962
120061,113958
120078,113953
120085,113980
120115,113979
120078,114022
120090,113973
120128,113974
120144,113984
120126,113959
120110,113990
120159,113966
120166,113999
120167,113995
120200,114031
120160,113986
120168,114049
120148,113992
120188,114012
120173,113982
120171,114015
120164,114017
120119,114014
120117,113968
120128,114049
120131,113995
120150,113979
120085,113973
120131,113970
120089,114016
120124,113955
120105,113988
120133,113995
120114,113992
120123,113983
120115,113971
120120,114026
120128,113978
120167,114004
120137,114055
120141,113999
120173,114020
120172,114051
120207,114048
120205,114038
120219,114067
120216,114011
120259,114077
120242,114086
120286,114064
120274,114082
120318,114069
120354,114087
120333,114085
120395,114099
120400,114128
120385,114101
120429,114141
120371,114135
120464,114134
120423,114124
120475,114175
120513,114169
120504,114179
120517,114173
120532,114213
120546,114153
120585,114202
120573,114223
120628,114227
120597,114243
120660,114215
120631,114246
120654,114258
120712,114253
120675,114270
120736,114265
120734,114287
120752,114267
120787,114285
120780,114296
120814,114333
120804,114327
120836,114303
120843,114321
120891,114358
120875,114349
120900,114367
120920,114388
120955,114369
120960,114398
120962,114438
120981,114425
120992,114384
121012,114444
121006,114401
121068,114445
121040,114386
121121,114440
121097,114472
121111,114457
121141,114482
121146,114470
121179,114492
121210,114501
121215,114508
121280,114519
121225,114522
121308,114514
121340,114548
121318,114537
121353,114552
121338,114560
121365,114599
121401,114564
121416,114621
121438,114586
121466,114618
121434,114622
121496,114626
121531,114646
121541,114618
121568,114656
121554,114672
121563,114658
121628,114656
121613,114684
121657,114692
121656,114684
121730,114703
121682,114756
121716,114714
121740,114731
121755,114744
121762,114770
121773,114771
121798,114761
121801,114768
121830,114764
121823,114807
121834,114791
121827,114773
121869,114757
121894,114817
121873,114761
121867,114787
121813,114740
121823,114738
121679,114741
121644,114635
121533,114616
121384,114523
121278,114496
121135,114435
121006,114331
120897,114318
120800,114229
120698,114209
120607,114160
120537,114144
120467,114103
120396,114069
120340,114064
120307,114039
120252,114050
120190,114003
120180,113994
120125,114000
120132,113971
120118,113958
120052,113923
120045,113979
120019,113906
120083,113983
120068,113947
120081,113970
120083,113963
120100,113952
120084,114005
120123,113944
120144,114010
120192,113980
120165,114015
120187,114019
120199,114003
120196,114026
120239,114060
120261,114060
120257,114071
120286,114029
120320,114086
120314,114082
120348,114076
120367,114098
120351,114104
120360,114084
120387,114128
120389,114087
120419,114102
120424,114103
120386,114109
120430,114128
120372,114091
120437,114112
120434,114092
120407,114101
120455,114115
120452,114136
120457,114129
120490,114127
120500,114168
120536,114162
120524,114176
120562,114177
120540,114213
120606,114199
120636,114218
120663,114220
120676,114276
120720,114275
120748,114254
120758,114323
120763,114263
120804,114316
120819,114287
120801,114327
120834,114308
120816,114330
120828,114313
120831,114312
120817,114307
120851,114308
120784,114312
120817,114302
120815,114292
120769,114293
120781,114304
120756,114262
120737,114289
120692,114274
120710,114260
120683,114218
120710,114260
120716,114247
120693,114286
120689,114232
120675,114244
120716,114258
120731,114259
120716,114304
120707,114238
120752,114304
120742,114280
120763,114297
120789,114275
120809,114338
120820,114282
120867,114337
120887,114335
120866,114363
120930,114388
120925,114378
120935,114381
120994,114411
121016,114416
121026,114423
121060,114468
121089,114441
121089,114489
121122,114460
121178,114457
121171,114489
121210,114514
121247,114514
121262,114554
121276,114517
121288,114549
121340,114566
121349,114555
121384,114595
121385,114581
121406,114602
121416,114611
121418,114634
121469,114627
121446,114647
121492,114656
121494,114656
121547,114684
121515,114666
121557,114650
121554,114718
121551,114682
121610,114697
121580,114689
121604,114713
121644,114746
121623,114726
121701,114759
121666,114758
121663,114726
121697,114763
121729,114759
121707,114738
121756,114753
121718,114798
121763,114785
121760,114777
121750,114786
121764,114785
121778,114824
121803,114785
121809,114792
121833,114801
121815,114824
121822,114795
121876,114847
121821,114835
121873,114846
121874,114841
121850,114869
121886,114827
121918,114853
121915,114868
121921,114871
121952,114849
121964,114910
121942,114867
121981,114899
121968,114895
122009,114878
122015,114920
122019,114917
122066,114929
122078,114941
122097,114926
122073,114946
122087,114960
122094,114977
122131,114955
122100,114948
122049,114933
122021,114915
121994,114879
121879,114840
121792,114788
121638,114716
121572,114702
121426,114612
121320,114575
121246,114501
121123,114461
121001,114409
120950,114387
120858,114337
120805,114307
120688,114283
120675,114265
120585,114257
120519,114206
120456,114179
120419,114199
120422,114160
120334,114141
120379,114133
120292,114146
120297,114100
120246,114117
120269,114128
120225,114127
120266,114096
120246,114072
120242,114118
120207,114112
120250,114080
120251,114128
120228,114118
120258,114139
120272,114080
120314,114149
120276,114095
120267,114128
120270,114166
120298,114144
120272,114131
120316,114148
120348,114153
120324,114144
120325,114128
120285,114144
120330,114135
120348,114168
120308,114147
120293,114172
120279,114141
120311,114128
120311,114130
120321,114158
120310,114106
120297,114148
120304,114166
120303,114136
120298,114188
120324,114141
120305,114168
120328,114195
120297,114151
120360,114163
120367,114192
120381,114165
120360,114217
120380,114186
120408,114205
120460,114220
120403,114221
120474,114208
120481,114224
120445,114205
120492,114234
120474,114243
120507,114220
120503,114236
120466,114257
120476,114201
120499,114237
120465,114218
120461,114241
120445,114246
120473,114203
120492,114227
120407,114198
120429,114224
120426,114202
120447,114212
120415,114243
120430,114179
120412,114195
120377,114213
120397,114216
120386,114219
120437,114195
120412,114209
120440,114234
120387,114224
120400,114255
120416,114180
120423,114203
120406,114252
120411,114198
120460,114246
120430,114224
120457,114229
120472,114266
120452,114256
120468,114228
120488,114283
120529,114275
120508,114264
120550,114274
120500,114313
120563,114306
120558,114282
120583,114297
120567,114295
120596,114285
120597,114343
120627,114290
120622,114363
120661,114352
120654,114348
120647,114356
120686,114313
120700,114387
120725,114355
120706,114374
120738,114357
120754,114394
120746,114378
120781,114413
120772,114434
120798,114389
120792,114433
120826,114449
120800,114434
120825,114408
120817,114434
120867,114467
120868,114447
120877,114457
120873,114432
120873,114495
120917,114440
120903,114476
120895,114476
120950,114481
120923,114490
120927,114451
120942,114485
120946,114476
120973,114514
120954,114505
120986,114470
120973,114545
120996,114510
120994,114545
120994,114531
121016,114491
121063,114571
121029,114554
121062,114540
121046,114574
121064,114564
121077,114576
121132,114592
121086,114574
121142,114580
121135,114598
121133,114615
121165,114588
121182,114616
121179,114614
121230,114644
121182,114625
121197,114661
121265,114614
121254,114671
121251,114623
121254,114656
121297,114656
121323,114668
121285,114651
121356,114659
121324,114718
121318,114686
121360,114685
121376,114707
121385,114709
121402,114707
121422,114723
121444,114718
121418,114691
121452,114749
121459,114756
121514,114766
121465,114787
121498,114786
121495,114785
121544,114804
121516,114802
121547,114756
121567,114821
121545,114813
121570,114795
121599,114808
121603,114847
121601,114791
121674,114823
121628,114848
121617,114815
121689,114863
121661,114847
121613,114841
121659,114836
121614,114782
121542,114796
121489,114729
121384,114714
121313,114689
121218,114597
121151,114588
121092,114577
120983,114506
120897,114500
120781,114454
120739,114393
120650,114349
120571,114328
120497,114309
120415,114232
120358,114252
120259,114195
120224,114193
120165,114157
120087,114107
120095,114135
120028,114088
119979,114070
119933,114075
119909,114036
119861,114051
119891,114019
119844,114044
119824,113991
119839,114058
119830,113978
119798,114015
119839,114026
119840,114018
119803,114056
119796,114029
119792,114026
119783,114008
119818,114023
119821,114028
119825,113997
119810,114016
119819,114019
119829,114015
119813,114037
119817,113973
119768,114015
119839,114024
119780,114006
119811,114007
119774,114001
119785,113976
119787,114034
119775,114003
119772,114002
119801,114000
119755,114002
119729,113974
119792,113987
119768,113969
119723,113983
119749,114003
119722,113962
119776,114001
119716,113986
119754,113986
119733,113992
119775,113986
119761,114035
119756,113983
119830,114032
119795,114043
119841,114011
119862,114024
119866,114027
119855,114058
119893,114039
119878,114046
119884,114082
119910,114060
119911,114067
119914,114057
119958,114077
119971,114098
119954,114091
119928,114080
119999,114074
119945,114121
119985,114069
119987,114078
119946,114075
119980,114107
119956,114080
119996,114112
119949,114079
119941,114059
119946,114085
119954,114094
119986,114085
119961,114105
119945,114094
119962,114054
119985,114058
119982,114121
119938,114101
119984,114092
119976,114113
119995,114098
119984,114113
120009,114091
119997,114105
120059,114106
120018,114147
120051,114165
120064,114146
120078,114162
120086,114160
120117,114140
120107,114189
120184,114195
120155,114155
120170,114176
120199,114193
120183,114189
120237,114214
120206,114189
120250,114218
120265,114252
120255,114229
120311,114250
120311,114246
120343,114276
120363,114263
120351,114295
120358,114253
120393,114311
120393,114278
120429,114312
120434,114308
120420,114346
120477,114321
120480,114360
120478,114335
120506,114367
120542,114370
120527,114355
120548,114343
120578,114375
120566,114356
120588,114379
120588,114398
120579,114374
120659,114394
120623,114413
120667,114382
120685,114455
120679,114447
120671,114455
120692,114414
120760,114448
120740,114460
120770,114470
120784,114483
120823,114479
120813,114511
120808,114466
120866,114505
120858,114508
120842,114502
120892,114532
120907,114497
120961,114536
120950,114558
120972,114551
120950,114549
120990,114535
121002,114552
121021,114596
121029,114573
121041,114614
121093,114592
121097,114620
121085,114592
121151,114641
121121,114641
121115,114663
121153,114656
121219,114656
121205,114683
121209,114646
121230,114711
121293,114690
121247,114710
121280,114684
121348,114704
121324,114718
121336,114723
121410,114735
121392,114762
121398,114759
121428,114758
121455,114804
121486,114776
121512,114798
121499,114819
121545,114812
121541,114815
121550,114821
121577,114832
121602,114868
121648,114849
121632,114845
121649,114860
121657,114853
121696,114887
121705,114892
121696,114889
121778,114894
121767,114909
121769,114907
121806,114920
121801,114924
121854,114951
121841,114953
121878,114933
121904,114954
121862,114932
121888,114968
121907,114960
121898,114950
121923,115000
121909,114993
121973,114973
121952,114973
121966,115008
121972,114980
122032,115017
121985,114983
122030,115025
122008,114991
122062,115039
122037,115044
122096,115028
122091,115041
122079,115063
122085,115010
122080,115044
122131,115038
122132,115083
122119,115087
122145,115044
122135,115083
122169,115048
122178,115074
122201,115075
122164,115070
122192,115053
122177,115105
122193,115095
122225,115066
122210,115100
122208,115063
122212,115126
122225,115090
122276,115099
122242,115072
122279,115088
122201,115105
122229,115075
122185,115048
122079,115031
122007,114967
121908,114903
121755,114855
121649,114803
121478,114713
121370,114627
121295,114629
121192,114559
121124,114516
121018,114479
120983,114471
120887,114403
120843,114396
120808,114402
120729,114373
120728,114353
120740,114390
120664,114355
120671,114312
120708,114322
120658,114361
120632,114316
120639,114332
120660,114296
120681,114347
120666,114306
120682,114343
120699,114345
120686,114346
120745,114350
120750,114373
120773,114351
120795,114422
120817,114375
120801,114387
120845,114423
120842,114410
120906,114441
120884,114467
120891,114449
120944,114445
120907,114469
120944,114450
120997,114508
120998,114442
120976,114459
121018,114490
121004,114457
121035,114521
121039,114474
121050,114528
121015,114512
121045,114495
121062,114530
121084,114495
121044,114492
121107,114541
121083,114529
121068,114487
121071,114530
121098,114504
121116,114547
121094,114531
121122,114523
121131,114537
121186,114576
121196,114547
121220,114576
121195,114562
121219,114595
121245,114586
121256,114584
121284,114564
121321,114633
121296,114574
121331,114639
121315,114623
121377,114619
121301,114617
121349,114604
121342,114649
121347,114593
121330,114589
121331,114627
121283,114603
121270,114554
121276,114613
121273,114559
121236,114564
121249,114586
121191,114524
121214,114555
121168,114524
121159,114514
121185,114521
121165,114550
121181,114539
121172,114557
121194,114519
121172,114548
121201,114552
121187,114559
121188,114535
121200,114575
121215,114546
121244,114536
121229,114595
121278,114565
121258,114558
121309,114580
121299,114598
121347,114635
121321,114623
121333,114623
121380,114610
121421,114674
121431,114634
121445,114685
121463,114688
121457,114702
121511,114670
121527,114723
121525,114690
121545,114712
121567,114713
121619,114715
121604,114728
121635,114780
121623,114740
121653,114756
121676,114793
121692,114748
121748,114797
121696,114811
121740,114790
121759,114821
121704,114833
121729,114784
121779,114850
121759,114817
121780,114850
121781,114841
121804,114823
121829,114825
121845,114869
121838,114841
121827,114872
121862,114849
121826,114850
121883,114871
121839,114857
121915,114917
121900,114890
121906,114889
121918,114861
121898,114885
121970,114916
121928,114943
121972,114896
121966,114901
121943,114917
121985,114908
122009,114939
121980,114949
122037,114938
122009,114927
122056,114946
122037,115006
122077,114939
122075,115002
122079,114977
122113,115007
122138,114968
122098,114965
122166,115010
122113,115011
122161,115019
122122,115011
122188,115018
122180,115026
122190,115040
122237,115029
122220,115051
122277,115075
122230,115047
122274,115039
122259,115061
122245,115061
122298,115076
122279,115075
122280,115085
122341,115076
122338,115114
122321,115077
122373,115116
122356,115123
122352,115073
122390,115125
122384,115115
122439,115124
122402,115138
122420,115129
122452,115157
122448,115150
122446,115136
122492,115180
122508,115142
122483,115192
122528,115202
122513,115196
122509,115195
122542,115164
122582,115226
122596,115255
122564,115208
122550,115204
122605,115198
122599,115244
122553,115200
122517,115187
122481,115147
122435,115129
122330,115093
122269,115038
122151,114990
122063,114959
121973,114876
121853,114829
121754,114803
121671,114766
121627,114747
121564,114702
121512,114679
121487,114667
121390,114634
121336,114626
121306,114587
121237,114561
121191,114561
121213,114551
121169,114552
121113,114517
121122,114506
121089,114516
121064,114503
121059,114491
121087,114514
121074,114481
121043,114472
121102,114515
121069,114494
121075,114489
121090,114493
121079,114503
121105,114500
121120,114491
121082,114501
121117,114525
121113,114520
121109,114517
121128,114528
121122,114531
121153,114534
121134,114515
121137,114489
121164,114559
121140,114525
121156,114515
121139,114523
121154,114507
121129,114550
121125,114521
121149,114501
121159,114508
121182,114536
121132,114513
121096,114522
121163,114519
121161,114513
121171,114523
121137,114501
121129,114511
121173,114510
121103,114499
121151,114502
121126,114511
121150,114501
121177,114522
121158,114507
121204,114525
121173,114557
121196,114523
121217,114542
121209,114571
121213,114522
121214,114590
121230,114546
121256,114565
121226,114534
121260,114533
121211,114567
121244,114550
121236,114551
121256,114575
121222,114585
121269,114561
121256,114563
121232,114584
121233,114537
121265,114580
121206,114540
121192,114546
121235,114523
121205,114556
121212,114561
121227,114548
121208,114554
121169,114541
121225,114546
121181,114564
121179,114556
121173,114540
121172,114503
121191,114557
121154,114527
121213,114549
121187,114522
121177,114547
121160,114531
121186,114575
121212,114527
121223,114524
121181,114539
121231,114506
121247,114546
121210,114530
121230,114547
121246,114565
121286,114549
121257,114598
121280,114558
121301,114558
121305,114580
121285,114563
121290,114582
121353,114615
121318,114593
121320,114598
121361,114593
121373,114626
121355,114608
121384,114621
121370,114598
121405,114647
121400,114621
121366,114629
121431,114655
121407,114630
121416,114627
121429,114677
121456,114640
121433,114664
121467,114679
121457,114649
121447,114652
121485,114658
121486,114665
121458,114671
121473,114659
121509,114668
121478,114652
121505,114692
121534,114692
121492,114676
121526,114669
121534,114689
121511,114670
121552,114683
121525,114680
121565,114697
121573,114676
121570,114721
121560,114675
121575,114703
121575,114725
121603,114697
121581,114709
121622,114690
121617,114701
121608,114727
121646,114700
121614,114740
121673,114728
121702,114738
121659,114721
121713,114741
121705,114764
121687,114716
121717,114751
121751,114762
121755,114765
121755,114746
121740,114745
121767,114759
121789,114792
121779,114742
121780,114771
121794,114787
121810,114772
121849,114759
121813,114761
121863,114816
121844,114798
121839,114800
121871,114770
121877,114795
121887,114794
121908,114824
121907,114787
121955,114816
121907,114794
121938,114816
121946,114825
122014,114846
121958,114857
122002,114856
122011,114869
122048,114865
122028,114868
122083,114918
122082,114865
122129,114887
122118,114932
122123,114915
122161,114938
122176,114915
122165,114948
122145,114933
122210,114943
122206,114971
122197,114983
122205,114959
122286,114998
122231,115010
122270,114947
122272,114992
122312,115012
122301,114998
122297,115023
122303,114968
122326,115010
122331,115008
122335,115041
122338,115004
122368,115019
122341,115023
122361,115033
122401,115036
122392,115020
122391,115074
122410,115061
122405,115045
122412,115046
122467,115060
122440,115081
122434,115066
122468,115083
122494,115128
122435,115074
122502,115094
122488,115121
122481,115080
122499,115106
122421,115086
122433,115024
122371,115022
122286,114982
122246,114951
122173,114917
122065,114830
121940,114835
121856,114758
121775,114753
121716,114703
121642,114643
121594,114621
121518,114630
121455,114552
121400,114554
121356,114553
121285,114516
121249,114451
121200,114490
121174,114460
121112,114436
121126,114447
121101,114448
121090,114383
121080,114439
121031,114360
121010,114385
121027,114399
121027,114399
120992,114368
120997,114398
121027,114378
121035,114351
120988,114400
121030,114378
121050,114383
121051,114393
121058,114384
121044,114369
121079,114401
121084,114422
121074,114424
121070,114395
121079,114419
121090,114411
121117,114437
121080,114411
121091,114391
121089,114447
121109,114415
121104,114436
121113,114393
121111,114428
121051,114414
121083,114380
121081,114412
121102,114403
121078,114403
121055,114427
121056,114392
121088,114385
121071,114389
121045,114391
121094,114395
121045,114408
121066,114369
121057,114436
121069,114365
121062,114389
121084,114387
121046,114407
121068,114389
121081,114378
121123,114419
121131,114454
121125,114426
121139,114443
121172,114418
121113,114411
121172,114434
121165,114439
121196,114436
121162,114439
121188,114424
121182,114471
121189,114422
121196,114448
121144,114436
121196,114468
121150,114459
121185,114427
121172,114467
121169,114442
121159,114450
121182,114420
121142,114476
121115,114399
121159,114453
121171,114417
121124,114436
121137,114453
121124,114445
121129,114422
121110,114425
121097,114423
121107,114409
121116,114435
121099,114437
121117,114431
121123,114464
121108,114428
121146,114455
121118,114438
121142,114461
121116,114454
121136,114467
121162,114437
121170,114475
121167,114452
121227,114481
121210,114489
121214,114482
121252,114524
121283,114516
121275,114508
121315,114568
121307,114541
121363,114529
121363,114586
121411,114554
121403,114591
121428,114565
121452,114629
121485,114633
121481,114620
121509,114641
121515,114651
121569,114635
121585,114688
121588,114673
121596,114662
121629,114703
121643,114692
121628,114690
121709,114698
121698,114728
121747,114751
121701,114747
121771,114740
121755,114769
121763,114733
121795,114745
121780,114774
121808,114795
121815,114785
121826,114788
121825,114808
121835,114776
121833,114825
121892,114825
121906,114789
121910,114829
121885,114818
121940,114832
121947,114848
121986,114852
121974,114874
121983,114837
122003,114901
122007,114871
122043,114906
122063,114883
122053,114946
122125,114915
122100,114955
122114,114942
122153,114950
122136,114962
122215,114985
122194,114971
122196,115003
122229,114962
122218,115034
122262,115016
122280,115011
122263,115020
122314,115015
122304,115047
122306,115028
122299,115037
122313,115076
122321,115038
122386,115062
122346,115043
122357,115065
122348,115060
122387,115029
122358,115090
122387,115039
122410,115029
122377,115086
122383,115073
122405,115060
122411,115092
122419,115056
122430,115066
122448,115098
122435,115084
122469,115057
122498,115132
122436,115070
122482,115112
122479,115094
122516,115118
122471,115108
122528,115091
122534,115120
122516,115092
122525,115098
122537,115108
122514,115085
122578,115099
122543,115140
122581,115131
122633,115132
122579,115154
122631,115181
122646,115151
122629,115174
122645,115167
122683,115197
122684,115174
122730,115211
122730,115203
122721,115230
122756,115195
122775,115222
122800,115209
122765,115237
122738,115201
122792,115224
122732,115214
122681,115190
122597,115161
122466,115063
122395,115044
122254,114985
122162,114905
122047,114841
121899,114799
121836,114729
121705,114683
121681,114669
121590,114605
121564,114618
121475,114600
121431,114558
121433,114556
121383,114552
121364,114543
121403,114538
121320,114527
121358,114531
121328,114541
121339,114511
121350,114536
121353,114529
121346,114518
121405,114548
121354,114545
121406,114563
121405,114600
121397,114598
121432,114563
121487,114624
121482,114578
121511,114601
121497,114585
121540,114621
121527,114648
121584,114629
121590,114637
121604,114671
121639,114681
121611,114667
121686,114681
121662,114722
121713,114674
121684,114702
121744,114720
121712,114725
121719,114695
121701,114737
121702,114698
121765,114713
121748,114716
121722,114709
121729,114712
121777,114708
121721,114729
121747,114725
121715,114723
121746,114749
121765,114715
121771,114691
121804,114707
121780,114754
121821,114720
121821,114760
121847,114765
121825,114765
121855,114786
121875,114776
121935,114812
121944,114808
121920,114810
121985,114830
121985,114847
121995,114833
122043,114840
122020,114851
122025,114850
122032,114858
122055,114876
122054,114854
122012,114850
122027,114857
122017,114831
122016,114853
122000,114828
121965,114814
121986,114827
121946,114790
121935,114787
121870,114784
121881,114801
121881,114781
121873,114735
121871,114793
121860,114792
121829,114737
121855,114751
121845,114777
121828,114750
121889,114775
121880,114784
121865,114747
121899,114811
121919,114783
121908,114781
121945,114809
121965,114805
121951,114820
121967,114823
122009,114848
121987,114842
122054,114830
122031,114862
122065,114896
122077,114905
122116,114887
122093,114884
122121,114916
122130,114911
122161,114895
122204,114896
122237,114951
122220,114915
122262,114959
122230,114982
122276,114960
122336,115006
122309,114987
122346,115021
122340,115006
122365,115001
122345,115012
122348,115038
122409,115063
122394,115034
122445,115051
122391,115074
122435,115066
122398,115063
122453,115090
122453,115065
122483,115096
122469,115063
122476,115076
122461,115085
122492,115086
122509,115128
122519,115094
122516,115110
122534,115124
122523,115090
122548,115098
122523,115079
122569,115110
122560,115119
122590,115155
122587,115137
122628,115157
122595,115139
122595,115180
122615,115153
122669,115166
122647,115174
122681,115193
122671,115204
122647,115197
122697,115185
122685,115203
122744,115194
122689,115209
122774,115208
122735,115241
122791,115234
122789,115244
122756,115232
122834,115240
122787,115256
122845,115281
122848,115253
122853,115268
122847,115279
122856,115263
122866,115290
122895,115309
122876,115315
122899,115305
122878,115293
122926,115302
122924,115305
122922,115313
122934,115301
122982,115324
122952,115333
122986,115360
122993,115339
122982,115335
123057,115389
122996,115330
123058,115355
123045,115363
123045,115353
123067,115339
123123,115387
123090,115430
123124,115376
123132,115401
123114,115395
123134,115420
123114,115403
123171,115451
123135,115411
123126,115442
123120,115418
123074,115375
123006,115359
122946,115315
122913,115305
122765,115217
122696,115142
122541,115131
122455,115053
122396,115043
122270,114969
122239,114950
122159,114940
122110,114910
122025,114878
122032,114860
121924,114865
121927,114814
121880,114798
121853,114781
121791,114765
121753,114806
121775,114767
121723,114743
121783,114774
121740,114733
121712,114746
121734,114755
121698,114749
121717,114747
121707,114699
121717,114750
121695,114720
121745,114762
121709,114777
121723,114789
121738,114771
121737,114773
121758,114743
121758,114812
121791,114766
121782,114754
121798,114805
121759,114779
121795,114781
121793,114777
121771,114773
121794,114786
121785,114774
121761,114775
121791,114767
121800,114803
121772,114768
121807,114788
121789,114782
121792,114817
121762,114786
121804,114786
121767,114814
121797,114770
121798,114776
121778,114779
121812,114772
121790,114814
121803,114769
121819,114803
121793,114801
121785,114789
121832,114793
121779,114819
121795,114807
121835,114844
121846,114825
121816,114810
121897,114844
121825,114829
121873,114825
121873,114815
121908,114841
121901,114852
121909,114867
121896,114818
121897,114864
121893,114836
121943,114854
121916,114878
121888,114827
121936,114863
121910,114833
121922,114859
121914,114843
121907,114817
121911,114862
121877,114827
121889,114859
121894,114819
121898,114846
121890,114836
121850,114802
121886,114852
121871,114810
121870,114840
121852,114840
121816,114837
121860,114809
121822,114830
121838,114795
121822,114827
121868,114819
121860,114793
121857,114838
121840,114806
121889,114832
121865,114856
121885,114852
121903,114847
121924,114804
121883,114882
121906,114839
121927,114851
121931,114855
121917,114851
121989,114877
121956,114889
121983,114893
121961,114892
121993,114855
121978,114888
122016,114907
122006,114893
122016,114896
122058,114915
122055,114916
122025,114909
122015,114890
122074,114895
122057,114943
122112,114932
122063,114902
122078,114972
122085,114901
122141,114959
122120,114918
122146,114961
122127,114958
122158,114928
122142,114968
122184,114948
122159,114998
122189,114968
122147,114987
122188,114966
122188,114984
122174,115007
122187,114990
122185,114985
122194,114969
122234,114986
122224,115040
122229,114965
122274,115041
122233,115007
122284,115019
122271,115048
122299,115003
122285,115039
122274,115000
122261,115028
122332,115044
122321,115045
122332,115040
122308,115012
122375,115056
122332,115069
122366,115049
122362,115081
122385,115078
122357,115050
122398,115065
122423,115114
122386,115055
122420,115059
122425,115115
122388,115065
122426,115079
122453,115109
122440,115088
122505,115104
122471,115130
122500,115074
122505,115114
122506,115135
122483,115140
122514,115092
122500,115125
122543,115137
122524,115143
122552,115151
122581,115169
122538,115123
122584,115157
122569,115158
122618,115174
122591,115163
122625,115207
122595,115191
122612,115216
122621,115168
122649,115208
122698,115239
122665,115208
122687,115184
122713,115227
122698,115217
122720,115214
122717,115223
122710,115205
122779,115237
122733,115268
122769,115251
122757,115256
122757,115238
122801,115214
122797,115289
122815,115236
122820,115267
122809,115274
122812,115259
122846,115306
122824,115262
122859,115278
122836,115308
122857,115290
122869,115297
122874,115341
122847,115295
122922,115344
122873,115292
122924,115312
122907,115311
122946,115344
122979,115334
122953,115358
122948,115305
122940,115330
122959,115348
122896,115324
122925,115324
122841,115313
122797,115239
122761,115240
122636,115180
122571,115156
122523,115086
122409,115097
122369,115009
122327,115016
122236,114997
122130,114932
122096,114959
122010,114895
122010,114872
121926,114863
121848,114825
121815,114849
121745,114762
121784,114773
121654,114735
121604,114739
121606,114738
121589,114702
121545,114688
121530,114683
121503,114643
121516,114658
121471,114670
121480,114625
121487,114657
121434,114662
121484,114640
121463,114661
121460,114640
121448,114651
121497,114638
121448,114680
121496,114650
121493,114654
121498,114679
121501,114682
121507,114652
121466,114664
121487,114662
121516,114666
121513,114672
121523,114647
121489,114656
121525,114671
121538,114676
121522,114697
121513,114668
121488,114658
121494,114676
121520,114657
121464,114647
121471,114655
121481,114675
121486,114651
121472,114630
121485,114636
121455,114645
121434,114644
121490,114636
121458,114649
121445,114663
121451,114612
121483,114633
121446,114649
121443,114645
121486,114650
121499,114644
121467,114646
121501,114664
121509,114650
121474,114650
121512,114673
121528,114660
121521,114634
121569,114676
121572,114645
121535,114651
121544,114695
121574,114659
121544,114699
121524,114626
121579,114662
121534,114689
121541,114655
121584,114671
121533,114647
121528,114675
121545,114684
121518,114629
121570,114671
121518,114665
121515,114639
121563,114661
121508,114659
121526,114636
121524,114653
121491,114642
121471,114636
121513,114661
121502,114641
121487,114635
121499,114635
121495,114629
121472,114616
121500,114639
121493,114639
121461,114616
121488,114631
121498,114632
121509,114673
121525,114639
121507,114646
121536,114656
121507,114650
121556,114673
121524,114647
121549,114678
121553,114648
121553,114649
121574,114674
121593,114679
121574,114674
121587,114678
121585,114687
121622,114695
121605,114693
121617,114708
121645,114699
121656,114708
121654,114683
121675,114715
121675,114720
121691,114730
121682,114736
121710,114719
121743,114728
121701,114741
121714,114739
121745,114723
121750,114760
121747,114738
121787,114759
121775,114758
121768,114752
121797,114770
121806,114794
121780,114781
121818,114762
121801,114795
121831,114781
121812,114771
121833,114792
121836,114809
121848,114821
121820,114804
121856,114813
121844,114792
121864,114828
121903,114807
121886,114803
121938,114822
121910,114860
121915,114807
121911,114839
121942,114837
121980,114859
121977,114830
121965,114853
121989,114867
122019,114881
121986,114869
122022,114865
121985,114886
122032,114897
122038,114873
122038,114931
122039,114895
122073,114902
122082,114892
122086,114907
122099,114903
122112,114905
122077,114916
122117,114927
122112,114921
122150,114937
122163,114948
122153,114935
122169,114967
122162,114955
122185,114946
122180,114960
122201,114963
122208,114967
122188,114961
122238,114958
122228,114980
122248,114984
122264,114982
122290,114997
122291,114999
122262,115013
122294,115026
122309,114997
122328,115016
122332,115018
122341,115035
122354,115023
122359,115029
122371,115057
122416,115050
122393,115067
122412,115036
122419,115079
122438,115073
122429,115077
122466,115081
122435,115072
122488,115077
122497,115115
122508,115125
122489,115096
122506,115093
122516,115102
122543,115097
122550,115121
122572,115115
122591,115136
122554,115148
122571,115137
122603,115143
122601,115152
122637,115140
122648,115160
122665,115183
122656,115180
122696,115169
122676,115170
122685,115188
122726,115182
122728,115221
122760,115214
122744,115220
122754,115218
122756,115213
122778,115224
122792,115223
122796,115237
122788,115236
122789,115208
122765,115236
122741,115187
122642,115152
122585,115114
122506,115083
122440,115046
122342,115001
122235,114938
122161,114921
122065,114865
121990,114834
121958,114805
121862,114774
121802,114757
121734,114711
121687,114709
121652,114673
121593,114633
121544,114634
121537,114601
121449,114610
121420,114552
121390,114569
121399,114557
121331,114562
121276,114513
121308,114515
121281,114511
121273,114514
121301,114504
121268,114492
121298,114499
121267,114478
121308,114488
121309,114534
121335,114513
121332,114506
121338,114537
121346,114506
121372,114549
121375,114526
121333,114548
121385,114565
121381,114526
121389,114538
121445,114576
121398,114533
121421,114577
121411,114545
121462,114544
121447,114579
121416,114560
121443,114569
121461,114577
121431,114542
121465,114577
121453,114594
121486,114556
121478,114560
121461,114577
121439,114548
121436,114533
121445,114586
121457,114569
121460,114551
121478,114571
121467,114551
121485,114568
121460,114561
121510,114565
121505,114577
121493,114617
121509,114564
121539,114580
121514,114613
121532,114593
121538,114620
121556,114573
121592,114608
121553,114626
121574,114596
121628,114629
121609,114628
121642,114644
121617,114650
121574,114656
121603,114599
121597,114642
121620,114625
121581,114632
121587,114608
121572,114598
121579,114619
121530,114607
121551,114598
121545,114589
121563,114591
121525,114620
121554,114589
121557,114602
121544,114591
121530,114552
121519,114598
121504,114597
121514,114580
121565,114587
121535,114559
121529,114618
121534,114591
121548,114569
121585,114601
121549,114605
121581,114583
121571,114610
121589,114626
121572,114622
121625,114647
121601,114600
121598,114628
121639,114621
121647,114642
121641,114645
121658,114662
121685,114636
121709,114658
121712,114664
121742,114656
121746,114649
121779,114701
121764,114677
121768,114699
121802,114721
121809,114693
121838,114708
121831,114732
121893,114742
121876,114733
121886,114731
121960,114767
121908,114739
121939,114755
121983,114773
121998,114750
122003,114791
121978,114793
122010,114829
122012,114763
122065,114838
122062,114793
122089,114797
122098,114857
122091,114842
122127,114872
122131,114867
122152,114848
122123,114858
122159,114839
122159,114846
122167,114859
122208,114850
122207,114899
122217,114857
122205,114926
122232,114872
122256,114895
122274,114899
122292,114886
122284,114930
122322,114921
122326,114945
122352,114939
122346,114936
122359,114943
122392,114947
122400,114957
122443,114993
122407,114967
122446,115009
122515,115014
122460,114976
122493,115007
122474,115045
122525,115013
122558,115038
122534,115016
122594,115037
122571,115065
122591,115053
122585,115053
122619,115070
122637,115071
122692,115111
122676,115059
122701,115105
122708,115144
122716,115125
122727,115118
122767,115139
122780,115120
122792,115125
122815,115170
122812,115163
122822,115173
122875,115195
122815,115180
122893,115151
122903,115229
122895,115168
122905,115211
122943,115184
122969,115246
122946,115227
122958,115259
122964,115230
122969,115234
123001,115217
122991,115261
123023,115241
122981,115246
123033,115251
123047,115248
123057,115261
123041,115244
123050,115259
123108,115273
123082,115284
123106,115311
123128,115286
123116,115283
123083,115278
123117,115268
123069,115279
123032,115268
122987,115253
122924,115196
122810,115154
122725,115063
122609,115033
122496,114974
122372,114932
122204,114863
122159,114804
122047,114755
121985,114712
121910,114726
121830,114675
121824,114671
121745,114626
121717,114616
121661,114617
121671,114597
121567,114588
121558,114574
121553,114530
121524,114575
121515,114524
121488,114554
121512,114549
121465,114521
121515,114556
121489,114511
121544,114544
121523,114543
121536,114559
121567,114552
121580,114596
121600,114558
121585,114599
121626,114625
121611,114573
121653,114572
121665,114671
121669,114628
121726,114645
121708,114656
121699,114619
121752,114652
121754,114677
121718,114651
121760,114686
121787,114658
121751,114692
121762,114700
121788,114675
121760,114676
121792,114667
121782,114707
121775,114698
121799,114672
121813,114703
121822,114712
121831,114691
121836,114677
121819,114709
121823,114688
121853,114703
121821,114699
121859,114721
121867,114757
121898,114727
121909,114756
121876,114701
121896,114742
121915,114760
121922,114756
121987,114757
121924,114795
121944,114765
121971,114792
121964,114771
121984,114763
121949,114801
121966,114794
121981,114796
121943,114751
121973,114763
121927,114753
121960,114749
121946,114769
121921,114770
121906,114746
121902,114750
121894,114727
121933,114735
121903,114753
121861,114715
121918,114748
121878,114728
121853,114730
121882,114725
121883,114747
121898,114691
121887,114733
121851,114713
121892,114725
121866,114760
121861,114720
121902,114739
121868,114745
121905,114743
121890,114759
121951,114768
121908,114745
121928,114727
121959,114760
121941,114766
121998,114790
121984,114794
122003,114799
121952,114815
121980,114775
122049,114817
122052,114823
122040,114836
122057,114815
122084,114851
122043,114805
122105,114837
122091,114862
122108,114841
122118,114887
122149,114868
122117,114858
122143,114877
122159,114866
122178,114908
122193,114886
122177,114876
122198,114890
122206,114907
122198,114889
122203,114903
122218,114922
122229,114918
122237,114928
122243,114917
122269,114913
122243,114901
122270,114920
122281,114930
122252,114942
122287,114929
122307,114943
122296,114950
122330,114965
122251,114939
122354,114995
122339,114947
122345,114954
122344,114979
122341,114948
122341,115006
122357,114971
122396,114951
122369,114969
122400,114976
122386,115005
122437,114994
122442,114984
122403,114989
122485,115041
122448,115005
122475,115033
122447,115030
122489,115024
122504,115072
122466,115013
122506,115060
122529,115056
122547,115086
122514,115037
122504,115076
122542,115062
122610,115060
122582,115102
122554,115055
122593,115105
122615,115108
122577,115132
122627,115106
122667,115087
122619,115085
122651,115136
122631,115123
122650,115103
122678,115154
122670,115105
122684,115139
122724,115133
122700,115111
122703,115165
122701,115138
122740,115160
122710,115172
122729,115142
122712,115163
122763,115160
122769,115176
122786,115172
122816,115187
122789,115183
122785,115197
122799,115195
122814,115204
122836,115181
122851,115245
122847,115181
122844,115212
122849,115226
122836,115229
122852,115176
122822,115230
122813,115205
122775,115174
122716,115149
122660,115093
122572,115089
122542,115043
122438,115006
122347,114963
122290,114894
122181,114900
122135,114867
122073,114817
121986,114834
121908,114727
121841,114735
121774,114701
121731,114684
121621,114651
121593,114642
121541,114588
121517,114603
121477,114570
121411,114576
121353,114506
121368,114522
121342,114497
121295,114477
121292,114494
121244,114493
121244,114497
121225,114482
121218,114473
121227,114456
121250,114430
121216,114454
121257,114477
121239,114463
121227,114449
121259,114481
121260,114473
121237,114471
121250,114460
121258,114478
121238,114461
121289,114516
121270,114500
121286,114463
121271,114494
121277,114465
121254,114494
121271,114485
121263,114453
121258,114498
121216,114455
121277,114483
121231,114454
121299,114483
121206,114453
121247,114451
121228,114445
121260,114445
121192,114435
121222,114433
121208,114470
121228,114456
121224,114445
121198,114424
121206,114445
121233,114468
121224,114436
121211,114461
121229,114482
121255,114481
121247,114495
121299,114505
121274,114490
121274,114483
121296,114452
121279,114526
121329,114517
121322,114494
121312,114466
121346,114480
121327,114543
121347,114500
121323,114511
121309,114528
121335,114479
121316,114493
121323,114495
121301,114480
121318,114480
121310,114490
121293,114466
121293,114469
121310,114477
121281,114462
121325,114509
121251,114462
121267,114472
121309,114526
121285,114461
121267,114475
121248,114439
121259,114488
121249,114449
121260,114482
121253,114477
121242,114461
121250,114461
121236,114464
121228,114443
121276,114463
121236,114502
121264,114496
121262,114486
121293,114481
121294,114491
121257,114471
121279,114511
121310,114496
121328,114496
121306,114510
121312,114516
121320,114498
121401,114534
121352,114513
121367,114517
121411,114537
121385,114578
121385,114531
121395,114569
121446,114583
121437,114587
121429,114559
121471,114545
121439,114565
121480,114587
121511,114569
121465,114565
121530,114595
121502,114589
121538,114617
121546,114638
121554,114598
121527,114622
121564,114653
121570,114637
121589,114614
121616,114658
121598,114606
121575,114661
121618,114662
121645,114650
121626,114676
121608,114614
121626,114662
121657,114663
121671,114646
121684,114688
121650,114683
121679,114706
121692,114694
121742,114673
121706,114696
121742,114708
121747,114701
121748,114677
121756,114712
121775,114713
121725,114691
121793,114722
121802,114742
121814,114684
121787,114719
121852,114759
121810,114745
121828,114728
121858,114781
121855,114758
121893,114743
121914,114772
121878,114805
121909,114764
121928,114777
121899,114769
121919,114793
121956,114759
121939,114833
121949,114791
122016,114813
121996,114818
121985,114816
122016,114818
122029,114826
122073,114859
122024,114874
122050,114828
122097,114844
122100,114881
122089,114858
122121,114892
122067,114909
122122,114873
122136,114912
122107,114884
122101,114888
122163,114887
122127,114928
122155,114881
122160,114954
122188,114931
122201,114910
122218,114950
122242,114935
122221,114941
122213,114936
122266,114946
122263,114922
122294,114963
122264,114971
122299,114966
122280,114985
122302,114974
122300,114982
122359,114973
122311,114980
122359,114989
122364,114984
122385,115003
122377,115044
122385,114995
122410,115024
122376,115018
122396,115031
122430,114993
122390,115043
122361,114962
122327,115006
122294,114948
122278,114913
122184,114905
122125,114870
122028,114824
121990,114818
121868,114743
121806,114701
121762,114710
121641,114646
121617,114639
121503,114618
121448,114567
121380,114529
121267,114496
121224,114508
121156,114435
121101,114436
121013,114386
121019,114405
120914,114367
120922,114332
120860,114341
120788,114311
120800,114312
120770,114317
120756,114270
120720,114282
120694,114304
120673,114249
120710,114251
120667,114233
120646,114236
120675,114267
120676,114243
120667,114269
120673,114255
120686,114274
120674,114255
120682,114252
120692,114251
120659,114260
120727,114286
120680,114232
120707,114272
120691,114256
120728,114306
120705,114225
120727,114274
120732,114282
120693,114272
120676,114275
120675,114266
120701,114268
120671,114253
120706,114269
120666,114276
120673,114283
120670,114269
120641,114246
120675,114272
120669,114283
120676,114277
120661,114250
120685,114279
120611,114247
120666,114268
120600,114259
120640,114241
120666,114296
120637,114271
120695,114270
120671,114296
120678,114293
120688,114320
120720,114301
120695,114281
120716,114288
120732,114281
120734,114302
120723,114297
120724,114294
120734,114316
120718,114311
120720,114290
120700,114299
120713,114303
120726,114307
120703,114300
120691,114280
120703,114321
120674,114278
120693,114289
120679,114280
120684,114292
120671,114275
120653,114282
120640,114254
120654,114293
120608,114254
120626,114252
120632,114278
120602,114245
120615,114233
120600,114285
120594,114250
120626,114263
120616,114255
120578,114273
120597,114248
120665,114282
120600,114222
120657,114265
120618,114278
120664,114273
120642,114312
120632,114263
120654,114286
120629,114294
120671,114268
120705,114311
120720,114272
120751,114311
120750,114342
120705,114337
120730,114327
120731,114312
120789,114329
120798,114353
120802,114371
120789,114326
120823,114387
120855,114384
120845,114397
120814,114388
120884,114354
120863,114414
120885,114396
120875,114409
120913,114387
120923,114438
120949,114387
120949,114445
120966,114398
120973,114449
120933,114435
120996,114465
120971,114447
120986,114482
120978,114444
121021,114459
121062,114458
121017,114461
121072,114469
121052,114489
121055,114469
121098,114503
121096,114496
121100,114479
121129,114494
121126,114537
121118,114488
121154,114521
121165,114522
121216,114549
121194,114573
121214,114536
121241,114561
121233,114561
121216,114576
121300,114585
121253,114586
121282,114592
121289,114560
121294,114619
121291,114611
121317,114611
121329,114596
121333,114618
121368,114601
121374,114612
121335,114612
121383,114636
121376,114649
121362,114630
121398,114626
121353,114639
121428,114657
121446,114644
121433,114675
121427,114665
121483,114679
121472,114680
121462,114673
121474,114650
121528,114689
121511,114680
121516,114685
121556,114720
121568,114724
121573,114738
121600,114721
121598,114746
121605,114727
121624,114760
121659,114731
121639,114762
121698,114774
121680,114753
121709,114756
121707,114793
121738,114780
121723,114780
121765,114802
121785,114793
121792,114833
121800,114813
121819,114831
121864,114837
121853,114858
121844,114806
121889,114881
121885,114863
121888,114863
121921,114851
121898,114900
121938,114880
121899,114865
121968,114888
121970,114888
121960,114910
121977,114893
122010,114901
122019,114936
122038,114946
122088,114942
122063,114947
122074,114942
122145,114994
122091,114942
122159,114953
122158,114992
122198,114985
122239,115009
122211,115022
122226,114989
122276,115023
122256,115025
122269,115005
122309,115016
122276,115034
122308,115038
122286,115001
122227,114980
122196,114971
122092,114936
122029,114902
121849,114859
121789,114795
121677,114711
121607,114708
121479,114643
121409,114557
121366,114580
121267,114526
121187,114509
121114,114482
121018,114426
120984,114422
120892,114399
120860,114370
120800,114339
120718,114300
120723,114315
120640,114295
120642,114252
120580,114271
120572,114245
120578,114262
120525,114252
120552,114247
120518,114228
120553,114237
120543,114253
120566,114266
120509,114277
120570,114234
120575,114283
120566,114248
120568,114262
120568,114298
120596,114258
120676,114322
120614,114284
120674,114314
120651,114318
120665,114303
120701,114316
120661,114283
120716,114317
120695,114343
120727,114314
120716,114309
120712,114323
120725,114330
120713,114333
120746,114345
120709,114326
120724,114362
120753,114333
120735,114372
120774,114328
120759,114326
120753,114351
120774,114366
120755,114327
120802,114366
120773,114369
120818,114380
120829,114371
120840,114397
120820,114395
120868,114353
120883,114426
120914,114417
120898,114425
120956,114438
120917,114428
120981,114436
120975,114462
120988,114424
121017,114449
121033,114478
121020,114458
121074,114470
121013,114488
121056,114483
121038,114496
121022,114448
121049,114469
121003,114471
121052,114480
121008,114477
121003,114460
120985,114450
121007,114472
120942,114473
120978,114421
120953,114419
120969,114448
120924,114444
120933,114444
120953,114449
120904,114409
120928,114451
120901,114405
120926,114435
120896,114453
120876,114418
120914,114431
120895,114424
120894,114438
120952,114460
120913,114425
120953,114428
120958,114461
120941,114454
120988,114472
120958,114447
121005,114452
121001,114509
121050,114500
121097,114522
121053,114549
121084,114529
121100,114557
121101,114554
121135,114555
121124,114545
121197,114575
121167,114579
121179,114573
121240,114602
121236,114592
121269,114569
121250,114636
121266,114600
121330,114663
121320,114623
121339,114647
121363,114659
121353,114672
121372,114686
121368,114670
121436,114690
121417,114702
121438,114719
121431,114715
121474,114685
121499,114733
121481,114696
121525,114718
121551,114751
121533,114727
121531,114740
121573,114786
121550,114747
121594,114786
121599,114778
121596,114786
121598,114770
121680,114797
121628,114805
121649,114826
121665,114810
121681,114842
121685,114843
121717,114833
121691,114865
121679,114804
121752,114863
121717,114865
121746,114825
121738,114873
