11111,11111
0,0
80733,81236
100670,102298
100661,102269
100664,102231
100692,102262
100658,102313
100666,102267
100679,102243
100708,102274
100737,102234
100722,102323
100737,102280
100758,102296
100818,102305
100855,102290
100857,102383
100844,102335
100924,102352
100927,102372
100963,102341
101004,102416
101007,102440
101050,102423
101091,102408
101121,102404
101154,102473
101184,102508
101200,102504
101232,102466
101318,102515
101343,102557
101398,102545
101387,102599
101417,102568
101504,102598
101526,102635
101594,102664
101677,102702
101656,102655
101713,102702
101763,102716
101830,102785
101845,102769
101885,102753
101924,102762
101982,102832
102046,102879
102073,102813
102121,102820
102148,102891
102209,102940
102245,102938
102293,102901
102356,102921
102373,102971
102408,103026
102440,103051
102512,103004
102589,103044
102553,103025
102613,103086
102654,103122
102669,103064
102724,103077
102724,103074
102814,103154
102812,103169
102799,103156
102861,103138
102853,103138
102908,103223
102900,103210
102943,103186
102963,103198
102996,103179
103017,103238
103059,103258
103085,103264
103099,103229
103129,103262
103140,103318
103166,103278
103212,103323
103222,103292
103226,103325
103268,103346
103277,103351
103312,103340
103301,103325
103356,103376
103397,103400
103382,103395
103428,103392
103450,103381
103463,103411
103449,103469
103517,103452
103503,103437
103523,103419
103583,103458
103594,103506
103618,103474
103616,103485
103588,103462
103679,103475
103696,103532
103704,103518
103705,103551
103702,103502
103737,103508
103798,103568
103797,103543
103789,103518
103835,103504
103860,103598
103885,103628
103874,103636
103908,103602
103978,103588
103972,103632
104013,103673
104019,103661
104065,103715
104067,103629
100513,102030
100690,102205
100701,102176
101519,102524
101457,102521
101532,102531
101279,102407
101293,102413
101251,102416
101285,102357
101388,102424
101408,102441
101390,102516
101441,102469
101461,102499
101462,102461
101520,102526
101525,102558
101519,102529
101540,102519
101601,102491
101593,102544
101627,102559
101677,102572
101681,102558
101702,102559
101771,102612
101771,102631
101781,102598
101865,102640
101833,102593
101909,102674
101910,102731
101904,102649
101974,102683
101966,102671
101995,102693
102020,102738
102024,102765
102019,102713
102097,102714
102060,102749
102086,102789
102111,102755
102122,102757
102129,102710
102156,102812
102167,102796
102204,102821
102190,102779
102171,102746
102225,102843
102226,102804
102202,102835
102213,102794
102254,102780
102212,102814
102234,102833
102267,102833
102247,102797
102236,102751
102250,102855
102278,102843
102290,102798
102352,102814
102319,102820
102302,102855
102344,102880
102354,102834
102377,102855
102328,102820
102361,102869
102346,102868
102282,102841
102316,102825
102304,102803
102291,102822
102306,102854
102249,102810
102244,102791
102253,102801
102204,102805
102205,102800
102224,102789
102241,102782
102202,102746
102226,102793
102198,102818
102183,102764
102216,102756
102203,102769
102231,102819
102180,102767
102213,102807
102179,102748
102241,102742
102226,102826
102206,102816
102213,102789
102223,102738
102228,102807
102211,102807
102202,102795
102169,102771
102187,102739
102172,102764
102155,102789
102159,102789
102156,102756
102143,102748
102124,102738
102163,102792
102123,102791
102127,102766
102114,102724
102126,102733
102131,102761
102173,102768
102133,102791
102182,102744
102221,102757
102189,102826
102229,102833
102224,102807
102207,102754
102236,102783
102181,102777
102191,102767
102061,102739
101909,102580
101823,102525
101638,102515
101442,102405
101285,102311
101128,102226
100923,102118
100795,102100
100601,102058
100484,101974
100288,101854
100170,101825
100024,101781
99940,101770
99797,101693
99675,101614
99557,101558
99482,101596
99366,101537
99316,101505
99188,101445
99116,101417
99027,101448
98990,101376
98984,101373
98896,101320
98860,101309
98874,101338
98852,101367
98842,101300
98891,101333
98867,101317
98893,101343
98952,101375
98956,101407
98982,101343
99086,101422
99090,101452
99140,101473
99244,101482
99262,101475
99309,101496
99334,101535
99412,101578
99458,101584
99486,101580
99524,101590
99583,101609
99603,101643
99662,101622
99711,101636
99737,101655
99768,101711
99821,101686
99839,101745
99852,101699
99921,101759
99956,101798
100010,101776
100043,101812
100047,101739
100121,101803
100168,101885
100182,101847
100248,101887
100215,101841
100309,101890
100296,101932
100381,101940
100428,101919
100417,101905
100426,101941
100488,101970
100468,101979
100448,101933
100491,101903
100480,101927
100532,102011
100471,101976
100479,101934
100459,101919
100458,101923
100497,101981
100443,101914
100459,101940
100429,101903
100421,101907
100413,101941
100433,101911
100408,101912
100351,101832
100408,101927
100413,101931
100355,101917
100396,101883
100328,101854
100379,101871
100405,101940
100391,101917
100404,101917
100400,101877
100464,101924
100466,101956
100471,101905
100480,101939
100527,101920
100569,101965
100607,102040
100649,101964
100675,102042
100696,102016
100689,102051
100772,102117
100785,102034
100873,102109
100835,102091
100891,102114
100923,102156
100950,102163
100977,102135
101022,102156
101015,102191
101072,102216
101106,102192
101104,102170
101125,102192
101129,102205
101234,102284
101216,102246
101224,102276
101296,102295
101305,102274
101383,102333
101399,102363
101474,102348
101437,102328
101527,102414
101574,102442
101627,102415
101648,102459
101674,102392
101731,102480
101768,102546
101816,102506
101850,102524
101872,102480
101938,102590
101949,102611
102012,102579
102024,102602
102008,102583
102095,102631
102131,102685
102164,102645
102169,102675
102149,102586
102214,102724
102228,102678
102226,102655
102272,102684
102268,102682
102287,102692
102368,102733
102325,102739
102355,102714
102354,102719
102377,102745
102393,102748
102410,102785
102436,102782
102422,102743
102486,102803
102539,102833
102528,102820
102545,102780
102578,102801
102622,102836
102651,102853
102650,102816
102716,102844
102652,102860
102717,102866
102718,102917
102732,102912
102736,102866
102790,102899
102783,102888
102804,102923
102797,102948
102798,102932
102812,102885
102867,102952
102842,102964
102906,102948
102883,102944
102902,102899
102888,102975
102928,103017
102961,102945
102996,102998
102964,102960
103002,103014
103023,102995
103039,103041
103068,102971
103077,103012
103141,103035
103127,103080
103136,103053
103169,103007
103175,103041
103225,103080
103275,103115
103262,103082
103347,103086
103253,103092
103323,103112
103355,103152
103334,103123
103381,103127
103370,103123
103444,103166
103507,103206
103487,103165
103512,103192
103494,103125
103567,103265
103615,103247
103580,103223
103663,103211
103641,103198
103696,103309
103768,103288
103735,103295
103749,103298
103774,103240
103814,103357
103880,103366
103847,103316
103833,103320
103732,103244
103701,103305
103533,103166
103328,103062
103025,102911
102716,102775
102419,102653
102170,102561
101897,102379
101689,102296
101481,102212
101343,102188
101186,102108
101032,102047
100914,101975
100777,101898
100700,101920
100614,101872
100546,101851
100436,101755
100363,101761
100331,101781
100267,101761
100234,101699
100156,101671
100091,101668
100110,101698
100096,101702
100048,101655
100027,101655
99995,101628
100048,101678
100025,101682
100066,101677
100046,101677
100063,101669
100096,101717
100126,101755
100167,101709
100189,101753
100184,101748
100269,101804
100293,101844
100319,101792
100324,101792
100331,101786
100433,101882
100400,101898
100472,101866
100496,101861
100504,101897
100520,101910
100571,101912
100567,101914
100620,101899
100665,101906
100674,101987
100720,101959
100747,102014
100732,101961
100799,101960
100864,102061
100919,102086
100901,102026
100964,102059
100996,102097
101030,102141
101060,102129
101121,102155
101091,102105
101128,102121
101201,102194
101206,102219
101226,102181
101179,102127
101154,102143
101204,102139
101192,102188
101176,102119
101171,102121
101152,102138
101129,102147
101172,102149
101113,102101
101105,102088
101111,102094
101053,102145
101084,102078
101063,102104
101069,102076
101048,102057
101052,102068
101047,102108
101019,102041
101038,102026
100987,102036
101034,102073
100987,102082
100997,102074
100961,102009
100957,102053
101011,102079
101031,102096
100996,102056
101011,102058
101017,102054
101039,102100
101046,102093
101065,102106
101051,102042
101075,102110
101123,102138
101197,102141
101156,102155
101153,102067
101229,102166
101237,102210
101272,102200
101323,102164
101343,102186
101333,102194
101448,102265
101430,102241
101468,102265
101477,102260
101538,102252
101593,102338
101611,102316
101620,102336
101651,102295
101654,102339
101759,102385
101771,102426
101803,102414
101802,102357
101832,102422
101895,102461
101936,102486
101945,102451
102002,102461
102000,102487
102084,102579
102086,102504
102146,102563
102126,102521
102166,102539
102211,102598
102267,102597
102298,102631
102246,102573
102368,102635
102363,102670
102395,102644
102400,102651
102417,102627
102429,102650
102493,102675
102480,102660
102546,102727
102552,102669
102543,102702
102596,102747
102604,102753
102599,102713
102625,102693
102648,102721
102676,102774
102664,102762
102702,102759
102681,102738
102718,102782
102694,102804
102727,102762
102743,102783
102722,102721
102730,102795
102804,102836
102823,102834
102837,102804
102815,102783
102886,102832
102893,102890
102917,102841
102964,102858
102936,102858
102989,102854
103070,102935
103045,102891
103058,102909
103084,102884
103096,102929
103137,102954
103205,102969
103206,102942
103180,102937
103254,102982
103273,103041
103302,102977
103306,103005
103326,102952
103373,103027
103419,103035
103397,103076
103419,103005
103451,103050
103436,103067
103472,103089
103497,103081
103510,103074
103461,102982
103509,103092
103522,103121
103544,103093
103571,103095
103552,103076
103604,103096
103659,103160
103644,103136
103637,103153
103635,103079
103637,103171
103696,103152
103750,103198
103728,103131
103721,103134
103744,103179
103846,103209
103824,103208
103841,103213
103853,103203
103911,103238
103933,103250
103972,103289
103929,103260
103953,103182
103925,103277
103919,103267
103837,103166
103673,103111
103405,102932
103222,102892
102930,102750
102541,102561
102254,102429
101958,102318
101778,102228
101617,102168
101436,102117
101305,102026
101186,101923
101104,101978
100999,101895
100948,101896
100902,101824
100766,101789
100748,101802
100721,101762
100650,101776
100599,101720
100582,101669
100555,101728
100571,101719
100521,101697
100534,101713
100501,101664
100534,101690
100548,101743
100542,101742
100544,101744
100583,101692
100586,101786
100648,101810
100656,101774
100707,101775
100698,101811
100745,101842
100814,101887
100804,101838
100885,101850
100879,101884
100910,101934
100993,101939
101023,101972
101024,101967
101078,101930
101114,102023
101136,102026
101203,102027
101209,102045
101247,102009
101235,102068
101329,102061
101299,102083
101305,102037
101317,102057
101369,102108
101412,102126
101395,102098
101459,102112
101431,102148
101483,102159
101520,102177
101585,102173
101582,102182
101632,102187
101707,102235
101702,102273
101730,102244
101722,102241
101669,102238
101733,102259
101790,102283
101751,102280
101728,102219
101711,102166
101752,102250
101689,102239
101702,102200
101677,102206
101663,102169
101685,102214
101657,102225
101647,102191
101591,102187
101566,102133
101569,102171
101594,102181
101565,102121
101523,102130
101533,102116
101535,102159
101538,102142
101532,102095
101539,102126
101467,102148
101516,102129
101538,102145
101520,102161
101533,102117
101491,102087
101570,102132
101589,102198
101581,102141
101604,102133
101624,102144
101636,102215
101665,102187
101740,102235
101721,102168
101754,102188
101826,102263
101821,102288
101902,102260
101875,102275
101911,102257
101975,102331
101997,102358
102055,102354
102060,102358
102087,102348
102150,102419
102145,102453
102210,102425
102211,102413
102257,102465
102289,102491
102345,102507
102393,102481
102403,102477
102403,102516
102447,102525
102528,102564
102544,102543
102539,102551
102565,102589
102594,102609
102682,102639
102684,102606
102696,102619
102762,102639
102822,102697
102839,102703
102854,102667
102913,102680
102933,102706
102982,102745
102981,102759
103021,102742
103024,102734
103057,102744
103109,102818
103151,102823
103134,102796
103110,102788
103201,102805
103205,102873
103237,102822
103238,102840
103258,102840
103261,102803
103360,102909
103342,102891
103352,102889
103352,102859
103374,102901
103421,102923
103413,102896
103483,102925
103439,102911
103485,102921
103516,102969
103528,102955
103549,102998
103522,102944
103571,102933
103612,102989
103654,102989
103660,103020
103624,102973
103683,102987
103739,103055
103745,103047
103765,103010
103783,103007
103753,103037
103845,103056
103825,103059
103840,103089
103857,103050
103825,103072
103915,103129
103890,103045
103902,103081
103872,103079
103922,103067
103980,103127
103935,103146
103971,103094
103961,103106
104010,103102
104061,103166
104074,103169
104052,103167
104050,103091
104108,103145
104179,103189
104173,103197
104160,103190
104168,103172
104228,103209
104278,103280
104284,103254
104290,103233
104287,103177
104299,103240
104376,103304
104353,103262
104387,103287
104328,103215
104339,103245
104331,103242
104252,103235
104124,103138
103878,103003
103690,102924
103461,102821
103094,102641
102774,102498
102440,102314
102165,102250
101952,102153
101763,102038
101638,102022
101454,101888
101385,101915
101347,101901
101241,101866
101148,101787
101080,101736
101069,101760
101085,101777
101038,101749
100955,101735
100936,101664
101001,101744
100982,101781
100957,101724
100954,101711
100975,101728
100989,101730
101044,101803
101049,101787
101111,101795
101070,101782
101174,101836
101223,101902
101266,101894
101298,101903
101339,101898
101418,101921
101485,101996
101514,102001
101574,101984
101578,101985
101668,102093
101737,102114
101807,102093
101849,102158
101841,102085
101945,102173
102016,102191
102019,102196
102093,102219
102063,102229
102162,102269
102207,102301
102242,102269
102263,102317
102246,102262
102351,102350
102395,102352
102410,102352
102458,102388
102442,102328
102497,102438
102584,102458
102646,102458
102689,102460
102651,102470
102750,102489
102763,102556
102767,102525
102777,102519
102786,102455
102823,102554
102820,102538
102829,102533
102800,102503
102741,102481
102785,102499
102791,102510
102726,102494
102714,102451
102731,102435
102700,102452
102717,102461
102688,102422
102693,102420
102604,102393
102660,102424
102694,102454
102622,102405
102625,102414
102583,102373
102610,102420
102626,102396
102588,102405
102604,102387
102540,102370
102607,102408
102595,102402
102619,102434
102584,102408
102593,102362
102657,102448
102682,102460
102663,102434
102744,102426
102688,102441
102761,102469
102795,102525
102818,102484
102885,102516
102818,102509
102927,102547
102976,102586
102995,102581
103006,102568
103029,102542
103081,102618
103123,102602
103174,102648
103189,102642
103195,102656
103258,102720
103305,102685
103323,102729
103348,102700
103331,102709
103358,102769
103458,102762
103444,102801
103467,102753
103460,102760
103522,102817
103606,102848
103602,102846
103599,102838
103604,102770
103674,102915
103687,102862
103707,102898
103719,102842
103712,102890
103822,102926
103811,102940
103835,102911
103835,102885
103847,102925
103890,102956
103943,102972
103926,102949
103913,102962
103868,102945
103958,102983
104008,103023
103979,102964
103993,102983
103993,102981
104061,102992
104068,103055
104071,103007
104065,103032
104040,102982
104092,103055
104113,103038
104127,103052
104093,103011
104127,103034
104123,103061
104189,103065
104160,103066
104123,103056
104142,103029
104183,103088
104202,103066
104226,103102
104189,103057
104169,103025
104254,103113
104234,103128
104247,103069
104231,103056
104206,103090
104251,103120
104294,103097
104281,103133
104253,103064
104275,103097
104287,103125
104321,103107
104319,103135
104306,103055
104320,103105
104392,103170
104398,103138
104362,103153
104369,103117
104385,103145
104461,103181
104413,103170
104425,103196
104399,103127
104447,103174
104445,103189
104465,103163
104464,103189
104443,103140
104471,103144
104512,103196
104514,103216
104517,103178
104512,103172
104495,103186
104539,103235
104594,103205
104559,103255
104536,103172
104582,103199
104594,103243
104637,103252
104611,103247
104584,103180
104620,103249
104672,103290
104730,103263
104673,103281
104688,103196
104706,103277
104771,103295
104735,103311
104774,103291
104718,103260
104733,103234
104736,103306
104672,103225
104546,103167
104365,103066
104154,102973
103906,102867
103649,102691
103245,102585
102896,102357
102530,102285
102313,102145
102066,102052
101918,101957
101692,101865
101622,101839
101529,101798
101433,101797
101319,101703
101283,101686
101222,101683
101178,101692
101176,101651
101127,101671
101067,101585
101106,101641
101117,101686
101094,101673
101114,101691
101096,101602
101169,101685
101169,101718
101231,101718
101240,101700
101268,101713
101291,101766
101404,101822
101422,101811
101511,101848
101555,101807
101562,101830
101674,101936
101682,101961
101766,101947
101793,101941
101823,101981
101867,102056
101966,102036
101943,102076
101961,102008
102024,102105
102068,102147
102089,102123
102127,102130
102096,102126
102190,102138
102191,102158
102245,102173
102189,102189
102198,102093
102220,102177
102281,102222
102301,102193
102293,102219
102312,102163
102337,102244
102439,102246
102438,102298
102447,102281
102472,102243
102493,102286
102569,102307
102567,102348
102590,102314
102578,102296
102587,102322
102568,102357
102584,102312
102537,102307
102506,102249
102487,102288
102503,102312
102476,102283
102407,102250
102370,102179
102361,102232
102351,102245
102357,102202
102305,102214
102275,102160
102303,102173
102271,102219
102274,102205
102229,102157
102158,102103
102215,102145
102228,102205
102205,102126
102197,102130
102201,102101
102175,102130
102253,102201
102208,102130
102270,102181
102226,102112
102278,102170
102313,102242
102291,102171
102361,102221
102309,102182
102355,102228
102428,102272
102428,102263
102460,102250
102443,102194
102522,102328
102544,102294
102572,102342
102610,102316
102592,102320
102612,102340
102707,102373
102681,102396
102701,102400
102729,102352
102785,102426
102813,102401
102860,102447
102826,102430
102868,102402
102917,102479
102961,102490
102967,102521
103014,102489
103035,102476
103052,102526
103135,102567
103128,102525
103184,102556
103143,102561
103215,102578
103257,102641
103305,102641
103271,102661
103267,102555
103333,102672
103389,102667
103349,102654
103396,102651
103391,102674
103455,102686
103480,102722
103496,102711
103494,102700
103419,102662
103532,102710
103588,102768
103552,102707
103546,102727
103537,102683
103583,102770
103634,102750
103619,102770
103612,102742
103632,102755
103649,102772
103679,102817
103677,102807
103649,102782
103645,102741
103690,102809
103714,102817
103709,102799
103702,102768
103689,102796
103755,102801
103798,102865
103734,102834
103782,102809
103767,102767
103831,102871
103831,102864
103853,102865
103841,102846
103834,102833
103891,102869
103889,102883
103915,102888
103889,102865
103884,102852
103923,102901
103934,102916
103928,102886
103932,102878
103921,102846
103969,102923
103989,102935
104012,102908
104014,102885
103954,102872
104032,102939
104049,102941
104008,102933
104067,102903
104027,102913
104111,102969
104079,102975
104127,102966
104070,102952
104130,102931
104165,102984
104178,102992
104143,102970
104173,102977
104126,102915
104170,103000
104205,103036
104232,102997
104217,103010
104159,102949
104216,103040
104265,103035
104260,103048
104263,102977
104233,102971
104277,103072
104324,103051
104315,103077
104324,103001
104353,103037
104384,103062
104411,103086
104403,103107
104380,103061
104444,103097
104475,103125
104485,103134
104485,103121
104485,103084
104454,103072
104475,103128
104447,103105
104360,103065
104213,102950
104036,102861
103826,102779
103550,102677
103204,102467
102834,102303
102525,102169
102202,102081
102007,101953
101839,101904
101672,101801
101580,101740
101483,101781
101374,101664
101306,101649
101192,101562
101134,101550
101076,101603
101120,101590
101035,101544
101041,101491
100989,101510
101051,101567
101033,101586
100999,101520
101021,101543
101006,101504
101051,101607
101097,101571
101123,101613
101085,101575
101131,101585
101209,101646
101229,101675
101268,101673
101275,101659
101358,101678
101445,101760
101452,101773
101535,101804
101566,101774
101563,101808
101636,101840
101705,101914
101772,101913
101790,101901
101817,101911
101876,101983
101949,101974
101960,102013
101948,101941
102014,101986
102062,102056
102036,102051
102063,102049
102058,101989
102107,102047
102109,102078
102112,102052
102161,102066
102172,102052
102150,102059
102240,102109
102300,102160
102304,102132
102357,102128
102335,102141
102424,102187
102482,102189
102471,102194
102445,102170
102468,102190
102524,102208
102541,102237
102495,102184
102540,102188
102495,102195
102503,102236
102504,102185
102505,102196
102448,102154
102484,102142
102483,102209
102464,102156
102466,102154
102396,102128
102417,102096
102443,102177
102439,102150
102381,102110
102341,102076
102350,102127
102385,102151
102364,102096
102342,102084
102332,102072
102353,102136
102367,102161
102398,102108
102349,102164
102347,102080
102428,102150
102453,102190
102444,102149
102463,102199
102455,102121
102500,102202
102538,102227
102607,102249
102577,102238
102577,102177
102670,102267
102712,102287
102691,102267
102719,102280
102759,102239
102799,102333
102870,102357
102893,102362
102895,102317
102955,102344
102948,102378
103064,102424
103055,102447
103113,102455
103086,102402
103169,102495
103198,102499
103272,102491
103275,102499
103303,102484
103313,102552
103430,102593
103403,102553
103484,102611
103458,102595
103506,102613
103618,102652
103615,102646
103647,102692
103599,102617
103679,102702
103731,102674
103767,102699
103778,102708
103737,102709
103761,102735
103856,102756
103859,102771
103881,102755
103848,102736
103907,102755
103905,102830
103902,102756
103889,102761
103894,102735
103929,102816
103930,102814
103957,102791
103932,102797
103916,102751
103914,102814
103962,102808
103927,102807
103976,102790
103919,102775
103940,102786
104012,102846
103956,102801
103995,102785
103949,102733
104019,102862
104059,102853
104029,102789
104041,102814
104021,102794
104056,102836
104095,102861
104089,102841
104086,102824
104026,102785
104125,102899
104069,102888
104104,102843
104077,102856
104108,102827
104095,102866
104160,102859
104125,102901
104132,102827
104070,102822
104182,102885
104180,102896
104142,102888
104194,102861
104128,102851
104216,102898
104216,102921
104208,102868
104249,102888
104175,102880
104267,102888
104266,102933
104238,102915
104308,102921
104204,102891
104285,102939
104300,102965
104284,102918
104305,102938
104247,102919
104303,102924
104382,102976
104326,102973
104323,102962
104286,102887
104375,102969
104378,102966
104388,102982
104350,102959
104369,102914
104392,102995
104437,103016
104425,103017
104423,102975
104435,102992
104493,103015
104497,103059
104499,103028
104521,103010
104499,103036
104584,103083
104578,103083
104595,103034
104569,103048
104538,102985
104568,103113
104551,103036
104493,102976
104398,102939
104209,102837
104037,102793
103796,102660
103451,102498
103098,102330
102725,102106
102412,102071
102125,101928
101936,101831
101767,101734
101601,101655
101493,101650
101453,101596
101301,101562
101249,101489
101161,101478
101137,101528
101128,101514
101096,101444
101069,101445
101010,101381
101050,101469
101043,101467
101011,101427
101045,101412
100995,101445
101074,101468
101136,101520
101118,101441
101152,101491
101132,101488
101235,101573
101273,101566
101293,101575
101315,101538
101381,101631
101461,101668
101496,101696
101569,101683
101597,101710
101617,101703
101682,101795
101793,101810
101779,101841
101825,101779
101871,101855
101941,101916
102011,101902
101990,101935
102049,101889
102048,101947
102119,101970
102185,101981
102163,101996
102213,101968
102166,101972
102271,102009
102294,102045
102289,102042
102333,102039
102354,102008
102405,102126
102438,102122
102482,102132
102516,102112
102509,102102
102617,102183
102598,102221
102618,102173
102644,102174
102598,102155
102664,102205
102675,102225
102625,102155
102646,102152
102595,102134
102612,102172
102571,102181
102513,102127
102528,102076
102476,102096
102472,102127
102499,102082
102420,102072
102431,102038
102358,102026
102414,102078
102387,102048
102356,102047
102313,102000
102300,102008
102330,102054
102317,102032
102299,102026
102253,101975
102263,101996
102281,102042
102278,102024
102293,102002
102240,101975
102281,102000
102336,102034
102354,102044
102326,102032
102352,102000
102382,102043
102442,102101
102464,102109
102486,102081
102494,102083
102544,102110
102598,102163
102648,102191
102676,102151
102667,102166
102728,102189
102827,102273
102851,102252
102829,102260
102889,102239
102925,102253
103011,102349
103022,102339
103061,102353
103099,102329
103110,102372
103195,102465
103232,102384
103255,102432
103298,102427
103316,102452
103402,102530
103472,102537
103475,102505
103487,102526
103517,102521
103612,102612
103612,102594
103627,102594
103651,102554
103652,102592
103722,102641
103755,102667
103785,102643
103744,102625
103789,102668
103842,102690
103871,102667
103843,102690
103884,102688
103844,102703
103935,102735
103931,102745
103939,102748
103916,102682
103967,102746
104029,102780
103971,102751
103973,102744
103995,102738
104015,102752
104027,102815
103998,102718
104024,102758
104031,102719
104019,102753
104082,102820
104068,102742
104038,102779
104064,102768
104042,102782
104085,102814
104084,102771
104068,102774
104025,102747
104081,102809
104082,102827
104059,102815
104061,102778
104029,102747
104071,102785
104100,102803
104060,102807
104090,102791
104009,102753
104063,102784
104108,102840
104071,102798
104059,102798
104023,102724
104094,102804
104058,102846
104054,102767
104047,102774
104049,102744
104029,102765
104115,102811
104025,102803
104022,102769
104035,102777
104055,102771
104109,102806
104055,102774
104047,102780
104078,102763
104067,102807
104113,102803
104059,102817
104098,102806
104041,102768
104081,102801
104164,102854
104118,102852
104124,102852
104109,102791
104162,102883
104175,102865
104206,102846
104184,102875
104157,102843
104225,102857
104217,102892
104253,102860
104241,102911
104230,102812
104265,102908
104279,102927
104279,102899
104188,102861
104124,102773
104001,102758
103849,102679
103568,102552
103231,102367
102910,102189
102564,102099
102278,101953
102048,101864
101877,101775
101695,101664
101606,101642
101459,101612
101367,101572
101276,101514
101195,101416
101166,101483
101095,101455
101061,101439
101000,101395
100936,101338
100956,101359
100929,101406
100881,101327
100901,101343
100796,101304
100819,101345
100893,101372
100825,101350
100884,101304
100859,101337
100878,101365
100948,101420
100912,101375
100963,101401
100943,101410
101018,101433
101069,101479
101058,101462
101077,101461
101134,101471
101147,101517
101206,101535
101240,101567
101260,101554
101294,101550
101312,101590
101370,101590
101376,101624
101416,101627
101421,101597
101503,101656
101544,101705
101539,101641
101568,101691
101535,101644
101581,101714
101635,101724
101623,101676
101658,101698
101632,101707
101690,101745
101736,101762
101696,101773
101728,101722
101772,101771
101801,101768
101857,101839
101842,101805
101876,101813
101845,101793
101909,101837
101945,101864
101919,101817
101907,101828
101865,101798
101908,101823
101934,101851
101818,101768
101815,101782
101795,101755
101815,101797
101775,101751
101764,101762
101709,101724
101710,101701
101729,101764
101672,101730
101681,101735
101626,101659
101642,101681
101622,101710
101638,101699
101609,101694
101577,101652
101581,101621
101580,101706
101598,101681
101561,101617
101590,101637
101533,101631
101618,101697
101629,101638
101622,101701
101599,101664
101564,101684
101638,101665
101696,101712
101671,101714
101679,101697
101715,101706
101724,101774
101750,101748
101796,101780
101781,101738
101832,101795
101880,101810
101905,101809
101957,101843
101926,101843
101959,101816
102021,101875
102047,101889
102027,101870
102063,101888
102105,101867
102135,101951
102163,101943
102184,101926
102178,101928
102201,101967
102237,101983
102302,101992
102300,101989
102321,101963
102331,101967
102418,102054
102385,102048
102462,102071
102494,102039
102477,102085
102576,102120
102625,102137
102615,102111
102640,102084
102668,102141
102697,102201
102764,102186
102763,102196
102772,102149
102805,102207
102840,102216
102841,102230
102893,102257
102881,102220
102900,102209
102977,102279
102970,102302
102956,102262
103014,102243
102989,102256
103053,102345
103031,102274
103054,102322
103066,102288
103075,102321
103106,102323
103140,102351
103118,102307
103133,102326
103124,102310
103165,102356
103218,102367
103200,102350
103168,102314
103165,102357
103238,102381
103244,102354
103244,102372
103227,102366
103233,102328
103263,102386
103297,102392
103290,102367
103288,102387
103280,102355
103357,102443
103348,102408
103328,102436
103368,102397
103322,102405
103376,102428
103418,102478
103428,102457
103393,102429
103424,102427
103481,102475
103456,102507
103472,102481
103474,102425
103505,102470
103512,102541
103574,102533
103517,102468
103583,102457
103543,102499
103600,102541
103613,102535
103595,102539
103586,102447
103642,102553
103683,102591
103678,102548
103676,102584
103675,102491
103695,102592
103733,102579
103760,102607
103775,102594
103763,102561
103786,102597
103883,102648
103874,102636
103911,102639
103871,102628
103935,102663
104007,102713
103979,102717
104015,102685
104014,102672
104071,102726
104093,102757
104106,102743
104115,102743
104115,102725
104182,102764
104205,102782
104174,102762
104209,102768
104145,102709
104049,102670
103926,102628
103697,102508
103447,102370
103064,102170
102697,102035
102375,101935
102121,101773
101883,101675
101742,101565
101597,101548
101505,101553
101369,101464
101275,101416
101149,101345
101107,101347
101039,101342
101033,101314
100967,101290
100897,101249
100880,101232
100897,101254
100839,101255
100794,101223
100802,101184
100776,101224
100827,101258
100832,101262
100818,101225
100832,101207
100848,101255
100905,101290
100924,101264
100955,101280
100958,101284
101027,101350
101086,101366
101108,101363
101147,101392
101173,101365
101215,101436
101294,101476
101307,101473
101355,101454
101343,101461
101433,101532
101494,101548
101517,101568
101546,101562
101546,101539
101641,101608
101652,101636
101687,101625
101673,101611
101679,101599
101721,101651
101776,101698
101773,101675
101785,101665
101740,101639
101810,101712
101817,101694
101812,101689
101885,101664
101867,101725
101925,101725
101974,101780
101998,101741
102014,101758
102015,101758
102073,101784
102085,101807
102106,101788
102083,101809
102065,101717
102067,101818
102101,101812
102085,101771
102060,101790
102034,101760
102028,101757
101999,101775
101988,101735
101958,101739
101942,101673
101934,101712
101920,101697
101915,101723
101881,101691
101851,101640
101862,101699
101817,101671
101871,101691
101817,101668
101771,101599
101829,101656
101802,101672
101816,101654
101778,101635
101732,101606
101770,101634
101843,101632
101785,101668
101819,101646
101775,101642
101853,101645
101888,101707
101864,101649
101895,101667
101888,101667
101937,101717
102002,101765
102013,101722
101982,101714
102020,101728
102087,101765
102096,101778
102155,101792
102139,101819
102157,101758
102212,101857
102232,101823
102262,101850
102269,101826
102310,101868
102384,101913
102410,101923
102421,101913
102462,101929
102420,101899
102471,101978
102547,101966
102568,102000
102609,101989
102576,101973
102684,102037
102703,102027
102748,102043
102727,102052
102755,102079
102830,102092
102808,102107
102859,102146
102868,102075
102921,102119
102929,102155
102978,102166
102999,102170
103020,102177
102972,102127
103065,102219
103045,102207
103071,102234
103060,102201
103123,102197
103145,102236
103162,102230
103205,102239
103189,102230
103151,102228
103224,102259
103229,102247
103223,102272
103195,102251
103219,102243
103228,102310
103252,102255
103246,102292
103252,102273
103222,102247
103268,102324
103269,102277
103262,102309
103247,102267
103260,102259
103295,102295
103290,102324
103318,102279
103283,102271
103271,102287
103333,102342
103332,102280
103297,102322
103291,102249
103357,102284
103339,102338
103374,102336
103333,102285
103356,102305
103332,102326
103353,102334
103427,102338
103406,102355
103431,102310
103411,102346
103427,102383
103454,102360
103470,102385
103462,102330
103480,102367
103507,102413
103525,102364
103537,102429
103520,102363
103544,102369
103581,102410
103564,102422
103590,102435
103595,102398
103549,102406
103637,102465
103584,102433
103647,102416
103622,102414
103607,102388
103691,102462
103687,102465
103659,102434
103675,102438
103673,102424
103730,102487
103713,102493
103709,102486
103714,102450
103764,102483
103781,102559
103776,102496
103813,102546
103782,102468
103810,102500
103887,102521
103908,102574
103900,102518
103942,102543
103934,102583
103964,102596
103909,102576
103879,102528
103740,102447
103625,102376
103454,102301
103123,102185
102806,101995
102438,101814
102150,101713
101979,101621
101798,101547
101683,101515
101509,101415
101364,101363
101319,101315
101209,101319
101130,101278
101055,101212
100982,101186
100966,101190
100948,101208
100888,101143
100837,101129
100835,101160
100774,101156
100808,101173
100775,101090
100796,101076
100770,101139
100807,101160
100803,101113
100836,101139
100788,101134
100828,101129
100893,101207
100864,101174
100913,101176
100919,101203
100981,101212
101021,101292
101048,101249
101073,101248
101086,101242
101113,101279
101196,101369
101189,101307
101246,101373
101224,101331
101290,101371
101342,101398
101330,101409
101371,101393
101374,101377
101373,101441
101453,101486
101460,101487
101472,101434
101475,101422
101481,101487
101518,101495
101546,101491
101510,101441
101561,101474
101568,101458
101622,101524
101627,101529
101682,101514
101612,101464
101715,101576
101703,101574
101730,101594
101772,101601
101724,101552
101812,101600
101808,101607
101823,101623
101811,101604
101726,101527
101771,101602
101752,101595
101736,101554
101711,101517
101699,101512
101688,101515
101695,101549
101659,101525
101625,101474
101599,101458
101596,101488
101588,101492
101610,101458
101553,101463
101514,101405
101554,101450
101544,101463
101552,101424
101497,101436
101478,101386
101513,101408
101496,101435
101526,101438
101497,101408
101445,101372
101504,101454
101498,101469
101553,101430
101496,101410
101528,101399
101543,101441
101622,101485
101574,101495
101617,101465
101641,101435
101658,101515
101740,101568
101696,101538
101726,101530
101720,101534
101798,101546
101815,101579
101823,101623
101818,101574
101851,101549
101907,101625
101966,101662
101955,101645
102031,101660
101968,101657
102072,101688
102122,101739
102151,101750
102151,101738
102173,101681
102234,101786
102269,101772
102315,101776
102307,101768
102327,101760
102350,101837
102400,101814
102433,101850
102420,101823
102436,101819
102499,101893
102526,101874
102510,101910
102526,101863
102572,101892
102614,101953
102626,101930
102601,101931
102617,101937
102651,101912
102661,101941
102700,102007
102741,101949
102759,101955
102700,101954
102797,101960
102835,102022
102824,102024
102826,102011
102844,101991
102847,102018
102928,102041
102888,102059
102889,102031
102916,101998
102938,102066
102920,102057
102964,102063
102936,102035
102972,102029
102963,102090
103006,102074
102977,102076
102985,102056
102989,102062
103030,102120
103001,102122
103070,102109
103015,102097
103050,102037
103063,102129
103097,102123
103090,102076
103119,102110
103076,102098
103140,102146
103163,102141
103141,102135
103160,102147
103167,102115
103186,102183
103201,102143
103265,102199
103211,102159
103265,102139
103294,102238
103341,102227
103298,102207
103310,102184
103311,102153
103359,102227
103361,102229
103365,102176
103366,102209
103358,102192
103396,102245
103397,102231
103430,102247
103408,102222
103456,102242
103484,102302
103474,102285
103463,102265
103497,102281
103521,102267
103528,102307
103580,102335
103558,102298
103587,102310
103603,102314
103647,102355
103650,102354
103680,102356
103687,102334
103687,102347
103758,102395
103751,102371
103681,102348
103660,102303
103521,102222
103318,102194
103066,102029
102778,101917
102435,101709
102209,101631
102045,101545
101878,101523
101760,101444
101597,101375
101470,101280
101387,101302
101282,101276
101241,101183
101200,101158
101103,101111
101092,101161
101092,101157
101050,101140
100991,101071
101014,101104
101018,101161
100988,101129
100958,101129
100978,101077
100950,101096
100969,101144
101045,101134
101012,101142
101010,101087
101035,101141
101083,101193
101118,101186
101144,101218
101095,101176
101166,101197
101206,101263
101242,101264
101242,101264
101256,101194
101349,101289
101371,101281
101400,101339
101417,101323
101457,101326
101463,101299
101505,101380
101555,101401
101541,101375
101551,101321
101582,101419
101624,101439
101639,101429
101654,101442
101629,101389
101660,101427
101714,101482
101699,101448
101741,101470
101726,101399
101742,101453
101784,101487
101818,101484
101826,101528
101807,101468
101832,101488
101885,101564
101904,101559
101963,101563
101939,101523
101928,101593
101966,101580
101969,101579
101967,101541
101931,101538
101898,101500
101967,101585
101939,101531
101898,101554
101862,101504
101878,101486
101887,101535
101843,101510
101849,101484
101799,101457
101795,101434
101811,101486
101768,101473
101758,101420
101776,101418
101737,101403
101773,101476
101771,101421
101730,101446
101735,101386
101718,101452
101729,101467
101761,101453
101752,101418
101782,101392
101733,101472
101800,101500
101819,101468
101809,101464
101794,101445
101833,101458
101853,101541
101864,101536
101884,101511
101881,101462
101935,101572
101956,101549
102027,101576
101996,101556
102017,101503
102033,101556
102048,101619
102079,101637
102094,101569
102100,101564
102117,101642
102185,101674
102194,101661
102186,101639
102220,101599
102236,101660
102278,101682
102303,101711
102294,101690
102313,101629
102346,101743
102401,101754
102418,101759
102449,101745
102413,101745
102446,101739
102522,101826
102526,101765
102501,101777
102532,101774
102565,101801
102560,101845
102612,101821
102588,101842
102574,101760
102585,101845
102624,101863
102641,101827
102640,101828
102618,101822
102690,101839
102676,101907
102662,101873
102686,101843
102707,101856
102735,101891
102743,101908
102776,101893
102757,101900
102737,101829
102761,101899
102809,101911
102786,101931
102795,101880
102801,101880
102806,101892
102833,101930
102847,101916
102810,101887
102795,101869
102851,101896
102859,101962
102823,101896
102851,101892
102844,101876
102837,101920
102863,101920
102873,101950
102851,101895
102809,101869
102897,101946
102861,101926
102903,101962
102861,101930
102873,101892
102915,101977
102907,101966
102917,101945
102941,101932
102919,101924
102970,101966
102956,101984
102971,101969
102977,101965
103002,101928
102960,101969
102999,101992
103027,101977
103011,101986
102975,101972
103009,101969
103076,101993
103039,102023
103058,101978
103050,101970
103064,101994
103140,102017
103063,102051
103098,102007
103081,101966
103124,102057
103134,102016
103126,102056
103125,102002
103169,102020
103169,102036
103185,102067
103196,102050
103202,102061
103195,101997
103219,102093
103231,102061
103263,102087
103276,102093
103254,102077
103293,102119
103362,102146
103338,102128
103351,102113
103369,102089
103436,102139
103454,102201
103432,102164
103426,102123
103363,102089
103294,102104
103194,102003
102997,101960
102765,101799
102559,101690
102340,101645
102248,101605
102049,101488
101911,101397
101765,101367
101688,101347
101573,101331
101515,101279
101407,101218
101394,101141
101335,101190
101293,101194
101240,101160
101186,101103
101170,101082
101121,101123
101177,101107
101100,101083
101083,101090
101037,101052
101112,101072
101086,101114
101068,101071
101060,101051
101066,101032
101096,101084
101144,101103
101082,101053
101162,101097
101136,101103
101200,101109
101263,101177
101212,101140
101262,101130
101270,101161
101312,101206
101309,101219
101349,101231
101343,101160
101399,101181
101419,101263
101446,101261
101480,101286
101428,101225
101470,101229
101483,101280
101542,101304
101536,101247
101529,101246
101513,101265
101574,101314
101514,101285
101557,101285
101558,101271
101561,101229
101596,101312
101579,101317
101631,101290
101589,101294
101641,101313
101681,101352
101645,101391
101691,101301
101701,101328
101677,101306
101731,101370
101725,101419
101714,101339
101725,101327
101708,101309
101753,101365
101761,101369
101697,101366
101657,101292
101713,101308
101678,101349
101686,101333
101672,101287
101663,101262
101621,101291
101636,101325
101643,101329
101627,101285
101623,101259
101603,101265
101617,101325
101575,101267
101613,101291
101583,101234
101578,101243
101607,101264
101603,101326
101591,101232
101631,101235
101594,101268
101586,101292
101644,101305
101606,101264
101628,101234
101601,101291
101647,101314
101687,101300
101670,101329
101690,101274
101684,101316
101709,101334
101723,101345
101751,101306
101710,101295
101734,101305
101791,101379
101779,101386
101829,101353
101805,101343
101826,101381
101868,101404
101906,101372
101884,101416
101884,101366
101900,101409
101941,101435
101956,101451
101996,101408
101964,101439
101956,101438
102005,101479
102059,101485
102054,101450
102069,101442
102059,101487
102104,101525
102141,101504
102148,101514
102131,101461
102192,101511
102198,101580
102200,101536
102237,101561
102240,101474
102245,101554
102259,101555
102305,101558
102271,101559
102295,101539
102313,101543
102375,101628
102338,101566
102380,101610
102348,101559
102400,101600
102386,101644
102389,101630
102401,101582
102432,101601
102435,101604
102465,101640
102462,101675
102420,101619
102440,101570
102450,101656
102496,101660
102454,101629
102481,101641
102463,101577
102471,101643
102530,101670
102481,101646
102494,101643
102464,101591
102528,101649
102528,101674
102537,101669
102552,101650
102484,101616
102509,101668
102515,101688
102551,101654
102560,101653
102539,101626
102555,101647
102582,101706
102576,101684
102574,101660
102568,101656
102603,101696
102625,101707
102650,101678
102623,101692
102601,101680
102665,101690
102674,101731
102666,101695
102678,101724
102609,101650
102667,101745
102679,101734
102705,101725
102719,101698
102697,101710
102730,101690
102742,101789
102720,101738
102745,101728
102716,101685
102771,101754
102803,101753
102758,101774
102776,101754
102762,101695
102794,101781
102815,101758
102822,101780
102793,101776
102769,101718
102814,101765
102898,101789
102842,101802
102856,101778
102884,101745
102896,101808
102939,101838
102936,101772
102948,101808
102961,101787
102960,101835
103019,101860
103055,101861
103034,101843
102998,101802
103031,101836
103123,101870
103019,101858
102967,101804
102862,101707
102704,101706
102490,101594
102367,101531
102216,101428
102012,101325
101962,101336
101820,101313
101691,101190
101610,101163
101453,101091
101440,101114
101351,101102
101296,101036
101244,101016
101189,100968
101123,100992
101123,100990
101043,100945
101037,100902
100951,100891
100942,100898
100988,100920
100949,100878
100902,100900
100867,100873
100895,100880
100917,100892
100891,100923
100929,100878
100882,100866
100959,100915
100936,100951
100942,100882
100979,100932
100956,100910
101017,100943
100982,100951
101049,100982
101034,100925
101037,100950
101072,100999
101091,101019
101137,100994
101105,101004
101129,100958
101135,101033
101164,101007
101179,101043
101173,101011
101144,100977
101216,101045
101240,101071
101200,101026
101191,101016
101223,100999
101214,101076
101227,101044
101252,101084
101251,101044
101275,101030
101280,101092
101295,101087
101301,101098
101297,101067
101270,101068
101346,101108
101326,101129
101365,101105
101348,101116
101341,101065
101367,101148
101357,101126
101382,101087
101382,101091
101338,101057
101395,101128
101361,101117
101330,101071
101370,101066
101295,101072
101358,101077
101344,101109
101360,101098
101325,101056
101333,101063
101301,101097
101318,101054
101319,101064
101320,101052
101241,101058
101277,101049
101284,101091
101307,101042
101257,101041
101265,101037
101311,101078
101254,101068
101303,101058
101284,101066
101297,101031
101318,101066
101333,101080
101291,101065
101292,101020
101315,101069
101337,101060
101374,101111
101371,101083
101364,101092
101351,101055
101407,101153
101419,101103
101406,101137
101424,101099
101423,101072
101505,101157
101485,101163
101492,101151
101538,101121
101511,101145
101529,101218
101564,101154
101571,101202
101585,101174
101580,101159
101650,101214
101622,101259
101634,101206
101672,101212
101648,101220
101701,101265
101751,101266
101744,101247
101785,101267
101732,101234
101775,101312
101862,101298
101863,101322
101816,101277
101889,101305
101910,101337
101920,101353
101937,101369
101919,101316
101976,101327
101982,101394
102038,101372
102008,101393
102052,101311
102030,101406
102081,101424
102087,101421
102115,101448
102090,101363
102140,101428
102174,101475
102189,101436
102169,101444
102175,101399
102186,101446
102222,101454
102267,101463
102270,101495
102211,101438
102263,101441
102250,101512
102259,101481
102300,101481
102293,101479
102264,101471
102315,101555
102344,101503
102333,101492
102337,101474
102335,101507
102337,101528
102391,101516
102383,101549
102373,101500
102416,101553
102424,101549
102443,101527
102438,101559
102418,101525
102469,101544
102477,101571
102522,101603
102473,101558
102523,101530
102502,101543
102539,101616
102501,101590
102565,101626
102558,101575
102516,101556
102569,101641
102626,101596
102589,101592
102605,101583
102612,101583
102644,101651
102644,101602
102634,101651
102644,101599
102598,101605
102688,101655
102710,101683
102717,101673
102670,101634
102691,101662
102718,101691
102733,101690
102725,101663
102745,101622
102748,101689
102796,101753
102793,101657
102814,101703
102825,101660
102820,101718
102904,101755
102903,101732
102914,101754
102972,101740
102945,101741
102980,101774
103015,101782
102983,101787
102951,101708
102977,101791
102871,101732
102755,101662
102587,101592
102421,101453
102241,101409
102121,101380
101975,101288
101851,101247
101690,101131
101615,101157
101528,101110
101489,101084
101377,101025
101250,100949
101252,100983
101216,100977
101092,100937
101056,100873
100991,100858
100979,100837
100963,100875
100938,100851
100846,100820
100821,100741
100827,100815
100849,100852
100836,100781
100785,100819
100780,100727
100775,100849
100823,100818
100827,100801
100834,100849
100834,100772
100888,100863
100888,100894
100926,100876
100942,100889
100914,100823
100990,100892
100971,100915
101051,100918
101007,100901
100997,100849
101059,100937
101066,100944
101094,100961
101070,100925
101109,100881
101115,100969
101184,100988
101154,101005
101145,100941
101174,100919
101164,100999
101186,101021
101186,100972
101225,100977
101159,100959
101210,100971
101236,101016
101258,100978
101244,101000
101232,100943
101313,101002
101275,101040
101323,101040
101326,101023
101326,100991
101364,101068
101353,101055
101409,101066
101375,101057
101331,100997
101374,101046
101413,101072
101365,101023
101403,101039
101359,101004
101358,101073
101403,101049
101380,101003
101366,101039
101309,100976
101378,101051
101346,100997
101346,101043
101340,100999
101323,100949
101366,101029
101351,101056
101336,100981
101329,100965
101316,100955
101332,101042
101321,101025
101310,100997
101300,100991
101323,100971
101317,101008
101325,101003
101356,101026
101348,100969
101341,100980
101339,101043
101396,101022
101363,101068
101366,100960
101417,100988
101435,101015
101434,101052
101419,101059
101455,101031
101407,100988
101487,101103
101506,101066
101497,101091
101496,101062
101541,101027
101534,101114
101566,101106
101565,101075
101599,101086
101586,101090
101622,101125
101658,101130
101656,101137
101648,101131
101668,101104
101711,101164
101718,101176
101713,101179
101772,101161
101732,101145
101788,101219
101828,101218
101829,101208
101857,101179
101828,101194
101902,101254
101904,101269
101933,101240
101913,101237
101923,101228
101997,101264
102012,101304
102033,101306
101999,101268
102014,101264
102049,101328
102063,101332
102079,101324
102106,101301
102039,101284
102129,101322
102150,101366
102155,101321
102163,101334
102115,101326
102175,101356
102234,101375
102175,101367
102218,101370
102183,101346
102257,101376
102211,101381
102287,101415
102265,101380
102263,101370
102260,101403
102305,101418
102280,101366
102296,101353
102288,101374
102311,101423
102308,101397
102371,101464
102346,101384
102360,101368
102402,101476
102378,101425
102364,101470
102407,101414
102393,101403
102452,101469
102446,101500
102450,101454
102457,101417
102453,101455
102456,101472
102491,101509
102505,101487
102461,101442
102494,101457
102537,101541
102527,101505
102564,101507
102519,101478
102532,101479
102583,101552
102570,101538
102601,101530
102560,101485
102590,101467
102643,101592
102672,101528
102647,101566
102670,101521
102697,101536
102717,101607
102704,101575
102702,101587
102709,101551
102745,101579
102770,101604
102789,101596
102805,101619
102760,101583
102802,101608
102805,101625
102849,101624
102826,101619
102848,101609
102826,101604
102886,101665
102907,101652
102885,101666
102921,101653
102918,101661
102959,101691
102973,101711
102997,101688
102978,101672
103022,101711
103038,101715
103081,101732
103058,101721
103102,101723
103124,101718
103143,101779
103161,101771
103163,101741
103176,101748
103187,101766
103205,101803
103183,101769
103104,101732
103043,101667
102913,101608
102744,101563
102577,101469
102354,101360
102200,101225
102056,101225
101965,101205
101846,101110
101671,101040
101585,100956
101459,100958
101409,100967
101353,100919
101274,100869
101194,100855
101161,100838
101117,100839
101066,100807
100990,100753
100946,100712
100922,100751
100932,100766
100891,100728
100860,100738
100850,100663
100814,100741
100866,100776
100820,100729
100828,100718
100826,100691
100849,100748
100894,100777
100850,100753
100882,100762
100866,100719
100905,100755
100947,100814
100955,100825
100993,100811
100994,100773
101038,100820
101049,100871
101066,100856
101085,100845
101109,100837
101141,100872
101145,100905
101180,100887
101192,100904
101167,100863
101165,100891
101207,100923
101249,100928
101228,100906
101180,100874
101205,100910
101231,100940
101233,100904
101244,100919
101241,100897
101277,100914
101288,100933
101298,100926
101291,100913
101326,100887
101325,100924
101368,100972
101369,100937
101367,100959
101382,100921
101387,100946
101399,100994
101419,100962
101400,100951
101373,100893
101402,100965
101411,100982
101417,100959
101392,100951
101375,100878
101377,100954
101424,100995
101365,100949
101384,100939
101357,100881
101316,100933
101376,100936
101378,100923
101369,100913
101348,100854
101338,100914
101356,100936
101327,100910
101370,100928
101315,100849
101327,100904
101348,100923
101358,100908
101366,100915
101321,100860
101369,100923
101373,100944
101394,100935
101408,100926
101358,100880
101395,100958
101448,100994
101452,100973
101457,100949
101421,100918
101468,100961
101513,100976
101511,100984
101494,100963
101461,100919
101549,100975
101586,100993
101558,100984
101596,101028
101576,100983
101620,101030
101663,101024
101663,101048
101675,101031
101670,100997
101734,101073
101711,101087
101758,101089
101778,101067
101747,101042
101808,101126
101850,101138
101835,101104
101874,101120
101868,101091
101923,101166
101964,101172
101949,101172
101981,101164
102005,101131
102039,101197
102059,101231
102043,101201
102083,101190
102083,101173
102079,101244
102122,101254
102154,101198
102150,101241
102108,101201
102176,101263
102171,101255
102209,101258
102182,101239
102184,101225
102239,101288
102265,101302
102258,101278
102208,101242
102262,101231
102295,101298
102295,101297
102317,101307
102293,101279
102324,101283
102336,101343
102351,101348
102341,101301
102366,101278
102325,101306
102393,101346
102371,101372
102397,101317
102392,101327
102358,101293
102403,101361
102448,101359
102408,101351
102402,101309
102423,101354
102445,101393
102483,101374
102451,101393
102430,101335
102448,101380
102509,101396
102491,101403
102489,101396
102504,101398
102486,101348
102510,101397
102568,101382
102540,101447
102485,101378
102585,101355
102588,101438
102584,101411
102615,101418
102595,101436
102583,101374
102635,101451
102651,101431
102674,101424
102667,101454
102677,101400
102677,101476
102745,101513
102735,101473
102746,101432
102730,101467
102722,101497
102793,101491
102768,101509
102788,101499
102791,101499
102828,101504
102847,101496
102899,101567
102849,101508
102889,101515
102893,101568
102941,101551
102912,101539
102948,101543
102924,101560
102964,101608
103011,101576
102971,101582
103012,101572
102996,101553
103042,101635
103011,101604
103066,101617
103022,101572
103046,101576
103115,101659
103067,101660
103088,101620
103075,101619
103128,101614
103127,101686
103135,101670
103167,101666
103177,101624
103174,101654
103233,101706
103254,101713
103241,101692
103249,101659
103255,101692
103289,101739
103270,101729
103231,101693
103150,101629
103021,101591
102898,101536
102690,101423
102482,101322
102284,101216
102156,101182
102075,101124
101901,101077
101809,101016
101653,100926
101542,100900
101480,100901
101442,100880
101362,100807
101275,100772
101239,100772
101206,100778
101161,100771
101107,100718
101076,100694
101067,100688
101027,100712
101009,100689
100993,100678
100970,100679
100993,100683
100975,100711
100977,100703
100981,100692
100985,100658
100961,100684
101039,100714
100990,100722
101044,100714
101038,100683
101037,100728
101074,100751
101099,100737
101130,100736
101134,100749
101130,100733
101188,100801
101185,100812
101196,100793
101259,100761
101231,100818
101278,100854
101317,100836
101333,100850
101279,100778
101357,100857
101361,100893
101385,100841
101375,100880
101326,100816
101354,100875
101378,100900
101400,100882
101388,100882
101353,100830
101429,100878
101453,100916
101435,100844
101496,100922
101398,100872
101487,100900
101518,100961
101528,100909
101551,100927
101476,100894
101539,100927
101536,100958
101523,100919
101537,100936
101467,100867
101538,100935
101533,100952
101496,100915
101507,100867
101479,100861
101485,100897
101482,100907
101472,100888
101475,100868
101462,100811
101474,100888
101475,100909
101430,100850
101452,100827
101425,100810
101397,100843
101449,100895
101458,100847
101421,100867
101358,100793
101436,100857
101445,100903
101424,100840
101451,100842
101415,100839
101446,100843
101469,100874
101430,100833
101440,100830
101468,100845
101458,100826
101514,100916
101478,100877
101517,100853
101510,100833
101494,100870
101570,100941
101545,100908
101567,100899
101551,100852
101547,100915
101623,100939
101603,100942
101592,100931
101591,100867
101641,100976
101655,100934
101671,100938
101677,100941
101660,100931
101730,100936
101747,101019
101755,100990
101751,101011
101708,100934
101816,101030
101801,101026
101843,101000
101844,101016
101844,100990
101847,101040
101923,101081
101919,101042
101917,101059
101886,101016
101957,101087
101930,101080
101981,101072
101988,101069
101972,101070
101999,101145
102004,101122
102008,101113
102020,101075
102049,101099
102043,101106
102069,101164
102047,101154
102056,101112
102091,101124
102099,101131
102142,101169
102123,101149
102134,101123
102059,101127
102150,101161
102138,101160
102167,101164
102172,101147
102112,101095
102160,101185
102214,101178
102208,101183
102186,101160
102153,101154
102215,101222
102205,101192
102226,101167
102220,101159
102207,101157
102259,101198
102232,101196
102246,101230
102247,101174
102286,101194
102281,101206
102263,101223
102275,101258
102275,101178
102305,101194
102328,101222
102330,101234
102347,101231
102298,101212
102329,101162
102334,101252
102384,101259
102398,101231
102324,101220
102371,101201
102380,101247
102408,101278
102437,101271
102406,101269
102382,101193
102402,101307
102417,101259
102423,101284
102427,101218
102432,101239
102488,101296
102478,101317
102482,101274
102496,101273
102458,101235
102540,101328
102531,101317
102534,101301
102533,101264
102559,101293
102586,101320
102614,101343
102593,101341
102560,101288
102618,101281
102636,101355
102632,101361
102688,101367
102642,101341
102646,101323
102678,101371
102664,101374
102695,101346
102670,101338
102657,101371
102708,101400
102745,101417
102729,101360
102756,101381
102738,101355
102763,101425
102811,101450
102796,101426
102821,101391
102785,101386
102847,101449
102868,101453
102852,101428
102889,101403
102879,101445
102899,101463
102969,101489
102994,101503
102959,101455
102945,101430
103002,101472
102996,101513
102929,101440
102831,101374
102739,101296
102588,101325
102405,101169
102298,101136
102112,101034
101948,100951
101855,100943
101756,100911
101637,100826
101558,100782
101498,100724
101460,100782
101381,100731
101303,100692
101278,100649
101231,100638
101188,100653
101180,100648
101139,100633
101110,100576
101080,100585
101084,100602
101102,100606
101036,100572
101052,100557
101055,100540
101036,100588
101066,100617
101081,100576
101049,100561
101051,100547
101094,100613
101122,100612
101098,100594
101118,100611
101165,100589
101197,100634
101180,100653
101198,100635
101257,100631
101252,100647
101300,100698
101285,100721
101316,100680
101320,100687
101299,100680
101409,100745
101365,100705
101404,100724
101359,100698
101422,100723
101442,100753
101464,100755
101409,100725
101429,100675
101400,100748
101463,100777
101497,100768
101461,100755
101467,100736
101455,100723
101507,100756
101540,100798
101530,100751
101501,100746
101532,100794
101573,100807
101627,100824
101608,100782
101592,100781
101621,100819
101630,100818
101645,100835
101652,100797
101582,100752
101602,100830
101629,100802
101641,100810
101613,100770
101583,100758
101568,100780
101584,100795
101555,100768
101561,100738
101488,100729
101500,100721
101553,100763
101489,100774
101521,100739
101477,100661
101470,100737
101515,100756
101488,100743
101454,100701
101473,100706
101471,100674
101530,100764
101516,100743
101477,100754
101442,100664
101490,100715
101508,100762
101478,100750
101490,100719
101514,100713
101505,100733
101557,100755
101574,100762
101563,100755
101555,100711
101556,100766
101592,100784
101597,100799
101621,100780
101613,100731
101633,100771
101699,100809
101670,100831
101692,100798
101654,100760
101720,100807
101791,100859
101751,100807
101721,100830
101763,100800
101814,100835
101837,100907
101814,100831
101841,100853
101843,100832
101873,100880
101925,100933
101937,100907
101936,100905
101939,100844
101953,100949
102035,100972
102023,100918
102029,100946
101997,100915
102076,100952
102087,101000
102096,100952
102131,100991
102065,100900
102125,101021
102142,101012
102180,100990
102194,100996
102138,100912
102199,101045
102249,101050
102246,101031
102261,101005
102259,101000
102291,101041
102325,101086
102326,101056
102334,101069
102335,101034
102377,101089
102419,101091
102380,101127
102378,101062
102422,101021
102425,101103
102483,101112
102435,101113
102469,101100
102465,101072
102462,101098
102506,101154
102501,101141
102499,101136
102439,101051
102519,101154
102553,101146
102511,101096
102541,101133
102487,101115
102575,101157
102576,101173
102564,101158
102557,101124
102568,101107
102563,101187
102620,101203
102627,101176
102623,101174
102605,101120
102612,101194
102692,101213
102693,101181
102679,101216
102637,101125
102745,101234
102747,101250
102737,101225
102739,101206
102749,101169
102765,101248
102821,101265
102793,101246
102811,101218
102808,101221
102844,101221
102870,101273
102828,101275
102870,101257
102832,101196
102907,101317
102922,101305
102899,101280
102959,101265
102872,101228
102966,101341
102982,101306
102988,101323
102930,101288
102979,101256
103003,101338
103054,101345
103052,101335
103026,101294
103051,101332
103092,101359
103087,101386
103072,101384
103119,101339
103139,101362
103185,101416
103202,101429
103213,101402
103183,101405
103237,101388
103277,101450
103281,101455
103307,101456
103333,101411
103316,101431
103403,101497
103409,101509
103371,101463
103372,101428
103242,101367
103158,101378
103011,101297
102811,101158
102562,101050
102310,100913
102172,100905
102035,100857
101885,100749
101747,100668
101631,100648
101594,100654
101538,100625
101436,100563
101426,100552
101366,100468
101331,100525
101343,100535
101258,100470
101283,100473
101201,100483
101216,100506
101220,100481
101219,100461
101202,100426
101176,100483
101233,100497
101210,100488
101229,100485
101221,100450
101226,100472
101289,100509
101269,100526
101317,100494
101314,100511
101316,100474
101393,100545
101397,100546
101409,100541
101441,100484
101439,100560
101516,100593
101536,100635
101556,100599
101576,100601
101544,100567
101622,100671
101657,100699
101710,100646
101700,100657
101683,100658
101756,100724
101795,100721
101772,100697
101808,100714
101758,100671
101821,100736
101861,100784
101835,100715
101835,100692
101809,100751
101854,100768
101916,100772
101882,100740
101895,100727
101896,100763
101988,100799
101968,100828
101997,100764
101985,100777
101982,100795
102056,100820
102078,100859
102057,100808
102052,100817
102022,100831
102043,100822
102064,100843
102023,100785
101993,100773
101958,100789
102042,100808
101938,100797
101943,100759
101892,100713
101866,100723
101875,100765
101896,100753
101844,100692
101860,100683
101819,100709
101829,100758
101850,100714
101818,100710
101766,100645
101843,100661
101820,100720
101821,100725
101794,100699
101775,100628
101760,100692
101832,100700
101833,100733
101830,100673
101832,100678
101790,100660
101882,100732
101877,100727
101862,100727
101851,100662
101898,100729
101903,100750
101977,100765
101915,100739
101938,100707
101990,100770
101981,100799
102017,100754
102012,100770
102039,100738
102058,100804
102087,100840
102128,100814
102115,100819
102137,100798
102189,100856
102222,100884
102226,100873
102234,100869
102238,100841
102297,100920
102368,100938
102351,100919
102379,100927
102375,100897
102427,100933
102461,100994
102484,100969
102501,100991
102532,100955
102575,101013
102612,101039
102644,101037
102688,101055
102654,101007
102686,101057
102789,101134
102786,101080
102811,101083
102790,101062
102868,101134
102905,101218
102907,101129
102924,101167
102960,101111
102971,101175
103047,101201
103039,101237
103085,101214
103032,101176
103109,101248
103139,101267
103170,101269
103153,101261
103158,101240
103203,101240
103274,101329
103240,101291
103273,101292
103277,101250
103323,101330
103328,101347
103392,101322
103387,101331
103431,101309
103451,101335
103533,101409
103517,101374
103533,101387
103550,101372
103610,101401
103649,101461
103641,101392
103677,101429
103665,101383
103720,101480
103772,101460
103789,101486
103768,101464
103800,101429
103805,101543
103867,101537
103874,101545
103877,101517
103899,101483
103914,101518
103969,101565
103992,101556
103978,101586
103934,101478
104018,101610
104061,101610
104052,101624
104082,101599
104019,101589
104083,101635
104101,101623
104121,101624
104137,101624
104090,101587
104175,101644
104164,101648
104212,101669
104187,101651
104175,101582
104220,101654
104260,101699
104241,101659
104248,101663
104267,101651
104273,101705
104339,101727
104295,101686
104323,101692
104316,101664
104407,101731
104404,101772
104388,101738
104397,101717
104408,101708
104436,101743
104489,101769
104448,101735
104472,101762
104362,101690
104357,101733
104288,101661
104084,101571
103868,101458
103587,101266
103317,101222
102970,101074
102691,100905
102422,100798
102169,100657
102067,100659
101979,100648
101874,100543
101768,100526
101646,100425
101668,100477
101583,100480
101607,100414
101568,100414
101494,100356
101560,100419
101529,100458
101505,100407
101503,100391
101558,100355
101551,100482
101595,100463
101569,100448
101613,100449
101612,100408
101669,100516
101680,100503
101766,100520
101759,100506
101732,100504
101839,100557
101895,100632
101922,100582
101963,100586
102006,100605
102119,100684
102108,100740
102176,100698
102205,100703
102223,100685
102358,100799
102414,100818
102427,100770
102474,100833
102502,100825
102555,100897
102593,100901
102623,100896
102628,100894
102617,100889
102729,100966
102776,101016
102765,100945
102775,100964
102763,100933
102865,101001
102854,101050
102843,100967
102867,100970
102885,100962
102959,101072
102967,101099
103028,101073
103051,101064
103028,101056
103150,101135
103121,101164
103154,101140
103169,101128
103119,101106
103217,101158
103213,101135
103153,101133
103172,101126
103100,101093
103179,101136
103106,101140
103085,101065
103060,101045
102990,101014
103004,101078
102946,101057
102947,101039
102893,100977
102809,100970
102832,100967
102859,100980
102775,100936
102754,100925
102747,100876
102771,100977
102723,100915
102719,100946
102690,100893
102705,100882
102784,100944
102774,100965
102738,100924
102737,100913
102765,100910
102793,100942
102840,101004
102859,100949
102850,100941
102853,100983
102917,101024
102956,101050
102971,101014
102987,101012
102983,101054
103049,101058
103108,101075
103119,101090
103131,101079
103121,101089
103224,101118
103272,101180
103265,101137
103271,101118
103336,101151
103393,101251
103424,101229
103413,101207
103442,101208
103460,101226
103530,101256
103573,101314
103567,101247
103592,101270
103619,101282
103669,101369
103725,101318
103707,101367
103710,101315
103765,101349
103828,101407
103835,101408
103809,101418
103833,101370
103859,101398
103898,101415
103974,101472
103943,101449
103957,101414
103962,101456
103998,101506
104032,101494
104040,101469
104007,101441
104048,101468
104080,101573
104115,101505
104070,101539
104045,101476
104120,101495
104136,101561
104120,101531
104177,101537
104117,101483
104159,101544
104160,101533
104180,101551
104180,101523
104131,101505
104147,101547
104167,101563
104216,101557
104199,101515
104163,101513
104197,101551
104181,101577
104198,101569
104204,101528
104167,101525
104198,101552
104211,101594
104219,101540
104200,101534
104179,101481
104216,101550
104249,101583
104208,101553
104216,101578
104214,101525
104208,101549
104243,101616
104223,101537
104213,101582
104222,101549
104216,101515
104263,101610
104270,101576
104255,101546
104207,101518
104250,101565
104288,101564
104316,101561
104267,101567
104249,101537
104258,101568
104343,101589
104317,101603
104321,101562
104277,101556
104341,101598
104366,101646
104300,101576
104334,101627
104318,101546
104293,101591
104369,101618
104373,101646
104360,101592
104314,101562
104365,101598
104364,101651
104390,101603
104372,101580
104381,101567
104421,101640
104431,101688
104418,101606
104421,101621
104417,101569
104437,101660
104472,101666
104477,101635
104413,101652
104403,101557
104403,101623
104346,101598
104244,101518
104078,101428
103827,101291
103606,101219
103275,101095
102929,100894
102642,100773
102374,100618
102226,100588
102094,100587
101937,100463
101839,100438
101748,100327
101691,100381
101649,100381
101599,100299
101538,100287
101463,100237
101478,100290
101484,100299
101470,100291
101423,100258
101394,100229
101448,100278
101438,100279
101460,100277
101464,100275
101412,100233
101491,100313
101533,100331
101501,100324
101542,100331
101549,100295
101577,100342
101652,100398
101676,100376
101650,100357
101690,100374
101752,100465
101795,100440
101828,100438
101820,100444
101833,100441
101915,100505
101896,100539
102016,100532
102005,100532
101967,100482
102059,100579
102065,100581
102122,100552
102136,100568
102094,100552
102189,100592
102251,100652
102271,100614
102270,100617
102177,100575
102285,100668
102303,100664
102304,100663
102311,100642
102272,100631
102349,100678
102419,100735
102400,100674
102408,100694
102405,100657
102430,100739
102481,100745
102464,100767
102477,100733
102439,100687
102487,100765
102498,100740
102477,100745
102484,100703
102445,100647
102431,100704
102430,100734
102419,100701
102403,100638
102319,100577
102332,100702
102304,100645
102324,100655
102279,100611
102202,100548
102258,100623
