11111,11111
0,0
82492,82448
135863,108468
140067,108451
140054,108450
140092,108455
140068,108443
140064,108445
140075,108414
140084,108406
140045,108418
140093,108429
140083,108439
140073,108415
140091,108429
140094,108407
140084,108416
140106,108435
140069,108389
140076,108399
140087,108386
140068,108414
140082,108437
140081,108393
140097,108396
140062,108418
140032,108393
140063,108393
140064,108415
140024,108400
140047,108383
140056,108404
140080,108412
140041,108367
140042,108372
140034,108423
140005,108389
140041,108414
140071,108369
140065,108389
140031,108385
140059,108391
140085,108415
140048,108398
140074,108405
140104,108399
140081,108423
140072,108393
140122,108429
140111,108426
140098,108417
140111,108446
140129,108437
140105,108400
140119,108408
140159,108438
140145,108419
140156,108400
140162,108441
140142,108422
140158,108416
140178,108450
140174,108423
140200,108448
140161,108425
140213,108434
140218,108467
140218,108428
140195,108457
140248,108423
140218,108467
140205,108409
140274,108457
140240,108461
140253,108446
140266,108450
140293,108444
140299,108465
140295,108486
140279,108457
140294,108443
140315,108447
140319,108500
140312,108451
140348,108459
140323,108491
140320,108493
140376,108502
140378,108502
140362,108492
140383,108509
140391,108498
140390,108502
140406,108498
140395,108501
140394,108492
140407,108501
140426,108488
140405,108491
140415,108471
140417,108524
140377,108486
140422,108497
140404,108498
140445,108518
140448,108510
140430,108545
140440,108476
140482,108517
140487,108523
140446,108490
140478,108521
140448,108521
140448,108479
140507,108528
140457,108537
140502,108523
140492,108543
140501,108513
140502,108531
140492,108520
140501,108553
140513,108502
140523,108536
140520,108522
140221,108448
140350,108455
140391,108485
140510,108506
140447,108465
140497,108497
140447,108482
140368,108456
140416,108441
140412,108477
140371,108445
140391,108464
140345,108438
140363,108419
140357,108412
140381,108455
140374,108432
140355,108441
140387,108402
140385,108442
140379,108409
140397,108424
140367,108451
140369,108410
140430,108437
140384,108459
140424,108455
140378,108444
140409,108438
140401,108447
140416,108444
140407,108424
140411,108423
140420,108457
140377,108459
140417,108409
140434,108442
140394,108426
140406,108434
140415,108394
140442,108452
140432,108454
140421,108437
140427,108431
140430,108415
140443,108473
140454,108445
140429,108453
140461,108474
140448,108451
140460,108432
140443,108416
140436,108447
140404,108454
140434,108419
140471,108458
140482,108450
140465,108461
140445,108431
140442,108436
140477,108466
140476,108463
140481,108456
140442,108430
140441,108416
140470,108470
140455,108434
140459,108442
140447,108413
140465,108424
140433,108460
140464,108440
140446,108400
140444,108441
140436,108417
140428,108392
140422,108418
140394,108411
140357,108391
140366,108385
140303,108413
140285,108381
140264,108374
140229,108335
140204,108313
140193,108350
140162,108308
140127,108307
140105,108292
140062,108316
140038,108276
140000,108249
139978,108235
139963,108227
139951,108243
139895,108195
139902,108215
139883,108205
139855,108225
139827,108177
139828,108219
139798,108200
139821,108189
139791,108167
139812,108192
139770,108154
139788,108158
139774,108171
139797,108161
139771,108150
139788,108191
139795,108169
139757,108149
139776,108140
139764,108179
139756,108176
139761,108176
139759,108160
139742,108159
139778,108134
139764,108151
139795,108171
139800,108157
139767,108167
139728,108106
139715,108137
139714,108107
139715,108100
139672,108083
139689,108070
139697,108116
139696,108090
139663,108114
139642,108099
139648,108068
139650,108097
139639,108060
139618,108094
139618,108101
139580,108067
139618,108069
139601,108040
139546,108068
139544,108041
139525,108032
139541,108029
139554,108021
139518,108043
139493,108022
139478,108004
139492,107999
139491,108018
139497,108000
139459,108011
139439,108009
139481,108008
139435,107976
139497,108004
139426,108010
139439,108013
139439,107962
139465,108006
139474,108014
139422,107968
139452,107993
139463,107990
139422,108004
139401,107966
139430,107968
139417,107988
139445,107981
139424,108002
139412,107946
139445,107972
139437,107956
139406,107983
139404,107989
139473,107958
139431,108014
139462,107969
139441,107959
139470,107953
139421,107979
139450,107951
139456,107961
139451,107970
139433,107959
139429,107952
139420,107951
139465,107976
139445,107973
139432,107953
139424,107962
139444,107950
139435,107972
139420,107943
139435,107933
139434,107958
139432,107971
139439,107956
139427,107959
139406,107934
139413,107945
139416,107946
139411,107952
139432,107952
139451,107919
139468,107955
139381,107936
139439,107940
139477,107972
139449,107956
139478,107938
139453,107973
139434,107941
139440,107953
139472,107933
139443,107945
139436,107937
139420,107939
139456,107934
139437,107947
139453,107934
139443,107917
139448,107944
139440,107916
139465,107917
139462,107946
139442,107936
139402,107928
139449,107902
139392,107910
139403,107917
139350,107881
139346,107888
139296,107881
139265,107833
139297,107875
139172,107846
139160,107857
139137,107830
139070,107817
139050,107809
139007,107769
138998,107742
138975,107768
138923,107743
138891,107745
138874,107722
138876,107717
138867,107727
138827,107722
138787,107698
138790,107691
138737,107679
138752,107676
138728,107671
138708,107669
138674,107651
138706,107653
138687,107661
138663,107640
138671,107664
138643,107640
138621,107639
138642,107650
138632,107622
138627,107651
138590,107627
138593,107659
138608,107652
138610,107625
138611,107625
138561,107605
138621,107611
138587,107609
138624,107614
138598,107638
138584,107620
138599,107593
138610,107652
138594,107638
138588,107612
138592,107601
138633,107597
138604,107609
138579,107626
138602,107588
138591,107596
138590,107609
138584,107591
138614,107589
138597,107613
138614,107599
138581,107613
138601,107591
138650,107588
138605,107626
138582,107578
138622,107579
138614,107617
138608,107594
138604,107595
138588,107586
138586,107621
138585,107599
138570,107585
138544,107564
138538,107565
138565,107612
138545,107583
138503,107553
138534,107568
138526,107557
138509,107554
138523,107578
138513,107573
138499,107577
138504,107565
138534,107564
138474,107545
138512,107568
138533,107557
138469,107551
138529,107576
138521,107572
138507,107560
138492,107542
138508,107553
138501,107548
138520,107550
138499,107578
138498,107566
138528,107558
138507,107577
138486,107555
138541,107579
138516,107550
138540,107572
138539,107602
138537,107567
138568,107604
138573,107569
138551,107598
138561,107560
138576,107589
138587,107568
138555,107573
138572,107585
138546,107591
138587,107573
138580,107606
138583,107587
138584,107603
138567,107584
138582,107570
138636,107620
138624,107603
138593,107614
138581,107610
138641,107629
138592,107609
138620,107617
138649,107624
138658,107659
138666,107624
138650,107621
138661,107631
138651,107615
138679,107656
138690,107666
138661,107636
138698,107651
138700,107631
138670,107626
138725,107651
138712,107627
138702,107649
138718,107639
138675,107636
138730,107659
138739,107648
138723,107636
138732,107661
138761,107631
138726,107664
138712,107663
138703,107638
138738,107666
138704,107617
138772,107655
138744,107660
138765,107687
138742,107691
138754,107677
138760,107644
138733,107655
138753,107646
138778,107682
138764,107642
138758,107653
138719,107654
138728,107640
138753,107649
138719,107632
138698,107642
138671,107635
138631,107614
138609,107590
138590,107593
138599,107606
138499,107558
138529,107585
138487,107563
138452,107562
138425,107546
138417,107534
138370,107520
138400,107517
138357,107539
138295,107513
138301,107484
138278,107487
138246,107501
138264,107490
138280,107476
138233,107488
138235,107467
138255,107473
138237,107489
138233,107453
138196,107485
138225,107465
138201,107488
138212,107488
138224,107473
138224,107493
138191,107465
138212,107477
138219,107456
138260,107481
138217,107476
138230,107469
138228,107458
138270,107463
138288,107500
138251,107463
138250,107483
138268,107512
138278,107493
138241,107493
138275,107497
138240,107488
138292,107513
138340,107510
138294,107534
138316,107506
138287,107509
138362,107544
138363,107542
138361,107514
138346,107519
138354,107517
138378,107523
138386,107525
138388,107538
138390,107526
138389,107525
138369,107535
138383,107531
138418,107522
138392,107560
138363,107524
138401,107510
138404,107542
138358,107548
138397,107543
138380,107547
138393,107561
138372,107557
138402,107553
138373,107540
138369,107534
138368,107543
138397,107545
138375,107550
138347,107547
138344,107513
138388,107553
138375,107539
138383,107561
138362,107571
138304,107501
138396,107532
138357,107575
138362,107532
138366,107541
138367,107547
138354,107536
138346,107513
138398,107572
138364,107550
138335,107521
138362,107522
138404,107545
138358,107560
138375,107551
138383,107538
138425,107589
138392,107561
138424,107561
138377,107570
138388,107547
138418,107568
138422,107570
138415,107541
138450,107567
138415,107604
138425,107564
138435,107569
138446,107587
138462,107584
138435,107600
138476,107563
138516,107601
138508,107594
138495,107589
138483,107577
138493,107613
138476,107611
138465,107566
138467,107590
138471,107599
138473,107601
138516,107583
138527,107620
138502,107640
138499,107614
138510,107607
138530,107616
138539,107615
138528,107617
138495,107592
138554,107606
138550,107606
138547,107641
138502,107611
138538,107605
138563,107645
138566,107641
138530,107627
138568,107654
138546,107609
138593,107620
138584,107665
138561,107637
138613,107639
138579,107605
138579,107635
138585,107622
138584,107664
138565,107616
138587,107651
138596,107640
138576,107649
138610,107635
138620,107652
138609,107631
138611,107639
138591,107646
138560,107612
138530,107612
138532,107617
138538,107627
138471,107612
138453,107573
138432,107571
138415,107597
138366,107550
138366,107547
138351,107555
138340,107539
138268,107548
138298,107512
138296,107550
138241,107511
138253,107508
138218,107491
138255,107503
138234,107512
138201,107486
138204,107492
138207,107477
138228,107518
138189,107537
138218,107491
138211,107511
138195,107485
138202,107495
138187,107503
138207,107487
138164,107472
138185,107506
138154,107505
138245,107503
138187,107512
138209,107510
138195,107519
138215,107515
138228,107529
138203,107501
138256,107502
138223,107522
138227,107497
138254,107527
138250,107523
138252,107499
138212,107521
138252,107516
138257,107502
138270,107515
138229,107515
138246,107503
138287,107511
138260,107551
138278,107503
138275,107514
138258,107544
138255,107527
138271,107552
138279,107507
138274,107527
138292,107515
138269,107542
138315,107559
138268,107532
138258,107502
138262,107536
138245,107512
138252,107531
138266,107509
138261,107483
138279,107520
138246,107521
138267,107521
138268,107512
138215,107499
138270,107508
138273,107536
138263,107490
138251,107526
138238,107509
138252,107499
138229,107503
138270,107542
138225,107512
138236,107501
138252,107505
138221,107494
138236,107508
138249,107508
138206,107478
138213,107510
138250,107506
138224,107506
138245,107486
138227,107509
138228,107511
138290,107514
138240,107516
138270,107519
138223,107513
138275,107506
138311,107503
138283,107512
138286,107515
138263,107532
138266,107504
138297,107510
138297,107536
138306,107516
138260,107518
138308,107544
138316,107537
138336,107524
138333,107542
138320,107497
138318,107563
138355,107533
138314,107535
138334,107538
138354,107543
138342,107559
138408,107570
138367,107588
138374,107562
138404,107563
138402,107588
138410,107569
138396,107569
138380,107568
138386,107524
138418,107585
138376,107568
138431,107589
138417,107593
138447,107590
138427,107563
138472,107577
138413,107576
138461,107567
138470,107599
138449,107585
138471,107594
138451,107594
138472,107593
138462,107569
138460,107602
138503,107580
138509,107594
138487,107631
138492,107574
138523,107612
138472,107609
138502,107610
138503,107611
138475,107570
138517,107614
138497,107591
138489,107595
138487,107627
138465,107553
138489,107586
138443,107582
138416,107567
138400,107570
138432,107586
138406,107582
138346,107533
138338,107546
138289,107528
138273,107506
138216,107523
138236,107489
138206,107494
138168,107461
138152,107444
138123,107450
138177,107473
138103,107485
138043,107450
138081,107438
138064,107446
138075,107427
138049,107461
138022,107419
138051,107420
138051,107409
138055,107428
138059,107438
138048,107452
138029,107396
138038,107420
138053,107432
138046,107395
138051,107429
138018,107410
138032,107425
138040,107379
138049,107430
138010,107413
138003,107423
138026,107407
138053,107430
138033,107404
138032,107411
138008,107394
138023,107409
138024,107395
138086,107414
138030,107432
138041,107401
138054,107391
138083,107393
138019,107438
138034,107395
138037,107411
138035,107403
138059,107386
138043,107401
138037,107385
138070,107435
138055,107422
138061,107422
138075,107402
138031,107403
138084,107420
138080,107420
138059,107374
138040,107402
138026,107404
138055,107426
138010,107409
138032,107376
138051,107409
138017,107388
138017,107388
137998,107379
138039,107406
138027,107386
137974,107373
137996,107365
137998,107384
137987,107375
137958,107358
137998,107371
137975,107345
137973,107353
137947,107357
137977,107354
137938,107347
137965,107371
137980,107354
137958,107356
137946,107352
137973,107351
137930,107343
137936,107352
137936,107334
137934,107332
137948,107347
137950,107331
137955,107332
137950,107344
137929,107335
137930,107339
137959,107314
137939,107347
137937,107307
137945,107323
137904,107310
137936,107362
137924,107320
137955,107340
137935,107357
137922,107338
137926,107318
137946,107344
137991,107326
137958,107337
137956,107346
137938,107332
137958,107318
137941,107345
137953,107345
137942,107336
137984,107361
137950,107328
137963,107358
137993,107343
137975,107309
137967,107354
137994,107337
137966,107354
137978,107339
138008,107345
137991,107325
137979,107352
137995,107316
138030,107333
137969,107350
137965,107329
137983,107328
138001,107350
138025,107371
137974,107332
137967,107335
138011,107352
137991,107341
137977,107323
138029,107341
138009,107334
138006,107331
138039,107342
138009,107328
137969,107322
138027,107343
137976,107311
137968,107332
137913,107278
137905,107280
137895,107288
137826,107283
137851,107244
137810,107250
137790,107203
137762,107226
137718,107238
137677,107186
137691,107187
137642,107180
137650,107165
137625,107143
137623,107161
137548,107155
137573,107126
137576,107175
137571,107149
137579,107156
137526,107120
137542,107170
137545,107157
137583,107128
137564,107123
137549,107153
137574,107139
137630,107183
137587,107198
137607,107179
137618,107193
137640,107169
137672,107190
137644,107212
137637,107184
137684,107213
137637,107184
137694,107201
137693,107232
137679,107219
137665,107181
137675,107227
137677,107223
137677,107214
137653,107218
137663,107194
137676,107220
137663,107204
137696,107223
137669,107193
137696,107209
137647,107187
137709,107196
137708,107219
137709,107218
137694,107223
137674,107192
137716,107215
137687,107227
137710,107220
137678,107196
137668,107209
137675,107189
137682,107213
137659,107198
137655,107170
137628,107196
137666,107196
137645,107228
137649,107182
137607,107184
137597,107174
137644,107155
137598,107184
137567,107160
137552,107135
137566,107133
137593,107125
137536,107165
137517,107150
137513,107137
137478,107113
137519,107089
137496,107132
137453,107089
137493,107086
137501,107110
137484,107126
137473,107072
137494,107120
137459,107102
137488,107111
137452,107078
137478,107107
137430,107066
137457,107089
137457,107081
137474,107107
137460,107116
137434,107090
137449,107065
137460,107086
137445,107112
137480,107120
137469,107085
137462,107055
137469,107099
137465,107076
137491,107086
137468,107098
137471,107058
137501,107106
137476,107088
137486,107068
137487,107082
137466,107089
137453,107070
137439,107085
137452,107077
137473,107057
137429,107077
137443,107047
137466,107090
137428,107058
137469,107034
137459,107073
137457,107066
137483,107061
137504,107078
137489,107112
137465,107071
137516,107085
137491,107102
137514,107087
137574,107102
137496,107111
137511,107089
137571,107106
137540,107113
137521,107084
137529,107093
137521,107086
137557,107087
137587,107103
137551,107111
137533,107089
137557,107082
137581,107129
137548,107085
137574,107108
137521,107106
137497,107096
137527,107083
137516,107111
137466,107073
137458,107083
137441,107068
137419,107049
137446,107060
137405,107059
137360,107012
137373,107042
137340,107023
137352,107010
137333,107033
137252,106981
137296,107020
137317,107007
137234,107016
137257,107005
137234,106985
137251,107013
137237,106981
137214,106995
137235,106981
137183,106986
137212,106992
137247,106967
137209,106965
137256,107001
137229,106974
137248,107005
137223,106953
137259,106988
137231,107000
137236,106970
137278,107032
137273,106996
137238,107005
137275,106983
137290,106998
137274,107022
137265,107005
137280,107019
137299,107008
137255,106975
137295,107008
137323,107022
137316,107019
137315,107014
137322,107018
137325,107021
137332,106999
137325,107024
137323,107038
137289,107016
137299,106991
137330,107041
137295,107005
137330,106992
137273,106980
137340,107014
137296,106991
137279,106977
137312,106968
137259,106993
137280,106973
137296,106973
137232,106992
137258,106953
137242,106955
137268,106967
137268,106961
137267,106967
137232,106983
137211,106941
137249,106940
137212,106969
137217,106942
137191,106946
137172,106934
137181,106928
137164,106894
137174,106923
137114,106927
137105,106892
137143,106903
137119,106932
137132,106911
137087,106895
137088,106881
137133,106883
137096,106884
137089,106902
137115,106895
137088,106903
137113,106913
137089,106865
137118,106880
137119,106896
137101,106886
137097,106919
137109,106866
137146,106916
137115,106876
137088,106870
137116,106882
137149,106924
137134,106899
137121,106889
137161,106886
137175,106911
137189,106907
137206,106943
137217,106965
137195,106939
137223,106914
137237,106972
137251,106951
137250,106932
137258,106944
137243,106958
137269,106958
137267,106975
137261,106925
137261,106935
137246,106966
137253,106944
137322,106947
137257,106983
137261,106944
137327,106948
137333,106974
137320,106971
137305,106950
137314,106974
137323,106983
137296,106958
137320,106970
137323,106988
137348,106967
137344,106991
137338,106998
137322,106971
137337,106989
137328,106947
137334,106987
137309,106942
137284,106969
137280,106921
137265,106948
137249,106923
137191,106924
137192,106926
137140,106895
137137,106897
137131,106872
137133,106887
137067,106905
137037,106843
137071,106854
137061,106874
137013,106863
137000,106830
137015,106851
136976,106824
136998,106827
136990,106836
136949,106832
136934,106795
136952,106818
136914,106801
136891,106807
136923,106804
136861,106769
136868,106766
136923,106812
136876,106791
136879,106799
136866,106798
136831,106768
136852,106740
136885,106774
136880,106759
136831,106736
136855,106764
136848,106770
136832,106767
136870,106776
136823,106745
136844,106768
136845,106748
136802,106754
136853,106780
136825,106750
136860,106736
136835,106752
136860,106759
136832,106749
136840,106756
136887,106759
136871,106748
136892,106793
136892,106761
136882,106770
136901,106798
136868,106751
136917,106799
136898,106745
136926,106775
136907,106762
136904,106804
136895,106770
136916,106746
136880,106770
136884,106752
136891,106782
136912,106763
136860,106761
136888,106753
136885,106771
136875,106743
136873,106741
136890,106769
136842,106748
136871,106719
136905,106782
136874,106751
136871,106740
136852,106767
136856,106747
136892,106765
136870,106760
136867,106740
136869,106739
136907,106767
136875,106772
136921,106756
136908,106737
136925,106777
136902,106798
136914,106763
136910,106767
136903,106780
136902,106751
136934,106779
136893,106781
136934,106782
136935,106790
136911,106751
136970,106792
136927,106763
136932,106760
136997,106813
136956,106781
136966,106817
136977,106767
137031,106790
136975,106822
136975,106801
137013,106806
137013,106822
137005,106789
137058,106829
137025,106802
137029,106820
137078,106816
137059,106810
137028,106808
137012,106792
137064,106835
137013,106808
137033,106803
137025,106793
137038,106778
137047,106815
137038,106813
137015,106764
137055,106810
137023,106823
137061,106824
137057,106796
137031,106799
137051,106838
137059,106820
137059,106836
137079,106800
137106,106816
137076,106843
137073,106802
137101,106840
137108,106821
137096,106830
137095,106816
137133,106830
137083,106853
137106,106819
137071,106817
137107,106828
137088,106830
137055,106838
137055,106786
137032,106797
137010,106779
136982,106773
136945,106754
136960,106757
136934,106762
136844,106714
136883,106690
136858,106728
136797,106727
136771,106662
136769,106700
136745,106682
136729,106670
136688,106678
136683,106654
136632,106635
136669,106634
136658,106648
136639,106622
136654,106642
136638,106634
136592,106649
136592,106593
136646,106645
136581,106609
136585,106605
136611,106612
136592,106625
136575,106600
136568,106596
136597,106613
136575,106604
136604,106614
136565,106611
136612,106598
136605,106601
136570,106596
136571,106621
136544,106581
136558,106578
136543,106603
136558,106596
136544,106578
136569,106585
136527,106605
136502,106553
136562,106568
136531,106573
136548,106548
136520,106582
136482,106543
136536,106548
136518,106581
136497,106531
136513,106557
136511,106536
136552,106584
136524,106540
136533,106529
136533,106525
136514,106562
136528,106553
136498,106546
136543,106554
136500,106585
136471,106536
136508,106561
136528,106556
136502,106533
136461,106523
136490,106499
136482,106551
136489,106521
136473,106525
136425,106507
136462,106498
136457,106529
136454,106511
136449,106521
136452,106506
136409,106506
136395,106520
136412,106465
136412,106520
136390,106475
136409,106483
136375,106510
136383,106449
136424,106491
136372,106458
136341,106470
136381,106448
136376,106478
136341,106503
136368,106446
136388,106463
136360,106490
136336,106487
136347,106466
136379,106468
136364,106462
136375,106465
136337,106466
136325,106439
136377,106472
136319,106466
136352,106446
136347,106436
136344,106453
136357,106470
136349,106461
136344,106426
136354,106457
136385,106474
136372,106457
136330,106459
136322,106459
136348,106426
136380,106417
136361,106453
136361,106433
136345,106447
136342,106439
136350,106439
136360,106444
136326,106454
136357,106417
136368,106440
136354,106445
136354,106421
136345,106431
136340,106423
136371,106412
136371,106450
136330,106400
136324,106389
136359,106422
136368,106426
136314,106424
136349,106406
136349,106400
136342,106436
136342,106410
136336,106398
136371,106439
136315,106402
136319,106399
136343,106384
136352,106399
136324,106390
136325,106403
136375,106395
136372,106434
136359,106432
136374,106402
136384,106423
136374,106436
136375,106416
136362,106386
136380,106420
136364,106407
136344,106394
136362,106397
136346,106398
136300,106379
136285,106361
136254,106362
136235,106338
136175,106313
136173,106322
136131,106324
136103,106276
136051,106265
136053,106250
135997,106222
135982,106218
135980,106221
135950,106223
135932,106216
135929,106181
135899,106193
135914,106216
135864,106193
135860,106170
135881,106193
135842,106174
135859,106179
135883,106181
135841,106210
135841,106167
135841,106182
135849,106179
135860,106177
135844,106154
135823,106203
135784,106166
135828,106144
135839,106166
135811,106172
135788,106170
135809,106159
135859,106187
135838,106148
135797,106168
135790,106167
135786,106130
135838,106170
135794,106171
135827,106141
135780,106153
135820,106143
135764,106130
135746,106133
135794,106103
135731,106091
135751,106109
135739,106106
135749,106127
135730,106087
135768,106119
135736,106082
135772,106128
135755,106110
135762,106091
135738,106090
135759,106106
135747,106129
135726,106120
135724,106106
135699,106094
135757,106093
135718,106110
135750,106121
135715,106109
135726,106101
135726,106105
135702,106084
135718,106080
135682,106066
135677,106059
135637,106059
135651,106067
135628,106034
135625,106062
135581,106019
135643,106048
135586,106044
135567,106019
135612,106022
135571,106030
135589,106013
135582,105987
135597,106011
135532,105984
135554,105994
135579,106042
135588,106001
135573,106019
135608,106022
135565,106034
135546,105999
135594,106021
135569,106014
135573,105994
135561,106001
135610,106023
135578,106034
135558,105978
135550,106018
135544,105985
135553,105973
135570,105992
135590,106005
135555,105987
135538,105973
135593,106017
135555,106005
135543,105979
135617,106007
135572,106027
135584,106016
135604,105994
135639,105993
135593,106035
135579,105990
135657,106043
135658,106014
135646,106058
135628,106037
135665,106062
135668,106054
135690,106044
135711,106026
135706,106021
135723,106044
135678,106076
135713,106042
135732,106053
135710,106038
135693,106051
135725,106053
135717,106053
135711,106035
135722,106059
135660,106022
135689,106039
135709,106034
135694,106006
135681,106025
135665,106011
135730,106025
135687,106039
135720,106032
135739,106051
135750,106066
135772,106075
135782,106057
135799,106075
135811,106087
135797,106096
135811,106087
135816,106085
135840,106092
135829,106082
135762,106085
135810,106084
135860,106101
135845,106095
135854,106082
135844,106112
135882,106104
135884,106125
135861,106115
135873,106133
135890,106110
135882,106130
135863,106131
135889,106101
135853,106136
135868,106119
135877,106144
135863,106139
135840,106115
135837,106093
135784,106090
135770,106078
135763,106085
135747,106086
135685,106049
135667,106004
135675,106062
135643,106037
135607,106002
135644,106008
135615,106024
135590,106013
135616,106013
135616,105998
135616,106034
135574,106022
135626,106010
135633,106017
135633,106053
135621,106042
135612,106034
135645,106023
135643,106023
135595,106041
135620,106010
135636,106029
135604,106009
135642,106034
135645,106014
135618,106030
135599,106032
135619,106025
135563,106012
135572,106024
135554,105981
135599,106004
135586,106034
135618,106010
135603,106009
135631,106011
135655,106040
135659,106035
135685,106049
135658,106055
135705,106050
135689,106073
135749,106099
135784,106107
135785,106102
135803,106101
135766,106132
135839,106146
135817,106136
135847,106171
135832,106144
135872,106126
135891,106177
135918,106162
135921,106206
135896,106186
135933,106172
135970,106210
135944,106209
135935,106190
135943,106186
135977,106231
135975,106209
135951,106228
135981,106212
135973,106221
135968,106191
135995,106249
136003,106209
135979,106240
135994,106218
135942,106234
135998,106208
135993,106238
135981,106225
135984,106234
136030,106267
136028,106225
136025,106248
136047,106229
136031,106255
136044,106248
136043,106227
136095,106244
136071,106280
136054,106294
136096,106257
136087,106278
136132,106298
136124,106288
136132,106297
136182,106352
136211,106331
136210,106366
136218,106362
136262,106359
136292,106376
136324,106396
136315,106396
136321,106418
136343,106405
136356,106411
136384,106444
136350,106441
136354,106414
136391,106422
136382,106421
136396,106420
136428,106453
136380,106451
136378,106431
136441,106452
136449,106460
136441,106472
136469,106437
136483,106459
136496,106504
136499,106498
136534,106501
136592,106511
136568,106520
136628,106578
136628,106557
136646,106588
136632,106547
136645,106580
136660,106578
136681,106586
136672,106592
136688,106597
136645,106590
136690,106599
136704,106623
136678,106630
136679,106609
136679,106594
136721,106632
136689,106614
136736,106598
136760,106644
136721,106610
136783,106634
136746,106662
136796,106657
136801,106696
136752,106644
136797,106658
136817,106673
136798,106702
136808,106675
136843,106648
136836,106699
136839,106678
136869,106690
136854,106665
136857,106685
136835,106664
136894,106672
136856,106707
136905,106685
136863,106716
136868,106706
136923,106685
136963,106730
136942,106717
136987,106757
137031,106774
137028,106770
137047,106774
137031,106793
137026,106778
137002,106790
137018,106783
136997,106767
137014,106769
136983,106793
136988,106771
136968,106765
136973,106782
136963,106789
136887,106745
136955,106752
136950,106773
136899,106759
136943,106766
136890,106794
136926,106760
136956,106799
136944,106784
136943,106793
136958,106752
136968,106780
137002,106789
136948,106792
136994,106789
136996,106814
137024,106804
137024,106813
137049,106828
137017,106840
137020,106808
137081,106850
137060,106848
137106,106873
137116,106874
137121,106874
137136,106875
137150,106881
137146,106879
137145,106891
137151,106903
137152,106875
137150,106871
137073,106873
137069,106809
137087,106835
137028,106789
137033,106802
136998,106805
136952,106765
136987,106789
136964,106807
136954,106755
137019,106789
136992,106789
137039,106825
137037,106863
137062,106818
137139,106862
137123,106898
137143,106864
137148,106879
137194,106888
137223,106925
137200,106896
137223,106921
137221,106942
137273,106950
137255,106929
137240,106933
137314,106962
137291,106961
137314,106953
137305,106989
137285,106991
137330,106936
137359,106986
137347,106994
137364,107022
137347,106986
137365,106995
137417,107022
137392,107057
137395,107011
137446,107029
137425,107024
137475,107051
137484,107096
137479,107052
137504,107080
137507,107103
137543,107114
137525,107117
137588,107090
137580,107139
137565,107107
137624,107133
137604,107155
137628,107146
137636,107189
137621,107125
137680,107192
137686,107199
137695,107188
137691,107208
137732,107198
137745,107238
137758,107257
137764,107218
137776,107227
137823,107265
137824,107277
137808,107246
137848,107304
137835,107296
137863,107305
137854,107310
137891,107276
137935,107324
137905,107328
137891,107318
137931,107326
137970,107303
137931,107339
137945,107288
137968,107349
137968,107345
137971,107335
137973,107344
138027,107366
137976,107359
138015,107385
138028,107366
138049,107373
138010,107350
138046,107350
138065,107392
138047,107366
138033,107370
138038,107372
138045,107369
138029,107368
138065,107375
138046,107361
138083,107377
138061,107404
138083,107377
138065,107386
138067,107386
138071,107376
138081,107398
138084,107382
138092,107420
138094,107389
138107,107397
138130,107413
138136,107437
138166,107452
138135,107453
138187,107425
138209,107471
138211,107464
138203,107488
138267,107479
138245,107478
138262,107477
138297,107502
138281,107498
138296,107513
138283,107490
138310,107510
138292,107501
138327,107529
138328,107531
138302,107536
138327,107519
138383,107513
138360,107573
138367,107536
138350,107557
138402,107573
138435,107565
138415,107565
138435,107565
138412,107601
138393,107572
138436,107589
138443,107572
138385,107555
138396,107589
138396,107567
138362,107555
138371,107566
138344,107536
138281,107531
138328,107558
138307,107533
138290,107526
138288,107526
138220,107506
138263,107534
138240,107501
138255,107513
138250,107534
138219,107515
138269,107506
138221,107523
138228,107491
138260,107523
138282,107525
138312,107562
138284,107573
138318,107532
138319,107548
138320,107555
138358,107547
138361,107584
138344,107571
138372,107541
138366,107586
138374,107570
138389,107589
138390,107571
138408,107572
138405,107605
138438,107602
138426,107600
138449,107618
138432,107605
138421,107613
138454,107620
138455,107625
138484,107638
138495,107633
138495,107654
138485,107667
138537,107616
138543,107671
138534,107683
138563,107687
138533,107678
138569,107662
138559,107704
138540,107663
138560,107676
138605,107681
138588,107709
138614,107679
138594,107699
138619,107691
138636,107730
138622,107697
138652,107721
138623,107711
138627,107716
138641,107713
138679,107709
138671,107749
138674,107724
138655,107739
138662,107714
138720,107762
138697,107771
138679,107738
138701,107747
138672,107755
138719,107732
138692,107754
138672,107759
138689,107750
138737,107770
138723,107778
138741,107764
138694,107775
138713,107748
138745,107761
138707,107767
138723,107779
138731,107755
138768,107786
138755,107749
138756,107788
138773,107775
138751,107795
138748,107776
138807,107768
138805,107811
138798,107806
138785,107785
138835,107805
138857,107826
138826,107801
138839,107802
138843,107809
138852,107837
138849,107849
138884,107814
138863,107800
138827,107832
138845,107840
138869,107851
138874,107796
138906,107824
138863,107838
138890,107824
138897,107834
138888,107828
138899,107816
138903,107832
138912,107841
138904,107841
138924,107865
138925,107867
138952,107831
138907,107874
138934,107859
138937,107857
138944,107867
138944,107856
138984,107863
138954,107887
138972,107864
138960,107856
138981,107857
138983,107869
138988,107879
138972,107854
138980,107871
138938,107851
138983,107851
138996,107862
138975,107862
138982,107843
138990,107855
139000,107850
139013,107888
139011,107844
139012,107876
138979,107899
139014,107866
139035,107871
139028,107858
138996,107871
139010,107848
138995,107895
139022,107871
139039,107892
138997,107870
138989,107853
139001,107869
139012,107835
139023,107881
138981,107862
138994,107849
139005,107865
139003,107893
138999,107846
139003,107846
139002,107870
139009,107865
138969,107839
139010,107847
139008,107860
138974,107816
139008,107852
138954,107837
139003,107844
138963,107872
138943,107793
139013,107863
138954,107829
138969,107844
139003,107852
138972,107830
139023,107849
139020,107842
138987,107796
139010,107828
138964,107798
138971,107831
138949,107794
138925,107769
138930,107816
138901,107788
138880,107798
138846,107750
138853,107757
138798,107756
138806,107746
138791,107724
138807,107760
138760,107738
138741,107710
138746,107690
138726,107704
138729,107701
138705,107686
138698,107693
138657,107685
138675,107712
138680,107699
138652,107702
138686,107698
138631,107723
138634,107693
138643,107664
138637,107687
138663,107692
138630,107677
138645,107683
138679,107686
138654,107696
138668,107699
138637,107684
138623,107670
138683,107698
138639,107706
138639,107674
138635,107684
138653,107688
138613,107670
138622,107678
138623,107649
138619,107664
138609,107667
138592,107658
138564,107644
138560,107606
138607,107650
138593,107638
138589,107621
138554,107634
138559,107602
138555,107638
138554,107624
138599,107614
138572,107594
138574,107621
138574,107622
138589,107636
138542,107612
138586,107618
138550,107625
138525,107589
138559,107607
138577,107650
138539,107583
138537,107617
138509,107604
138519,107560
138530,107576
138537,107595
138514,107624
138521,107591
138532,107584
138512,107585
138471,107574
138477,107542
138465,107565
138469,107560
138491,107542
138480,107568
138408,107548
138440,107526
138453,107553
138450,107525
138420,107544
138409,107556
138365,107549
138378,107510
138414,107524
138373,107495
138359,107490
138338,107499
138346,107509
138343,107467
138329,107490
138345,107446
138292,107480
138335,107491
138332,107445
138325,107471
138306,107458
138299,107441
138292,107458
138301,107429
138300,107432
138270,107453
138239,107412
138258,107391
138235,107421
138239,107368
138271,107395
138229,107391
138255,107387
138256,107413
138252,107392
138283,107423
138261,107397
138286,107418
138311,107402
138297,107392
138315,107409
138284,107391
138353,107438
138325,107418
138328,107428
138338,107437
138345,107417
138343,107428
138396,107446
138381,107457
138376,107418
138351,107446
138362,107414
138370,107450
138390,107439
138359,107425
138372,107406
138409,107454
138396,107420
138398,107430
138398,107443
138396,107440
138401,107440
138432,107430
138462,107452
138406,107437
138446,107449
138458,107486
138459,107480
138441,107448
138466,107466
138479,107483
138462,107492
138471,107446
138477,107479
138438,107466
138484,107474
138491,107465
138483,107489
138468,107462
138473,107478
138499,107508
138489,107470
138521,107477
138470,107483
138516,107458
138510,107485
138543,107502
138530,107486
138553,107479
138547,107527
138558,107502
138582,107485
138593,107524
138608,107506
138618,107510
138577,107516
138611,107518
138621,107534
138634,107547
138586,107520
138595,107504
138638,107530
138619,107546
138618,107506
138622,107576
138611,107522
138657,107538
138638,107540
138624,107498
138606,107478
138632,107514
138607,107531
138580,107500
138582,107520
138528,107468
138545,107493
138551,107501
138529,107493
138512,107500
138468,107459
138462,107459
138455,107446
138421,107455
138469,107449
138425,107461
138449,107471
138435,107450
138437,107466
138448,107481
138448,107449
138438,107459
138471,107476
138473,107466
138489,107485
138460,107455
138521,107502
138511,107492
138547,107527
138542,107512
138515,107516
138540,107512
138568,107515
138573,107513
138561,107522
138564,107517
138577,107520
138601,107522
138597,107533
138593,107537
138586,107532
138586,107540
138616,107522
138604,107543
138631,107542
138585,107530
138578,107499
138589,107514
138608,107527
138586,107519
138537,107500
138601,107522
138571,107529
138549,107499
138576,107510
138570,107503
138587,107533
138574,107483
138579,107519
138575,107490
138559,107470
138577,107499
138541,107470
138559,107484
138557,107504
138564,107473
138588,107494
138584,107516
138587,107501
138581,107496
138559,107495
138592,107507
138613,107525
138599,107512
138594,107506
138605,107498
138628,107511
138638,107524
138605,107521
138622,107511
138621,107519
138608,107528
138611,107506
138602,107506
138582,107475
138567,107494
138606,107502
138569,107485
138568,107459
138591,107493
138590,107517
138572,107459
138575,107487
138570,107499
138567,107480
138541,107461
138581,107455
138576,107493
138530,107479
138542,107473
138529,107451
138527,107450
138561,107481
138529,107454
138534,107456
138524,107448
138563,107476
138557,107471
138555,107496
138551,107444
138586,107467
138585,107497
138599,107505
138607,107460
138612,107503
138584,107505
138620,107478
138617,107481
138626,107483
138600,107470
138599,107501
138605,107502
138605,107470
138595,107462
138630,107492
138621,107468
138617,107504
138609,107490
138661,107493
138650,107496
138636,107506
138692,107516
138705,107528
138703,107519
138707,107517
138699,107504
138687,107501
138659,107504
138698,107507
138698,107505
138686,107511
138733,107515
138707,107539
138720,107523
138709,107522
138697,107484
138731,107515
138729,107530
138746,107508
138744,107514
138776,107517
138787,107547
138784,107560
138762,107530
138825,107567
138837,107566
138851,107553
138865,107559
138903,107578
138849,107574
138858,107563
138880,107570
138891,107578
138912,107617
138874,107561
138872,107565
138886,107575
138900,107618
138889,107581
138918,107589
138920,107604
138913,107604
138981,107619
138982,107647
138957,107600
139018,107633
139009,107620
139070,107657
139046,107646
139032,107656
139044,107674
139060,107679
139016,107657
139048,107666
138997,107639
138988,107642
138997,107616
138985,107610
138971,107649
138937,107580
138933,107622
138923,107615
138906,107598
138879,107612
138849,107562
138886,107564
138851,107581
138864,107578
138863,107574
138857,107565
138885,107593
138871,107580
138895,107610
138926,107605
138885,107610
138892,107571
138970,107621
138967,107631
138965,107606
138958,107649
138989,107631
139005,107669
139002,107663
138994,107610
138993,107641
139012,107668
139028,107640
139056,107667
139013,107666
139007,107621
139057,107647
139060,107683
139033,107670
139061,107625
139020,107650
139059,107657
139055,107651
139036,107681
139041,107661
139044,107677
139049,107650
139077,107674
139037,107660
139047,107651
139041,107661
139045,107629
139095,107646
139075,107678
139072,107631
139100,107667
139119,107685
139092,107683
139127,107679
139128,107703
139127,107702
139109,107699
139140,107695
139114,107678
139151,107692
139110,107687
139122,107684
139110,107684
139120,107665
139152,107708
139129,107696
139129,107687
139131,107667
139152,107674
139147,107679
139144,107685
139119,107674
139152,107692
139149,107683
139110,107705
139149,107713
139137,107665
139171,107705
139184,107698
139156,107705
139151,107678
139176,107700
139189,107710
139235,107733
139196,107733
139230,107736
139210,107738
139266,107764
139263,107736
139218,107749
139246,107711
139269,107744
139251,107725
139287,107754
139272,107729
139253,107741
139308,107761
139310,107762
139288,107750
139318,107767
139305,107759
139314,107764
139361,107771
139343,107769
139355,107782
139351,107767
139385,107790
139400,107789
139362,107781
139395,107795
139403,107775
139427,107824
139434,107802
139478,107830
139489,107825
139485,107808
139522,107853
139545,107877
139526,107851
139545,107849
139547,107862
139568,107850
139585,107876
139611,107873
139603,107906
139592,107897
139618,107892
139623,107913
139634,107891
139598,107875
139614,107878
139637,107910
139645,107908
139618,107914
139632,107888
139651,107900
139664,107914
139640,107896
139656,107915
139617,107884
139660,107901
139671,107923
139635,107907
139661,107918
139645,107895
139692,107943
139666,107881
139710,107910
139692,107941
139665,107907
139675,107910
139704,107909
139696,107933
139682,107929
139695,107908
139693,107918
139710,107917
139700,107908
139734,107934
139732,107954
139755,107947
139760,107960
139784,107941
139801,107939
139802,107957
139804,107960
139820,107969
139865,107996
139851,107972
139850,107990
139874,108000
139926,108006
139923,107998
139920,108013
139924,108023
139914,108022
139941,108053
139928,108035
139935,108047
139919,108012
139962,108062
139955,108015
139967,108049
139983,108049
139937,108055
139937,108040
139972,108062
139939,108050
139929,108061
139921,108039
139922,108025
139938,108061
139950,108035
139911,108066
139892,108023
139925,108042
139932,108062
139890,108036
139910,108056
139941,108030
139914,108052
139959,108052
139953,108042
139938,108070
139925,108044
139939,108079
139949,108072
139943,108052
139999,108063
139991,108098
139998,108088
140024,108077
140029,108092
140017,108087
140001,108101
140046,108086
140086,108106
140091,108132
140053,108096
140064,108102
140097,108099
140095,108138
140101,108124
140103,108114
140082,108116
140100,108127
140087,108120
140116,108131
140097,108117
140103,108125
140131,108132
140130,108151
140122,108116
140128,108136
140114,108097
140169,108120
140157,108147
140122,108179
140163,108153
140158,108128
140185,108166
140148,108131
140220,108174
140173,108141
140177,108142
140166,108137
140200,108161
140184,108157
140206,108136
140162,108121
140200,108167
140180,108162
140196,108131
140197,108156
140192,108150
140217,108156
140255,108168
140225,108172
140260,108177
140231,108172
140252,108152
140280,108183
140251,108190
140236,108182
140276,108207
140263,108171
140308,108186
140324,108186
140326,108212
140305,108208
140320,108219
140377,108223
140316,108238
140365,108219
140367,108214
140377,108241
140396,108262
140392,108270
140389,108236
140415,108234
140438,108299
140429,108258
140443,108268
140435,108246
140464,108280
140449,108274
140449,108293
140445,108261
140480,108249
140466,108286
140475,108291
140490,108274
140497,108264
140491,108274
140478,108292
140495,108283
140515,108284
140533,108281
140514,108269
140498,108292
140503,108292
140522,108290
140507,108288
140516,108292
140537,108301
140536,108305
140560,108291
140575,108295
140559,108308
140530,108280
140595,108328
140562,108298
140574,108293
140571,108302
140561,108316
140624,108352
140597,108312
140616,108322
140595,108311
140584,108303
140607,108332
140599,108327
140613,108305
140593,108325
140591,108298
140631,108324
140635,108327
140626,108325
140596,108316
140601,108295
140642,108336
140626,108343
140642,108339
140642,108319
140635,108330
140659,108333
140654,108285
140638,108298
140630,108332
140618,108292
140671,108345
140641,108329
140671,108318
140635,108302
140662,108344
140661,108349
140646,108312
140623,108308
140631,108310
140629,108306
140677,108332
140624,108328
140626,108282
140623,108319
140639,108313
140648,108297
140646,108303
140659,108319
140669,108317
140659,108316
140696,108331
140698,108340
140671,108332
140670,108322
140641,108315
140669,108340
140654,108317
140663,108298
140631,108301
140595,108305
140630,108291
140580,108307
140577,108268
140550,108295
140527,108240
140562,108270
140523,108278
140502,108247
140481,108242
140499,108269
140494,108238
140480,108224
140506,108248
140449,108231
140486,108230
140466,108226
140497,108243
140465,108219
140454,108215
140481,108252
140501,108238
140489,108267
140466,108231
140483,108236
140507,108261
140504,108257
140506,108228
140513,108269
140502,108237
140525,108221
140546,108268
140526,108278
140516,108278
140506,108255
140570,108279
140564,108289
140583,108245
140565,108271
140572,108267
140608,108275
140595,108266
140632,108294
140602,108304
140634,108290
140637,108317
140640,108300
140655,108329
140673,108327
140639,108312
140689,108334
140704,108300
140698,108323
140732,108347
140682,108339
140702,108338
140716,108338
140746,108345
140713,108331
140714,108315
140729,108313
140723,108335
140720,108315
140738,108324
140710,108329
140707,108330
140751,108323
140731,108308
140741,108346
140749,108330
140753,108345
140740,108338
140746,108332
140746,108349
140726,108333
140763,108370
140757,108352
140750,108359
140758,108323
140736,108321
140760,108371
140756,108354
140766,108343
140751,108318
140772,108345
140768,108361
140805,108350
140804,108357
140794,108363
140803,108382
140796,108330
140827,108374
140805,108375
140809,108354
140847,108378
140812,108395
140795,108352
140839,108382
140843,108372
140815,108381
140867,108389
140874,108403
140877,108352
140838,108371
140873,108388
140883,108402
140885,108399
140885,108388
140899,108401
140888,108391
140879,108378
140930,108404
140904,108397
140888,108371
140905,108391
140918,108403
140894,108402
140946,108401
140925,108429
140915,108382
140932,108428
140926,108421
140954,108393
140908,108394
140938,108381
140941,108434
140977,108416
140957,108410
140952,108385
140976,108402
140973,108395
141012,108433
140953,108433
140967,108382
140984,108411
140966,108431
140959,108412
141009,108441
140977,108428
140956,108400
141006,108415
141013,108421
141044,108453
141002,108450
141023,108405
141023,108431
141032,108444
141014,108431
141059,108424
141003,108428
141057,108423
141049,108432
141039,108400
141045,108427
141007,108427
141029,108403
141018,108432
141008,108432
140998,108399
141027,108389
141016,108424
140974,108406
141005,108395
140980,108382
140943,108390
141000,108423
141025,108391
141013,108399
140979,108369
140993,108403
141025,108417
141017,108400
141051,108417
141036,108419
141009,108382
141036,108437
141043,108390
141046,108402
141011,108412
141001,108375
141052,108407
141025,108390
141041,108387
141015,108410
140999,108359
140985,108376
141015,108388
140985,108382
140956,108350
140943,108363
140925,108330
140941,108365
140880,108311
140889,108329
140877,108328
140832,108348
140836,108293
140834,108314
140795,108294
140767,108293
140787,108288
140792,108310
140775,108294
140759,108276
140770,108301
140768,108299
140823,108260
140819,108288
140785,108304
140818,108292
140802,108332
140811,108316
140801,108299
140785,108277
140785,108316
140807,108308
140817,108296
140796,108318
140800,108283
140832,108297
140813,108320
140820,108304
140813,108273
140828,108296
140822,108265
140836,108297
140821,108304
140827,108316
140810,108301
140792,108285
140826,108280
140833,108323
140855,108311
140802,108256
140809,108320
140824,108287
140805,108266
140801,108249
140781,108268
140766,108254
140775,108267
140758,108265
140780,108224
140751,108255
140764,108274
140755,108230
140773,108255
140791,108264
140727,108246
140765,108216
140797,108255
140767,108233
140744,108233
140737,108224
140741,108229
140735,108210
140752,108243
140740,108229
140682,108208
140717,108224
140693,108225
140686,108207
140700,108203
140646,108209
140659,108190
140679,108185
140681,108186
140671,108170
140623,108179
140656,108178
140643,108188
140634,108174
140655,108155
140650,108166
140688,108186
140685,108191
140682,108186
140674,108171
140621,108172
140665,108185
140667,108152
140661,108155
140625,108154
140619,108155
140642,108173
140624,108120
140603,108134
140620,108134
140596,108154
140627,108139
140618,108148
140603,108142
140605,108124
140579,108103
140584,108152
140622,108143
140576,108110
140597,108119
140583,108109
140611,108138
140609,108115
140613,108135
140598,108122
140578,108097
140610,108125
140593,108114
140607,108108
140578,108086
140597,108097
140572,108087
140580,108106
140595,108081
140567,108098
140548,108089
140564,108073
140572,108105
140551,108079
140579,108050
140583,108100
140596,108107
140576,108092
140630,108128
140590,108082
140601,108084
140639,108111
140604,108101
140611,108128
140569,108090
140580,108105
140587,108068
140578,108071
140579,108082
140553,108063
140568,108059
140552,108088
140551,108025
140517,108033
140530,108062
140494,108042
140527,108039
140545,108070
140533,108032
140535,108038
140514,108056
140546,108030
140569,108083
140531,108031
140566,108050
140583,108094
140590,108094
140579,108064
140603,108076
140556,108059
140576,108075
140562,108088
140558,108039
140564,108050
140557,108043
140525,108038
140551,108028
140521,108036
140539,108038
140544,108022
140531,108052
140520,108024
140555,108029
140549,108070
140550,108012
140520,108008
140527,108021
140558,108031
140520,108012
140489,108004
140426,107987
140420,107969
140433,107994
140404,107969
140394,107963
140333,107914
140363,107933
140340,107948
140317,107902
140304,107910
140275,107917
140275,107918
140278,107928
140291,107898
140252,107910
140237,107875
140275,107932
140238,107893
140239,107911
140230,107891
140231,107912
140252,107916
140208,107880
140231,107874
140190,107875
140233,107892
140231,107882
140251,107879
140233,107877
140208,107875
140248,107895
140244,107892
140252,107903
140273,107892
140276,107896
140228,107886
140281,107883
140264,107934
140257,107894
140215,107837
140247,107877
140214,107866
140230,107895
140230,107892
140187,107840
140233,107877
140217,107855
140255,107869
140224,107871
140209,107854
140256,107879
140276,107874
140272,107866
140279,107881
140278,107877
140245,107888
140269,107871
140290,107868
140271,107865
140240,107862
140297,107863
140274,107889
140252,107863
140269,107879
140241,107842
140259,107877
140262,107860
140252,107848
140261,107882
140217,107828
140230,107894
140207,107840
140216,107855
140203,107795
140159,107815
140199,107808
140187,107804
140183,107800
140131,107804
140148,107810
140140,107799
140161,107823
140154,107814
140133,107784
140101,107772
140121,107784
140117,107767
140107,107776
140098,107779
140105,107783
140120,107770
140119,107799
140097,107785
140122,107777
140123,107757
140137,107779
140140,107795
140086,107774
140141,107805
140097,107788
140125,107786
140134,107776
140119,107760
140102,107774
140076,107747
140134,107754
140137,107751
140095,107751
140101,107754
140069,107742
140069,107746
140114,107762
140086,107727
140113,107748
140079,107739
140118,107753
140136,107759
140110,107733
140124,107735
140116,107751
140102,107741
140136,107752
140108,107733
140110,107752
140075,107727
140095,107719
140093,107739
140102,107715
140065,107698
140079,107742
140084,107709
140061,107729
140088,107703
140069,107694
140078,107707
140058,107726
140071,107695
140072,107700
140063,107687
140041,107686
140064,107667
140049,107675
140062,107693
140062,107683
140037,107667
140044,107681
140067,107694
140058,107692
140026,107653
140045,107660
140044,107677
140082,107659
140067,107672
140049,107659
140054,107665
140084,107711
140049,107663
140083,107668
140052,107688
140036,107638
140083,107691
140056,107665
140036,107665
140009,107665
139990,107630
139981,107649
139975,107636
139938,107624
139909,107599
139877,107621
139888,107606
139856,107596
139812,107591
139772,107538
139794,107571
139773,107523
139766,107567
139731,107541
139701,107488
139728,107553
139742,107514
139733,107545
139711,107541
139663,107481
139681,107518
139661,107511
139684,107508
139646,107496
139629,107472
139647,107441
139630,107469
139641,107501
139645,107478
139676,107478
139656,107456
139685,107480
139714,107483
139718,107494
139695,107520
139713,107489
139690,107501
139705,107485
139692,107478
139684,107467
139692,107440
139707,107479
139686,107482
139646,107463
139641,107488
139656,107482
139657,107468
139635,107432
139615,107452
139561,107420
139584,107451
139576,107404
139601,107418
139605,107455
139548,107399
139584,107449
139592,107428
139551,107417
139582,107380
139547,107413
139567,107395
139565,107383
139569,107392
139527,107374
139535,107347
139519,107414
139507,107353
139515,107408
139496,107397
139472,107341
139501,107383
139467,107356
139486,107338
139475,107336
139467,107332
139465,107362
139439,107344
139461,107364
139429,107336
139400,107334
139421,107329
139432,107355
139449,107305
139434,107333
139420,107327
139421,107314
139483,107298
139489,107352
139479,107354
139444,107311
139482,107325
139524,107356
139519,107361
139465,107360
139479,107330
139494,107350
139479,107338
139504,107346
139477,107301
139479,107316
139500,107357
139502,107354
139481,107321
139488,107347
139462,107294
139462,107341
139501,107305
139500,107331
139471,107277
139456,107339
139495,107311
139493,107339
139497,107330
139467,107311
139440,107292
139475,107303
139495,107311
139511,107334
139475,107301
139461,107329
139463,107302
139468,107312
139482,107296
139487,107339
139466,107279
139491,107311
139499,107353
139458,107311
139476,107263
139466,107326
139475,107288
139507,107319
139453,107282
139478,107320
139427,107256
139467,107282
139451,107304
139451,107301
139408,107245
139446,107302
139446,107280
139444,107255
139430,107248
139483,107323
139450,107272
139500,107306
139484,107347
139497,107302
139459,107264
139488,107317
139487,107269
139493,107297
139514,107302
139468,107265
139478,107325
139515,107276
139505,107290
139507,107263
139500,107285
139503,107327
139526,107300
139544,107336
139520,107284
139520,107315
139511,107296
139555,107272
139499,107309
139487,107252
139465,107281
139455,107326
139442,107274
139425,107248
139420,107254
139374,107205
139336,107203
139330,107208
139347,107206
139304,107190
139312,107237
139277,107189
139255,107190
139243,107176
139236,107194
139198,107122
139164,107137
139210,107129
139162,107132
139133,107111
139150,107137
139119,107125
139093,107110
139094,107077
139067,107078
139050,107108
139065,107108
139045,107105
139039,107066
139082,107073
139059,107098
139067,107084
139037,107089
139024,107073
139040,107043
139008,107085
139009,107063
138995,107018
139020,107050
139023,107080
138959,107040
138981,107050
139002,107061
138968,107036
138991,107004
138961,107009
138987,107015
138985,107044
138968,107021
138971,107026
138923,107021
138910,106990
138933,106997
138924,107001
138936,107019
138911,106989
138906,107001
138882,106965
138916,107001
138883,106967
138896,106992
138904,106977
138903,106992
138897,106986
138909,106959
138886,106955
138865,106977
138874,106947
138888,106963
138904,106974
138815,106928
138837,106920
138833,106973
138858,106940
138808,106904
138799,106892
138778,106937
138761,106925
138740,106924
138718,106888
138672,106860
138666,106838
138692,106880
138646,106842
138638,106854
138620,106803
138582,106828
138624,106808
138620,106848
138618,106836
138578,106803
138614,106829
138612,106860
138634,106823
138621,106862
138586,106784
138604,106828
138619,106866
138599,106841
138573,106807
138547,106804
138585,106823
138583,106822
138563,106827
138607,106792
138538,106789
138553,106785
138604,106833
138591,106812
138572,106798
138585,106808
138572,106796
138608,106841
138600,106821
138601,106794
138612,106830
138592,106827
138598,106779
138605,106792
138615,106780
138609,106810
138623,106846
138623,106802
138628,106779
138608,106772
138597,106799
138603,106817
138607,106768
138622,106786
138596,106825
138548,106774
138571,106801
138581,106754
138616,106763
138574,106772
138558,106780
138588,106781
138601,106777
138562,106790
138624,106785
138548,106761
138618,106811
138624,106794
138633,106777
138650,106803
138651,106791
138619,106817
138705,106846
138736,106810
138726,106837
138678,106826
138738,106861
138712,106844
138719,106841
138735,106818
138712,106818
138698,106829
138729,106826
138694,106828
138712,106834
138676,106786
138713,106833
138725,106834
138745,106841
138696,106831
138723,106833
138725,106857
138767,106817
138784,106840
138744,106838
138720,106822
138731,106843
138721,106791
138690,106850
138682,106782
138643,106821
138614,106816
138588,106751
138557,106772
138505,106763
138495,106700
138491,106757
138457,106707
138440,106733
138414,106721
138389,106705
138364,106677
138362,106723
138298,106653
138329,106654
138251,106645
138240,106607
138254,106657
138202,106606
138196,106614
138178,106598
138174,106593
138167,106628
138169,106606
138134,106589
138137,106614
138112,106577
138128,106598
138134,106594
138169,106630
138125,106597
138156,106550
138156,106596
138146,106603
138112,106606
138096,106561
138182,106613
138147,106575
138145,106568
138133,106586
138116,106610
138096,106549
138091,106581
138084,106543
138024,106530
138026,106513
138017,106500
138003,106543
137958,106503
137965,106510
137953,106510
137968,106495
137966,106503
137940,106492
137949,106475
137941,106514
137937,106500
137940,106475
137915,106454
137902,106464
137908,106478
137890,106445
137829,106449
137877,106398
137851,106446
137805,106423
137810,106430
137788,106397
137796,106396
137745,106387
137719,106401
137714,106372
137729,106376
137706,106386
137658,106329
137677,106357
137663,106364
137658,106358
137616,106343
137647,106364
137626,106339
137632,106358
137617,106324
137634,106300
137603,106330
137581,106317
137603,106293
137594,106305
137571,106299
137557,106279
137569,106318
137526,106278
137533,106306
137539,106286
137512,106274
137479,106294
137493,106233
137504,106271
137480,106265
137450,106268
137423,106223
137457,106250
137474,106229
137430,106278
137393,106196
137438,106215
137441,106275
137411,106258
137385,106229
137372,106217
137441,106268
137408,106218
137416,106252
137436,106237
137433,106242
137425,106238
137453,106254
137440,106216
137418,106273
137408,106213
137406,106272
137411,106226
137403,106193
137392,106226
137357,106223
137416,106217
137403,106244
137419,106210
137418,106253
137425,106211
137433,106257
137437,106248
137493,106284
137475,106272
137464,106279
137503,106295
137530,106268
137523,106308
137508,106255
137467,106231
137476,106261
137458,106278
137428,106236
137410,106214
137367,106209
137394,106252
137385,106205
137364,106234
137369,106223
137346,106214
137329,106186
137375,106245
137351,106210
137345,106211
137303,106177
137359,106178
137368,106216
137339,106189
137358,106169
137332,106198
137344,106172
137355,106210
137322,106182
137319,106131
137307,106171
137291,106173
137309,106202
137309,106184
137282,106141
137290,106164
137286,106182
137308,106209
137301,106186
137304,106174
137285,106169
137319,106226
137315,106176
137309,106146
137289,106153
137260,106134
137296,106196
137229,106142
137211,106120
137161,106146
137122,106092
137109,106088
137092,106082
137035,106089
136971,106033
136956,106038
136897,106000
136901,106057
136839,106026
136792,105936
136772,105957
136753,105955
136742,105954
136727,105914
136707,105948
136671,105937
136692,105982
136693,105919
136685,105940
136639,105875
136615,105877
136645,105954
136628,105918
136589,105908
136579,105899
136563,105912
136561,105849
136545,105864
136548,105854
136522,105871
136522,105858
136517,105906
136496,105845
136515,105829
136472,105867
136465,105832
136491,105856
136488,105843
136493,105885
136477,105822
136488,105814
136515,105896
136535,105881
136500,105881
136542,105893
136505,105872
136513,105886
136539,105894
136556,105864
136542,105877
136521,105862
136542,105889
136557,105889
136555,105929
136495,105880
136483,105865
136557,105937
136556,105865
136548,105906
136516,105894
136502,105862
136541,105881
136546,105919
136523,105927
136512,105883
136522,105874
136562,105949
136546,105923
136543,105859
136539,105888
136490,105901
136515,105856
136510,105890
136489,105912
136479,105919
136445,105861
136468,105855
136458,105854
136469,105899
136419,105875
136447,105855
136435,105872
136436,105874
136441,105898
136421,105870
136400,105864
136435,105853
136447,105880
136419,105851
136409,105891
136387,105872
136464,105882
136395,105884
136410,105820
136370,105815
136393,105865
136418,105852
136401,105854
136422,105907
136386,105835
136386,105849
136416,105892
136420,105825
136431,105918
136381,105847
136401,105865
136404,105896
136414,105896
136408,105897
136410,105857
136402,105874
136450,105912
136468,105916
136452,105943
136428,105898
136440,105854
136476,105934
136453,105899
136475,105934
136469,105885
136442,105895
136446,105896
136496,105869
136467,105914
136485,105918
136471,105884
136509,105923
136513,105904
136536,105914
136538,105962
136566,105968
136580,105988
136597,106008
136584,105940
136619,106011
136611,105978
136622,105985
136670,106025
136646,105990
136646,105983
136673,106044
136671,106001
136679,106030
136677,106040
136630,106042
136691,106016
136676,106053
136677,106022
136704,106050
136656,106025
136667,106001
136703,106033
136690,106032
136706,106026
136714,106035
136716,106070
136766,106065
136742,106077
136774,106083
136773,106085
136785,106093
136814,106106
136804,106083
136825,106068
136818,106123
136830,106088
136823,106119
136828,106126
136819,106115
136826,106091
136853,106099
136849,106146
136856,106100
136812,106112
136822,106122
136830,106145
136821,106085
136827,106109
136829,106092
136776,106075
136750,106081
136765,106079
136728,106063
136676,106038
136667,106028
136656,106060
136648,106027
136605,106020
136572,106022
136511,105953
136484,105957
136481,105997
136412,105955
136407,105967
136348,105916
136352,105947
136335,105918
136297,105941
136257,105910
136215,105865
136282,105915
136271,105903
136216,105858
136249,105866
136219,105887
136283,105849
136257,105954
136195,105846
136225,105913
136192,105833
136255,105898
136222,105913
136196,105869
136205,105838
136191,105828
136217,105885
136201,105883
136225,105906
136215,105847
136204,105874
136236,105892
136241,105926
136245,105915
136251,105934
136222,105907
136221,105849
136263,105907
136247,105904
136235,105884
136206,105875
136232,105861
136247,105869
136248,105948
136249,105902
136224,105903
136291,105950
136250,105921
136265,105901
136258,105878
136280,105940
136278,105912
136288,105960
136246,105903
136264,105906
136283,105921
136278,105944
136266,105957
136262,105913
136263,105865
136278,105940
136267,105965
136261,105907
136309,105986
136259,105951
136251,105932
136266,105896
136297,105921
136326,105980
136287,105950
136250,105955
136271,105910
136271,105985
136228,105909
136217,105917
136252,105911
136258,105959
136226,105941
136224,105905
136214,105894
136199,105904
136198,105901
136242,105919
136226,105942
136208,105927
136218,105910
136264,106015
136278,106036
136254,105909
136246,105932
136276,105984
136256,105980
136296,105975
136290,106038
136268,105967
136295,105960
136308,105975
136361,106005
136326,105967
136293,105969
136332,106000
136322,105993
136324,106001
136340,105966
136321,105997
136359,106057
136329,106010
136377,106040
136337,105974
136363,105988
136363,106000
136395,106045
136376,106050
136375,105980
136367,106013
136374,106053
136361,106011
136391,106045
136370,105980
136359,106019
136362,106040
136408,106023
136403,106068
136332,106001
136350,105982
136346,106023
136327,106042
136347,105978
136371,106018
136345,106048
136348,106000
136354,105989
136343,105978
136367,105972
136341,106021
136343,106054
136359,105981
136342,106001
136344,106015
136321,106007
136353,105982
136425,106018
136388,106035
136353,105999
136392,106018
136394,106003
136367,106037
136420,106102
136379,106012
136367,105999
136370,106048
136381,105994
136381,106078
136360,106036
136314,105997
136324,105961
136369,106021
136344,106041
136313,106020
136271,105924
136328,106006
136301,106012
136311,105968
136263,105957
136245,105893
136254,105951
136230,105973
136158,105905
136149,105928
136102,105853
136081,105872
136037,105910
135964,105836
135943,105780
135894,105758
135815,105774
135832,105790
135741,105712
135700,105714
135594,105669
135638,105659
135571,105635
135544,105646
135494,105632
135420,105558
135459,105643
135425,105591
135420,105613
135404,105544
135320,105578
135332,105560
135325,105539
135321,105567
135286,105526
135267,105477
135264,105569
135243,105492
135221,105535
135203,105505
135151,105415
135194,105500
135164,105530
135160,105442
135169,105422
135195,105456
135207,105533
135209,105490
135235,105496
135228,105508
135240,105545
135264,105562
135230,105536
135228,105477
135238,105544
135193,105446
135184,105517
135188,105491
135199,105440
135196,105532
135161,105443
135165,105513
135163,105438
135153,105486
135183,105475
135130,105506
135108,105436
135125,105466
135106,105418
135082,105427
135080,105472
135070,105456
135077,105412
135074,105432
135061,105426
135008,105452
135031,105439
134994,105405
134981,105398
134950,105417
134951,105391
134888,105359
134856,105332
134857,105360
134810,105342
134785,105263
134754,105284
134733,105301
134728,105266
134676,105225
134682,105282
134665,105232
134658,105226
134623,105193
134658,105245
134593,105240
134606,105210
134616,105242
134566,105170
134581,105181
134569,105204
134588,105187
134623,105186
134599,105234
134594,105209
134636,105203
134614,105200
134622,105267
134619,105201
134639,105250
134632,105211
134637,105266
134714,105254
134708,105319
134699,105275
134713,105284
134744,105312
134752,105288
134752,105269
134778,105307
134742,105340
134792,105326
134795,105374
134800,105341
134770,105359
134748,105229
134754,105268
134721,105255
134741,105267
134703,105258
134745,105404
134726,105286
134825,105447
134770,105381
134740,105296
134795,105397
134803,105390
134780,105258
134879,105340
134757,105255
134823,105292
134782,105331
134881,105332
134851,105437
134778,105318
134816,105395
134832,105353
134766,105322
134734,105211
134767,105282
134743,105352
134672,105262
134701,105237
134689,105194
134643,105247
134627,105218
134705,105238
134727,105292
134695,105222
134726,105235
134795,105399
134774,105376
134803,105238
134772,105292
134818,105300
134796,105323
134860,105298
134907,105385
134852,105383
134858,105406
134832,105376
134921,105418
134845,105368
134873,105338
134825,105392
134819,105310
134881,105387
134851,105434
134808,105350
134847,105405
134852,105342
134819,105268
134896,105365
134875,105376
134841,105403
134794,105259
134815,105305
134732,105249
134715,105291
134625,105210
134701,105308
134664,105332
134634,105176
134578,105170
134597,105166
134588,105298
134548,105239
134563,105154
134520,105215
134505,105176
134476,105269
134414,105084
134457,105225
134394,105189
134302,105044
134372,105230
134305,105137
134292,105071
134291,105178
134229,105023
134256,105097
134268,105121
134191,105092
134214,105136
134147,104997
134202,105058
134163,105114
134150,104959
134127,105026
134128,105039
134111,105090
134083,105091
134120,104995
134125,105051
134037,105063
134070,104956
134147,104991
134110,105121
134079,104961
134046,105006
134080,104927
134144,105007
134127,104990
134155,105014
134173,105056
134218,105059
134195,105061
134213,105070
134208,105094
134253,105097
134270,105151
134271,105147
134312,105194
134325,105141
134360,105168
134351,105173
134435,105186
134412,105196
134487,105224
134449,105165
134510,105247
134509,105216
134538,105299
134542,105252
134540,105228
134602,105301
134559,105297
134633,105346
134580,105342
134548,105339
134544,105314
134512,105261
134500,105201
134504,105224
134482,105263
134466,105294
134449,105309
134407,105263
134348,105187
134348,105122
134339,105129
134355,105219
134278,105139
134305,105080
134285,105239
134304,105164
134308,105157
134292,105225
134256,105128
134299,105179
134326,105135
134297,105193
134297,105150
134341,105162
134291,105198
134327,105222
134297,105108
134344,105163
134310,105085
134356,105234
134373,105267
134316,105173
134362,105141
134359,105144
134338,105105
134380,105203
134367,105261
134350,105203
134320,105091
134353,105245
134300,105113
134332,105093
134322,105180
