11111,11111
0,0
82012,82252
105749,107855
105866,107898
105877,107919
105808,107905
105818,107882
105762,107861
105885,107935
105932,107948
105903,107954
105912,107898
105875,107887
105958,107958
105989,107943
105939,107945
105971,107918
105897,107911
105982,107912
105995,107933
105941,107944
105847,107877
105742,107802
105751,107854
105689,107774
105577,107737
105435,107639
105199,107563
105136,107529
105017,107468
104803,107390
104602,107279
104365,107127
104222,107118
104042,107045
103837,106955
103565,106808
103310,106690
103239,106654
103022,106590
102837,106481
102574,106414
102307,106223
102299,106247
102137,106184
101987,106115
101829,106052
101677,105925
101707,106012
101676,105959
101613,105929
101563,105887
101508,105863
101570,105933
101605,105936
101610,105912
101602,105932
101578,105867
101736,105983
101763,106000
101808,105992
101822,106004
101801,106010
101983,106048
102038,106133
102083,106123
102099,106157
102070,106138
102226,106202
102280,106265
102315,106210
102329,106260
102292,106189
102435,106315
102504,106323
102530,106343
102553,106320
102485,106303
102618,106375
102658,106405
102701,106399
102667,106390
102656,106365
102787,106439
102848,106474
102871,106479
102854,106454
102836,106459
102989,106523
103002,106552
103024,106544
103044,106525
103017,106537
103148,106589
103130,106609
103152,106577
103133,106577
103067,106556
103214,106619
103208,106637
103213,106615
103212,106574
103109,106577
103218,106638
103265,106636
103196,106592
103211,106613
103146,106545
103199,106599
103225,106619
103180,106569
103125,106574
103077,106550
103180,106569
103148,106574
103113,106564
103103,106531
103033,106510
103100,106538
103126,106550
103072,106542
103049,106484
103006,106485
103088,106523
103127,106545
103740,106814
104626,107210
104685,107208
105311,107497
105469,107527
105482,107587
105924,107765
105922,107675
106005,107785
106055,107796
106402,107913
106370,107925
106367,107914
106334,107879
106488,107965
106484,108008
106496,107935
106481,107964
106432,107941
106586,108014
106633,108023
106571,108028
106564,107998
106571,108010
106659,108039
106749,108108
106709,108047
106692,108032
106720,108091
106784,108078
106818,108154
106810,108111
106810,108063
106798,108123
106906,108113
106956,108185
106938,108141
106939,108130
106922,108126
107042,108226
107042,108194
107039,108203
107049,108191
106977,108166
107047,108176
107078,108218
106949,108135
106874,108094
106789,108049
106766,108041
106662,107991
106553,107930
106325,107816
106198,107773
106151,107798
106023,107686
105854,107646
105674,107514
105462,107405
105467,107418
105307,107383
105120,107238
104928,107192
104722,107128
104692,107090
104606,107051
104394,106979
104222,106891
104027,106781
104044,106806
103885,106787
103807,106713
103639,106650
103499,106573
103547,106595
103465,106571
103403,106569
103271,106518
103208,106475
103315,106520
103292,106544
103238,106506
103244,106470
103193,106486
103287,106542
103370,106557
103343,106557
103307,106528
103368,106544
103494,106626
103521,106621
103538,106649
103524,106593
103593,106662
103692,106683
103750,106734
103782,106744
103778,106726
103778,106735
103962,106779
104007,106849
104015,106843
104017,106801
104030,106848
104157,106884
104247,106912
104263,106937
104256,106920
104221,106884
104398,107005
104428,107050
104436,107008
104446,106991
104464,106991
104619,107078
104649,107107
104649,107110
104619,107092
104656,107057
104751,107145
104776,107165
104748,107141
104717,107142
104709,107116
104839,107153
104858,107194
104815,107168
104763,107168
104733,107114
104843,107158
104853,107213
104829,107159
104762,107143
104727,107111
104836,107154
104795,107190
104783,107129
104748,107123
104719,107078
104777,107133
104739,107138
104741,107095
104704,107115
104661,107076
104722,107128
104771,107136
104695,107123
104687,107101
104614,107080
104748,107116
104760,107149
104751,107136
104682,107135
104690,107071
104767,107154
104791,107161
104780,107123
104771,107106
104709,107116
104823,107137
104861,107200
104841,107188
104819,107141
104790,107132
104912,107227
104936,107182
104929,107224
104892,107201
104907,107153
104998,107240
105059,107259
105016,107277
104970,107185
105007,107225
105117,107313
105140,107320
105156,107282
105114,107327
105140,107260
105231,107347
105292,107356
105275,107337
105243,107380
105276,107322
105387,107408
105397,107411
105424,107417
105369,107428
105384,107379
105551,107460
105510,107511
105519,107487
105512,107461
105507,107439
105638,107498
105667,107569
105624,107496
105674,107506
105638,107500
105748,107573
105754,107588
105747,107546
105744,107524
105727,107551
105839,107601
105854,107598
105847,107608
105802,107600
105853,107560
105903,107631
105957,107651
105912,107636
105915,107623
105881,107633
106014,107657
106003,107646
106030,107651
105991,107628
105984,107672
106087,107696
106109,107722
106108,107707
106084,107687
106058,107661
106177,107722
106165,107750
106156,107725
106127,107724
106164,107730
106231,107751
106279,107801
106241,107759
106236,107745
106212,107761
106327,107808
106321,107806
106310,107766
106337,107800
106283,107758
106418,107839
106401,107845
106425,107837
106330,107795
106367,107804
106451,107883
106431,107874
106462,107846
106437,107829
106409,107814
106532,107886
106503,107906
106505,107852
106434,107849
106447,107844
106565,107903
106548,107908
106545,107875
106533,107835
106523,107881
106642,107947
106624,107913
106645,107939
106578,107909
106606,107879
106681,107969
106679,107958
106704,107942
106680,107944
106686,107928
106806,108016
106819,108012
106800,108010
106770,107945
106753,107964
106854,108026
106846,108001
106825,108009
106763,107972
106648,107938
106703,107931
106641,107937
106500,107827
106330,107738
106259,107718
106228,107713
106072,107626
105919,107562
105737,107479
105585,107421
105531,107397
105328,107315
105204,107230
105003,107112
104831,107044
104785,107052
104619,106989
104433,106914
104264,106802
104120,106728
104047,106737
103887,106661
103744,106616
103579,106521
103434,106458
103445,106505
103304,106437
103209,106382
103079,106307
102995,106307
103023,106298
102972,106318
102931,106287
102862,106248
102820,106220
102907,106256
102919,106291
102926,106273
102869,106214
102921,106259
103017,106356
103079,106330
103079,106368
103067,106324
103095,106341
103194,106409
103241,106414
103263,106414
103239,106421
103292,106433
103401,106527
103460,106489
103514,106519
103447,106508
103475,106529
103629,106599
103692,106596
103649,106626
103646,106536
103674,106585
103791,106669
103830,106646
103855,106709
103840,106631
103885,106677
103980,106776
104022,106721
104014,106741
103988,106752
104013,106745
104159,106809
104187,106815
104141,106798
104120,106782
104145,106793
104270,106832
104268,106856
104227,106868
104216,106804
104219,106811
104305,106846
104329,106852
104255,106874
104222,106777
104219,106808
104282,106843
104276,106856
104262,106824
104147,106761
104189,106765
104260,106846
104238,106816
104228,106794
104102,106750
104124,106742
104205,106801
104198,106785
104142,106783
104118,106753
104086,106750
104182,106804
104135,106792
104114,106738
104061,106716
104092,106738
104182,106774
104122,106792
104133,106733
104111,106772
104069,106715
104194,106798
104199,106769
104184,106814
104125,106714
104170,106775
104271,106807
104258,106814
104212,106826
104179,106813
104217,106782
104304,106889
104321,106870
104306,106829
104287,106864
104311,106822
104407,106889
104438,106903
104447,106884
104370,106878
104447,106889
104557,106958
104530,106980
104534,106919
104517,106923
104568,106950
104663,107008
104682,107007
104682,106994
104631,106970
104706,106998
104776,107044
104806,107069
104796,107066
104772,107019
104791,107062
104894,107112
104907,107124
104914,107093
104870,107089
104879,107076
105039,107174
105025,107163
104992,107150
104986,107140
104992,107112
105141,107196
105119,107200
105105,107178
105109,107195
105096,107180
105215,107232
105241,107234
105231,107262
105160,107185
105216,107231
105305,107303
105292,107276
105291,107244
105238,107252
105288,107241
105422,107318
105379,107317
105351,107277
105341,107294
105349,107298
105449,107317
105478,107327
105421,107324
105411,107299
105419,107322
105530,107338
105521,107388
105500,107347
105470,107333
105487,107325
105596,107392
105578,107410
105600,107368
105499,107355
105548,107357
105640,107392
105654,107444
105642,107426
105589,107364
105617,107393
105709,107440
105730,107438
105703,107447
105638,107407
105666,107412
105774,107506
105775,107479
105732,107437
105744,107429
105750,107454
105831,107484
105833,107480
105781,107500
105764,107427
105826,107461
105869,107527
105908,107512
105849,107499
105825,107487
105904,107513
105918,107530
105955,107504
105919,107535
105903,107531
105938,107509
105998,107601
105988,107565
106010,107533
105943,107509
106004,107590
106080,107592
106072,107573
106076,107590
106020,107580
106081,107602
106141,107611
106154,107599
106142,107588
106134,107597
106142,107626
106225,107643
106256,107643
106249,107665
106170,107638
106229,107622
106309,107722
106263,107686
106212,107651
106156,107580
106099,107577
106112,107560
105979,107524
105857,107441
105671,107339
105579,107285
105520,107316
105305,107193
105156,107103
104974,106998
104852,106953
104767,106922
104514,106835
104299,106697
104118,106609
103950,106528
103819,106516
103645,106410
103444,106368
103224,106187
103092,106175
103003,106139
102778,106044
102613,105957
102397,105856
102341,105834
102243,105822
102128,105731
102023,105701
101909,105662
101839,105633
101887,105669
101818,105652
101768,105570
101719,105558
101738,105598
101846,105642
101843,105636
101825,105638
101831,105640
101871,105648
101990,105768
102001,105719
102071,105739
102038,105744
102124,105737
102241,105832
102273,105816
102284,105872
102261,105815
102397,105894
102496,105935
102573,105953
102537,105970
102566,105935
102604,106010
102741,106064
102779,106062
102827,106093
102791,106050
102850,106082
102999,106176
102964,106172
103004,106158
102996,106151
103089,106190
103154,106268
103204,106242
103215,106293
103217,106257
103230,106309
103390,106337
103392,106353
103358,106300
103342,106316
103395,106322
103457,106365
103486,106360
103442,106366
103399,106299
103455,106360
103552,106384
103461,106369
103451,106381
103399,106281
103479,106361
103521,106361
103493,106370
103475,106332
103375,106323
103433,106297
103488,106382
103432,106336
103436,106328
103359,106292
103370,106300
103463,106369
103378,106296
103380,106303
103303,106233
103325,106303
103389,106316
103426,106317
103334,106316
103281,106263
103302,106291
103411,106335
103407,106297
103390,106337
103341,106251
103391,106303
103488,106336
103447,106349
103466,106371
103405,106306
103501,106323
103566,106417
103556,106381
103592,106401
103505,106378
103595,106403
103705,106477
103681,106437
103717,106437
103675,106415
103726,106456
103858,106537
103822,106525
103836,106486
103799,106466
103902,106499
104014,106594
103952,106583
104001,106532
103953,106544
104043,106604
104159,106634
104163,106643
104127,106635
104132,106597
104198,106677
104314,106722
104319,106731
104322,106713
104269,106685
104343,106761
104496,106784
104461,106808
104453,106793
104408,106771
104498,106784
104633,106854
104586,106859
104610,106849
104539,106842
104624,106853
104759,106905
104723,106921
104746,106891
104680,106867
104771,106915
104885,106942
104858,106971
104826,106919
104819,106914
104885,106959
104947,107010
104971,106992
104934,107037
104869,106941
104984,107023
105060,107069
105066,107014
105045,107046
104993,106999
105087,107029
105190,107093
105153,107067
105155,107099
105070,107046
105187,107073
105274,107169
105233,107124
105216,107133
105172,107119
105271,107134
105308,107157
105319,107162
105314,107168
105244,107126
105346,107149
105397,107193
105380,107192
105403,107174
105298,107126
105410,107179
105497,107230
105414,107199
105471,107207
105380,107161
105448,107185
105565,107277
105509,107258
105529,107209
105466,107190
105519,107235
105651,107317
105604,107266
105603,107283
105504,107227
105641,107256
105712,107330
105660,107295
105677,107302
105593,107289
105696,107288
105790,107349
105725,107324
105734,107365
105651,107265
105732,107360
105836,107379
105824,107369
105792,107369
105768,107328
105796,107375
105908,107416
105912,107405
105899,107409
105801,107385
105911,107400
105986,107468
105982,107450
105947,107426
105905,107387
105986,107471
106078,107483
106051,107480
106087,107456
106024,107453
106057,107487
106130,107531
106140,107493
106181,107528
106054,107501
106148,107478
106201,107531
106110,107511
106066,107439
105900,107366
105875,107351
105863,107356
105745,107308
105545,107206
105350,107135
105319,107068
105217,107046
105027,106962
104848,106871
104631,106723
104544,106706
104444,106657
104214,106574
104072,106519
103779,106398
103716,106315
103616,106293
103417,106199
103248,106148
102999,106029
102944,105980
102850,105960
102656,105883
102457,105805
102284,105740
102232,105692
102224,105710
102094,105661
102034,105599
101859,105558
101871,105508
101939,105561
101858,105538
101794,105547
101724,105489
101781,105491
101906,105577
101845,105577
101846,105562
101840,105511
101919,105574
102054,105625
102047,105647
102046,105661
102036,105619
102127,105705
102290,105744
102258,105769
102320,105733
102247,105737
102390,105783
102501,105849
102491,105825
102518,105854
102485,105835
102634,105903
102662,105940
102693,105918
102710,105960
102662,105916
102788,105988
102861,106028
102910,106036
102911,106042
102873,106014
103005,106066
103083,106103
103078,106142
103091,106096
103112,106085
103159,106131
103261,106213
103244,106211
103224,106176
103184,106149
103297,106204
103338,106252
103309,106210
103348,106218
103248,106171
103353,106190
103401,106275
103339,106202
103316,106210
103289,106161
103334,106210
103369,106225
103375,106234
103364,106200
103226,106146
103327,106204
103364,106251
103320,106164
103307,106212
103198,106139
103264,106161
103347,106192
103295,106195
103287,106153
103217,106151
103288,106158
103352,106200
103283,106180
103322,106196
103286,106112
103314,106215
103386,106245
103363,106173
103365,106177
103325,106174
103429,106237
103449,106263
103458,106241
103460,106253
103366,106222
103489,106235
103613,106300
103539,106308
103573,106319
103525,106245
103633,106335
103683,106390
103709,106347
103718,106384
103657,106347
103773,106379
103837,106428
103872,106465
103848,106423
103815,106379
103937,106463
103992,106484
103975,106511
103984,106477
104003,106464
104044,106509
104175,106550
104136,106576
104166,106566
104173,106572
104252,106572
104345,106638
104333,106651
104327,106650
104298,106592
104396,106653
104478,106725
104484,106685
104485,106707
104417,106693
104544,106739
104643,106781
104587,106783
104615,106779
104573,106695
104662,106790
104760,106837
104703,106797
104729,106797
104692,106786
104766,106850
104883,106896
104844,106861
104848,106875
104784,106828
104902,106906
104965,106929
104943,106887
104982,106931
104878,106879
104992,106926
105062,106960
105018,106974
105045,106955
104970,106920
105064,106966
105132,107057
105139,107017
105106,106996
105081,106922
105202,107024
105228,107073
105204,107014
105206,107027
105191,106993
105283,107055
105301,107079
105326,107077
105301,107109
105262,107014
105339,107058
105420,107133
105376,107064
105406,107100
105315,107082
105427,107140
105477,107151
105437,107128
105480,107124
105375,107118
105494,107174
105567,107199
105538,107162
105523,107150
105518,107153
105584,107171
105675,107221
105620,107190
105642,107223
105542,107172
105673,107238
105746,107263
105745,107275
105705,107233
105692,107213
105762,107283
105821,107303
105825,107293
105778,107295
105732,107251
105848,107316
105925,107343
105856,107337
105898,107283
105802,107287
105930,107369
105996,107384
105955,107354
105960,107342
105922,107327
105985,107391
106059,107429
106070,107384
106065,107403
105992,107360
106125,107390
106186,107464
106158,107425
106155,107470
106098,107386
106199,107445
106272,107525
106231,107462
106242,107510
106196,107448
106315,107478
106329,107553
106296,107478
106273,107478
106104,107401
106109,107414
106106,107398
105953,107324
105838,107274
105589,107113
105553,107150
105495,107081
105295,107010
105157,106948
104925,106805
104903,106827
104779,106761
104605,106666
104408,106597
104181,106493
104132,106459
104065,106390
103895,106356
103710,106277
103483,106181
103439,106163
103378,106123
103176,106070
103057,105977
102853,105884
102857,105894
102749,105874
102644,105819
102548,105793
102390,105675
102444,105740
102410,105762
102320,105693
102318,105715
102187,105629
102278,105683
102294,105709
102293,105717
102247,105699
102242,105637
102353,105744
102399,105783
102454,105760
102445,105757
102417,105724
102591,105820
102626,105880
102621,105882
102692,105881
102647,105848
102819,105878
102873,105997
102884,105978
102901,105981
102904,105979
102981,106017
103096,106061
103136,106067
103112,106112
103099,106044
103248,106100
103324,106131
103334,106183
103323,106190
103295,106115
103438,106219
103530,106250
103496,106257
103525,106226
103512,106240
103618,106279
103701,106309
103649,106313
103684,106335
103602,106278
103734,106321
103776,106377
103726,106333
103754,106347
103675,106257
103784,106339
103802,106352
103796,106329
103755,106347
103689,106283
103759,106346
103824,106374
103769,106354
103721,106311
103655,106285
103733,106303
103746,106336
103711,106295
103683,106314
103604,106236
103692,106296
103690,106314
103632,106273
103661,106282
103565,106207
103643,106286
103694,106286
103602,106290
103615,106284
103543,106215
103607,106262
103681,106333
103605,106301
103597,106269
103575,106227
103690,106289
103668,106347
103667,106313
103653,106298
103628,106255
103741,106321
103762,106342
103737,106335
103767,106338
103730,106316
103826,106392
103906,106367
103882,106379
103861,106393
103834,106330
103909,106423
103996,106447
104009,106421
103987,106456
103954,106390
104083,106478
104143,106517
104139,106509
104112,106547
104098,106466
104216,106534
104244,106580
104255,106574
104237,106562
104263,106546
104362,106627
104430,106641
104405,106652
104377,106637
104363,106612
104469,106649
104535,106681
104531,106687
104532,106690
104502,106656
104604,106728
104623,106753
104661,106748
104621,106711
104608,106728
104704,106759
104757,106780
104770,106757
104717,106799
104724,106724
104811,106816
104863,106830
104857,106850
104810,106803
104812,106813
104896,106855
104940,106878
104890,106868
104939,106851
104877,106788
105019,106882
105050,106943
104987,106879
104981,106859
104965,106862
105097,106915
105093,106957
105076,106910
105079,106936
105046,106907
105136,106944
105159,106969
105157,106945
105150,106966
105110,106900
105157,106954
105237,107031
105229,106979
105241,106989
105148,106907
105255,106981
105294,107050
105269,106999
105224,106968
105231,106973
105294,107043
105336,107037
105280,107041
105295,106980
105221,106961
105366,107040
105379,107072
105328,107035
105329,107031
105268,106966
105396,107033
105369,107065
105418,107060
105380,107051
105334,107034
105437,107068
105504,107115
105421,107105
105423,107042
105370,107037
105461,107093
105486,107105
105471,107097
105439,107097
105415,107050
105507,107129
105522,107138
105472,107103
105519,107088
105464,107092
105565,107143
105588,107173
105563,107160
105528,107100
105552,107099
105624,107178
105657,107161
105628,107174
105622,107137
105576,107092
105731,107186
105713,107230
105687,107173
105657,107179
105571,107127
105631,107142
105591,107159
105462,107078
105360,107014
105207,106918
105200,106920
105060,106852
104908,106778
104701,106699
104500,106610
104455,106580
104326,106515
104108,106383
103894,106275
103719,106211
103604,106195
103433,106101
103231,105996
103036,105936
102831,105801
102727,105785
102582,105738
102347,105617
102195,105533
101994,105429
101905,105441
101846,105391
101609,105319
101480,105230
101307,105152
101294,105168
101254,105156
101136,105098
101112,105047
101016,105012
101077,105072
101074,105058
100999,105072
101051,105011
100999,105024
101109,105080
101168,105089
101164,105109
101143,105114
101162,105074
101304,105182
101358,105175
101353,105175
101361,105181
101368,105150
101494,105289
101582,105254
101549,105308
101550,105256
101575,105251
101703,105369
101729,105334
101741,105365
101721,105372
101699,105349
101833,105410
101884,105464
101876,105464
101877,105413
101873,105450
102004,105475
102021,105533
102044,105521
102051,105491
102062,105506
102187,105568
102173,105600
102230,105603
102194,105566
102205,105547
102284,105637
102314,105652
102309,105657
102297,105651
102207,105571
102338,105628
102341,105678
102320,105628
102280,105619
102234,105600
102311,105615
102324,105662
102271,105601
102228,105591
102183,105553
102285,105595
102300,105644
102208,105602
102186,105562
102142,105537
102183,105587
102199,105596
102144,105523
102096,105549
102031,105488
102156,105536
102134,105524
102101,105521
102030,105496
102004,105446
102093,105541
102104,105521
102063,105526
102018,105512
101991,105487
102114,105532
102169,105569
102147,105556
102098,105531
102075,105481
102215,105579
102219,105597
102219,105563
102232,105586
102224,105550
102325,105655
102345,105640
102365,105635
102336,105628
102309,105607
102486,105715
102494,105694
102523,105717
102477,105694
102512,105679
102636,105763
102642,105787
102670,105797
102682,105793
102665,105762
102797,105834
102815,105902
102853,105901
102842,105858
102844,105869
102976,105905
103021,105994
103047,105951
103040,105967
103055,105959
103169,105996
103231,106067
103223,106061
103228,106018
103262,106032
103378,106124
103389,106143
103404,106113
103422,106130
103424,106104
103564,106200
103610,106197
103585,106245
103598,106176
103603,106234
103704,106270
103756,106283
103732,106278
103768,106258
103716,106274
103866,106295
103896,106377
103879,106320
103900,106364
103877,106344
103989,106404
104004,106388
103965,106405
103985,106392
103959,106373
104089,106429
104092,106478
104091,106407
104070,106392
104080,106386
104180,106484
104165,106484
104170,106451
104133,106476
104129,106455
104242,106487
104273,106518
104244,106492
104212,106488
104171,106454
104288,106523
104298,106527
104307,106537
104253,106525
104236,106472
104390,106569
104397,106585
104336,106535
104323,106560
104303,106501
104452,106602
104431,106587
104431,106595
104376,106568
104335,106532
104492,106621
104469,106637
104446,106575
104404,106576
104400,106550
104500,106639
104524,106624
104464,106614
104458,106605
104449,106568
104564,106650
104561,106662
104531,106651
104532,106623
104514,106628
104571,106653
104617,106681
104624,106671
104536,106649
104570,106620
104648,106717
104695,106743
104639,106716
104624,106669
104624,106652
104700,106726
104749,106748
104739,106724
104656,106710
104644,106695
104784,106759
104792,106749
104775,106737
104724,106723
104751,106720
104867,106753
104880,106803
104811,106795
104839,106748
104818,106748
104850,106805
104876,106795
104825,106771
104738,106681
104639,106646
104630,106646
104520,106606
104427,106530
104259,106435
104056,106357
104034,106342
103843,106280
103629,106149
103412,106051
103230,105949
103120,105927
102937,105856
102690,105714
102459,105624
102274,105498
102123,105451
101946,105395
101723,105268
101492,105168
101323,105076
101192,105070
101065,104994
100878,104886
100674,104811
100563,104723
100499,104748
100429,104690
100360,104676
100216,104600
100190,104556
100276,104632
100242,104608
100231,104611
100197,104597
100238,104589
100301,104675
100358,104681
100389,104660
100413,104683
100434,104720
100549,104762
100622,104807
100660,104831
100631,104805
100675,104795
100850,104944
100894,104935
100918,104937
100923,104921
100994,104963
101095,105020
101174,105071
101205,105056
101145,105078
101243,105040
101317,105175
101344,105167
101416,105175
101396,105177
101421,105143
101549,105241
101605,105275
101576,105269
101623,105236
101647,105299
101759,105354
101742,105368
101832,105353
101806,105359
101813,105352
101968,105432
101965,105449
101927,105431
101957,105409
101962,105431
102103,105482
102042,105510
102057,105497
102005,105432
102014,105440
102074,105455
102111,105494
102078,105492
102025,105447
101995,105470
102125,105508
102095,105528
102089,105461
102045,105465
101991,105401
102062,105522
102051,105478
102006,105472
101975,105393
102013,105430
102085,105513
102055,105472
102004,105456
101981,105426
101983,105440
102068,105468
102068,105491
102030,105491
101986,105407
102045,105451
102107,105499
102142,105511
102145,105501
102076,105502
102119,105463
102217,105603
102253,105578
102288,105564
102227,105533
102274,105594
102402,105645
102389,105657
102433,105672
102398,105632
102455,105639
102564,105733
102592,105735
102633,105733
102613,105725
102627,105733
102784,105839
102768,105815
102813,105815
102815,105813
102836,105835
103007,105897
102999,105919
103028,105935
102993,105890
103033,105940
103134,105956
103182,105976
103153,105993
103136,105972
103179,105994
103260,106019
103288,106053
103240,106036
103263,106025
103259,106037
103342,106117
103368,106108
103407,106125
103317,106074
103378,106089
103514,106139
103470,106155
103480,106171
103417,106104
103482,106110
103615,106209
103594,106215
103626,106184
103567,106193
103590,106145
103725,106264
103745,106258
103739,106245
103687,106228
103753,106265
103857,106278
103873,106327
103847,106325
103808,106282
103889,106293
103986,106407
103964,106365
104011,106397
103939,106373
103969,106367
104075,106443
104103,106411
104118,106459
104047,106385
104099,106404
104164,106503
104187,106459
104177,106486
104108,106403
104193,106462
104295,106524
104240,106521
104306,106521
104242,106460
104208,106504
104329,106505
104320,106517
104319,106544
104250,106495
104296,106496
104380,106565
104404,106546
104412,106554
104339,106527
104361,106531
104509,106599
104472,106622
104454,106576
104391,106588
104461,106584
104549,106626
104572,106633
104515,106607
104481,106586
104478,106600
104610,106653
104565,106664
104548,106640
104518,106591
104536,106635
104618,106692
104619,106647
104560,106667
104527,106600
104535,106605
104680,106705
104648,106711
104660,106651
104591,106641
104580,106647
104684,106721
104692,106682
104633,106671
104609,106642
104657,106643
104741,106741
104695,106713
104729,106714
104694,106673
104649,106660
104784,106756
104766,106741
104720,106708
104659,106673
104660,106646
104695,106681
104628,106654
104481,106584
104329,106479
104248,106479
104206,106417
104054,106355
103839,106265
103659,106129
103472,106102
103374,106027
103181,105972
102971,105830
102738,105722
102522,105606
102469,105604
102197,105517
101987,105393
101723,105268
101550,105171
101444,105124
101278,105039
101048,105011
100810,104835
100715,104768
100635,104812
100489,104687
100372,104683
100225,104571
100150,104535
100207,104600
100166,104549
100114,104564
100021,104482
100068,104490
100161,104576
100168,104574
100162,104547
100171,104560
100205,104597
100359,104656
100375,104635
100392,104676
100385,104653
100496,104726
100583,104805
100610,104797
100599,104791
100616,104776
100727,104836
100817,104919
100880,104866
100852,104919
100828,104896
100882,104864
100990,104976
100985,104986
100970,104958
100985,104906
101004,105001
101127,105048
101135,105031
101111,105011
101090,104974
101144,104991
101259,105091
101259,105076
101242,105071
101222,105039
101257,105087
101360,105138
101324,105127
101346,105121
101328,105070
101291,105096
101392,105176
101373,105098
101367,105121
101294,105048
101267,105071
101333,105100
101330,105088
101277,105084
101213,105020
101247,105027
101281,105065
101237,105077
101168,105025
101128,104983
101156,104968
101165,105047
101108,104999
101063,104957
101026,104921
101001,104942
101052,104982
100997,104932
100929,104916
100897,104886
100875,104839
100950,104916
100953,104897
100880,104891
100794,104811
100881,104884
100904,104922
100876,104883
100837,104878
100841,104808
100820,104886
100935,104922
100894,104866
100905,104904
100887,104866
100899,104879
101012,104952
101003,104956
101008,104971
100961,104903
101031,104965
101113,105026
101115,104995
101110,105000
101113,104986
101167,104987
101260,105086
101239,105066
101238,105043
101238,105024
101265,105058
101403,105122
101419,105137
101375,105152
101350,105047
101421,105167
101533,105197
101501,105173
101501,105211
101478,105136
101549,105221
101638,105267
101632,105228
101661,105273
101621,105193
101667,105274
101797,105324
101753,105320
101769,105296
101736,105260
101771,105307
101910,105379
101837,105352
101858,105369
101825,105264
101910,105346
101970,105419
101928,105403
101905,105357
101873,105325
101911,105352
102034,105418
101975,105415
101958,105386
101904,105371
101971,105374
102009,105443
101980,105424
101991,105389
101893,105338
101939,105401
102046,105441
102020,105419
101993,105415
101939,105371
101977,105404
102051,105454
102062,105437
102063,105414
101957,105360
102065,105427
102116,105475
102079,105446
102103,105487
102013,105435
102131,105461
102174,105507
102127,105499
102140,105460
102106,105484
102197,105482
102288,105548
102252,105515
102265,105539
102156,105484
102210,105544
102329,105571
102287,105521
102279,105560
102232,105494
102289,105534
102391,105600
102354,105568
102311,105599
102258,105504
102328,105567
102419,105607
102348,105564
102348,105557
102285,105526
102362,105548
102418,105607
102407,105620
102361,105600
102309,105500
102384,105576
102417,105627
102418,105614
102382,105598
102352,105546
102403,105557
102489,105650
102482,105633
102437,105618
102414,105608
102491,105605
102561,105656
102533,105658
102495,105655
102504,105626
102565,105649
102623,105727
102623,105701
102632,105694
102542,105678
102653,105709
102713,105735
102705,105761
102696,105712
102644,105725
102767,105764
102866,105793
102768,105778
102810,105768
102705,105756
102772,105726
102782,105759
102699,105712
102576,105642
102390,105550
102382,105511
102303,105510
102050,105364
101892,105276
101594,105167
101466,105085
101376,105041
101074,104899
100850,104784
100578,104628
100403,104614
100248,104489
100020,104429
99809,104312
99557,104165
99395,104138
99266,104025
99098,103989
98917,103895
98727,103786
98686,103787
98693,103790
98555,103716
98518,103687
98381,103657
98460,103648
98527,103720
98454,103652
98477,103689
98435,103686
98499,103692
98625,103751
98589,103778
98655,103770
98632,103778
98770,103819
98917,103911
98896,103930
99001,103956
98976,103954
99079,103993
99208,104055
99222,104071
99281,104088
99228,104071
99362,104132
99491,104196
99466,104208
99502,104187
99472,104228
99561,104256
99710,104297
99690,104335
99680,104302
99715,104270
99759,104353
99863,104378
99883,104369
99910,104433
99871,104344
99991,104445
100079,104478
100058,104471
100070,104464
100073,104483
100146,104510
100230,104580
100231,104593
100245,104550
100223,104559
100290,104611
100355,104639
100351,104629
100321,104615
100319,104548
100400,104619
100419,104666
100403,104623
100367,104619
100323,104596
100355,104618
100457,104652
100371,104639
100348,104598
100334,104577
100404,104597
100410,104678
100356,104593
100383,104605
100302,104567
100335,104589
100392,104650
100360,104607
100311,104627
100292,104545
100332,104622
100390,104635
100371,104604
100319,104615
100295,104562
100370,104599
100419,104676
100405,104621
100392,104666
100355,104585
100448,104661
100508,104723
100468,104665
100478,104684
100448,104691
100543,104714
100587,104777
100615,104715
100655,104747
100607,104732
100699,104764
100743,104859
100737,104799
100805,104830
100767,104820
100873,104862
100964,104946
100964,104928
100985,104914
100948,104896
101024,104964
101151,105003
101143,105011
101177,105032
101188,104994
101261,105088
101337,105079
101380,105124
101358,105115
101354,105094
101494,105146
101542,105235
101522,105188
101566,105221
101569,105169
101634,105265
101736,105292
101723,105257
101767,105320
101707,105237
101815,105340
101887,105372
101864,105364
101903,105348
101889,105342
101985,105419
102001,105389
101998,105415
102036,105444
102001,105374
102137,105484
102156,105493
102188,105490
102162,105476
102110,105469
102209,105506
102297,105570
102271,105544
102298,105541
102256,105496
102354,105563
102405,105633
102405,105591
102398,105607
102358,105581
102472,105617
102574,105698
102524,105667
102551,105636
102495,105603
102615,105714
102648,105689
102625,105704
102644,105722
102626,105648
102693,105740
102791,105786
102752,105772
102756,105750
102684,105737
102772,105788
102868,105850
102822,105803
102817,105810
102787,105728
102873,105831
102909,105829
102913,105858
102887,105830
102844,105777
102914,105852
103026,105905
102950,105864
102997,105880
102889,105793
103070,105900
103110,105919
103058,105945
103020,105877
103005,105879
103072,105909
103136,105949
103118,105910
103154,105959
103056,105886
103173,105946
103201,105985
103214,105996
103163,105940
103180,105946
103256,106021
103294,106007
103288,106008
103277,106026
103236,105939
103340,106015
103411,106081
103372,106024
103377,106041
103291,106004
103470,106076
103478,106109
103500,106076
103468,106128
103447,106087
103549,106142
103574,106184
103539,106147
103520,106081
103412,106053
103487,106059
103451,106075
103313,105987
103214,105942
102992,105813
103001,105823
102853,105755
102645,105705
102492,105550
102233,105468
102181,105398
102000,105357
101744,105237
101579,105161
101276,104996
101212,104979
100975,104880
100792,104806
100597,104683
100339,104546
100253,104541
100141,104501
99963,104429
99817,104330
99619,104255
99641,104254
99581,104258
99461,104187
99414,104178
99328,104127
99380,104129
99425,104195
99358,104172
99393,104121
99341,104141
99505,104194
99549,104246
99518,104239
99582,104219
99587,104230
99735,104329
99796,104357
99824,104375
99856,104379
99853,104397
99984,104431
100137,104530
100120,104532
100129,104540
100151,104541
100266,104589
100378,104656
100399,104677
100419,104639
100392,104632
100602,104745
100614,104760
100646,104756
100670,104785
100629,104749
100780,104851
100852,104858
100885,104897
100916,104882
100931,104885
101058,104927
101083,105027
101116,104994
101161,104992
101107,105013
101225,105032
101297,105099
101270,105085
101305,105087
101236,105057
101326,105058
101389,105158
101311,105090
101346,105112
101269,105068
101415,105096
101365,105147
101357,105079
101354,105075
101304,105072
101352,105095
101378,105144
101331,105095
101274,105061
101226,105010
101297,105080
101337,105100
101299,105062
101228,105045
101205,105020
101274,105045
101279,105071
101200,105055
101183,105023
101139,104957
101213,105049
101208,105066
101215,105047
101213,105017
101118,104990
101253,105052
101265,105062
101274,105080
101233,105046
101218,105006
101270,105091
101348,105130
101309,105128
101286,105079
101303,105097
101375,105112
101456,105180
101454,105141
101419,105131
101399,105108
101567,105214
101564,105221
101579,105238
101604,105204
101538,105213
101690,105248
101705,105297
101745,105314
101765,105283
101706,105276
101804,105313
101859,105396
101854,105331
101869,105375
101821,105305
101979,105429
101995,105434
102032,105425
101970,105410
102013,105410
102109,105438
102143,105479
102146,105486
102099,105463
102127,105435
102251,105556
102269,105523
102251,105528
102263,105542
102271,105511
102358,105607
102439,105630
102388,105602
102390,105600
102342,105577
102488,105617
102502,105667
102509,105651
102517,105619
102474,105648
102568,105663
102604,105701
102598,105728
102567,105686
102562,105627
102700,105763
102688,105746
102666,105718
102676,105744
102604,105707
102752,105733
102738,105766
102721,105758
102684,105730
102712,105717
102747,105792
102762,105798
102771,105770
102743,105776
102697,105747
102846,105780
102836,105808
102803,105814
102797,105779
102751,105734
102829,105805
102862,105852
102839,105804
102813,105787
102811,105770
102901,105839
102895,105864
102852,105833
102827,105781
102828,105763
102883,105872
102913,105848
102889,105844
102865,105788
102862,105798
102901,105831
102957,105850
102920,105857
102863,105791
102830,105758
102918,105870
102919,105862
102953,105843
102903,105825
102866,105810
102984,105865
102963,105877
102940,105893
102935,105816
102898,105837
103044,105902
103031,105898
103007,105901
102955,105860
102948,105836
103070,105951
103075,105942
103080,105921
103012,105867
103040,105885
103084,105962
103124,105936
103057,105901
102995,105852
102962,105805
102959,105871
102902,105782
102761,105771
102647,105682
102463,105579
102417,105545
102241,105476
102063,105424
101829,105278
101591,105155
101460,105104
101307,105007
101055,104921
100788,104759
100557,104634
100438,104600
100231,104532
100017,104457
99772,104266
99594,104225
99520,104205
99326,104126
99201,104059
99055,103961
98928,103891
98906,103908
98895,103906
98770,103853
98757,103842
98676,103809
98824,103835
98836,103879
98810,103842
98826,103867
98821,103870
98897,103927
98975,103943
98973,103980
99021,103968
99070,103985
99167,104039
99218,104081
99274,104139
99244,104103
99320,104081
99441,104208
99487,104235
99553,104215
99558,104241
99568,104236
99756,104349
99782,104373
99780,104358
99810,104350
99851,104339
99941,104446
100028,104459
99969,104470
100022,104467
99996,104452
100165,104551
100148,104537
100209,104545
100155,104559
100237,104566
100345,104595
100377,104659
100361,104669
100397,104628
100381,104636
100532,104737
100516,104703
100530,104717
100482,104675
100501,104646
100589,104743
100617,104737
100579,104745
100551,104695
100546,104726
100615,104714
100623,104754
100560,104705
100540,104702
100535,104704
100580,104705
100567,104758
100538,104708
100484,104641
100427,104628
100523,104704
100511,104715
100452,104627
100403,104615
100410,104602
100450,104693
100421,104652
100424,104656
100364,104600
100344,104593
100407,104635
100449,104652
100382,104662
100345,104586
100369,104576
100399,104650
100469,104669
100404,104659
100412,104609
100408,104641
100520,104689
100533,104709
100499,104668
100519,104665
100485,104696
100596,104736
100614,104746
100599,104737
100625,104716
100597,104754
100715,104762
100733,104827
100701,104797
100690,104797
100757,104775
100798,104829
100874,104860
100836,104876
100844,104852
100902,104837
101004,104941
100974,104944
101020,104942
101001,104930
101048,104949
101124,105008
101167,105032
101110,104979
101186,104972
101167,105010
101278,105081
101318,105104
101329,105068
101321,105060
101310,105047
101451,105145
101460,105123
101450,105156
101411,105111
101480,105157
101556,105191
101603,105201
101585,105178
101567,105152
101528,105163
101642,105243
101732,105249
101683,105260
101653,105216
101648,105188
101754,105306
101799,105282
101782,105256
101738,105274
101737,105241
101838,105347
101885,105343
101844,105298
101840,105282
101839,105318
101920,105363
101951,105380
101945,105363
101886,105347
101882,105306
102029,105407
102027,105401
101988,105393
101959,105350
101985,105369
102087,105429
102074,105435
102076,105434
102020,105404
102054,105385
102120,105462
102098,105440
102120,105473
102085,105412
102119,105433
102185,105515
102209,105479
102195,105488
102137,105446
102165,105464
102318,105551
102275,105534
102302,105538
102223,105497
102264,105474
102354,105573
102411,105579
102374,105526
102317,105554
102343,105500
102440,105603
102472,105612
102437,105589
102391,105541
102391,105536
102527,105648
102509,105646
102486,105595
102465,105586
102496,105589
102542,105690
102539,105639
102580,105654
102533,105597
102519,105651
102594,105681
102656,105661
102605,105711
102574,105636
102589,105671
102720,105706
102739,105756
102680,105676
102679,105707
102683,105671
102815,105750
102793,105758
102795,105744
102778,105720
102750,105758
102822,105793
102779,105728
102744,105747
102620,105646
102527,105594
102550,105601
102400,105539
102214,105489
102009,105359
101887,105240
101776,105202
101557,105153
101321,105003
101049,104866
100816,104726
100699,104695
100446,104628
100191,104435
99942,104328
99737,104257
99587,104192
99419,104123
99209,103991
99001,103902
98883,103818
98806,103820
98665,103771
98592,103702
98448,103654
98404,103590
98485,103674
98412,103650
98414,103633
98363,103602
98354,103602
98486,103689
98504,103681
98530,103660
98471,103669
98537,103696
98672,103762
98721,103791
98718,103801
98722,103796
98782,103819
98900,103899
98958,103902
98991,103916
98956,103909
99024,103936
99168,104002
99179,104034
99186,104023
99164,104015
99239,104031
99353,104101
99358,104115
99390,104116
99374,104070
99384,104148
99491,104156
99516,104181
99500,104172
99467,104140
99549,104170
99642,104249
99653,104233
99658,104271
99621,104245
99700,104234
99830,104336
99786,104335
99822,104326
99768,104279
99861,104312
99910,104384
99935,104364
99901,104376
99881,104314
99902,104347
99925,104416
99958,104350
99896,104356
99886,104328
99881,104328
99924,104349
99919,104372
99853,104320
99837,104285
99825,104282
99885,104375
99856,104297
99810,104320
99763,104247
99758,104245
99794,104329
99813,104316
99755,104283
99719,104206
99729,104285
99811,104341
99795,104259
99739,104292
99687,104203
99734,104274
99794,104302
99836,104281
99749,104301
99741,104241
99824,104279
99888,104345
99878,104358
99840,104320
99838,104277
99909,104316
99993,104421
99972,104398
99984,104366
99987,104334
100024,104384
100147,104475
100129,104453
100133,104450
100128,104428
100209,104490
100272,104585
100298,104567
100328,104538
100285,104550
100359,104594
100419,104634
100507,104607
100490,104649
100471,104623
100555,104660
100614,104726
100673,104718
100657,104731
100668,104695
100741,104734
100824,104805
100854,104808
100840,104814
100874,104763
100914,104804
101013,104899
101004,104884
101054,104864
101011,104898
101087,104865
101172,104969
101162,104956
101155,104970
101159,104925
101192,104957
101320,105011
101320,104999
101307,105013
101287,105005
101355,105018
101459,105102
101419,105067
101406,105070
101419,105020
101457,105101
101520,105126
101559,105123
101522,105149
101495,105067
101572,105142
101668,105196
101629,105148
101643,105188
101559,105146
101646,105157
101758,105247
101717,105227
101680,105227
101654,105139
101747,105244
101805,105274
101807,105216
101827,105257
101737,105230
101820,105227
101923,105344
101885,105278
101889,105277
101827,105263
101916,105261
102026,105363
101951,105314
101956,105329
101936,105297
101981,105329
102099,105387
102075,105356
102028,105376
101972,105307
102124,105356
102152,105424
102179,105408
102145,105448
102090,105338
102190,105411
102277,105445
102265,105464
102232,105471
102203,105405
102273,105479
102389,105534
102361,105512
102407,105495
102288,105504
102408,105499
102515,105596
102470,105541
102470,105556
102441,105515
102497,105585
102605,105642
102586,105614
102606,105638
102536,105570
102658,105595
102705,105701
102708,105648
102705,105669
102655,105635
102704,105661
102846,105707
102781,105751
102792,105693
102759,105691
102864,105701
102909,105778
102898,105795
102888,105770
102891,105726
102958,105804
103024,105821
103046,105825
102996,105807
103009,105780
103054,105828
103176,105886
103123,105882
103154,105866
103099,105859
103215,105891
103308,105932
103254,105906
103247,105918
103131,105853
103183,105889
103202,105884
103065,105804
103006,105757
102820,105656
102760,105635
102717,105639
102507,105562
102325,105395
102105,105325
101990,105247
101843,105212
101579,105076
101344,104982
101086,104800
100932,104753
100805,104700
100525,104592
100333,104479
100091,104347
99972,104339
99818,104264
99611,104207
99474,104108
99278,104019
99228,103959
99263,103991
99088,103940
99048,103885
98969,103844
98985,103889
99040,103870
99048,103881
99002,103880
98985,103833
99116,103876
99168,103982
99168,103920
99199,103976
99177,103937
99299,103997
99427,104111
99411,104069
99443,104075
99426,104086
99567,104144
99669,104192
99640,104212
99717,104217
99672,104172
99796,104237
99884,104312
99860,104303
99907,104301
99877,104262
100014,104336
100047,104442
100069,104384
100106,104392
100063,104360
100151,104440
100210,104475
100240,104485
100244,104467
100200,104446
100304,104492
100371,104559
100402,104560
100378,104542
100339,104536
100433,104579
100557,104610
100517,104627
100516,104604
100522,104578
100571,104642
100671,104675
100628,104645
100578,104663
100533,104556
100613,104646
100642,104643
100581,104657
100592,104636
100536,104558
100580,104612
100575,104612
100559,104630
100519,104590
100411,104515
100475,104570
100511,104611
100446,104540
100403,104539
100319,104473
100397,104514
100381,104508
100371,104533
100297,104483
100223,104434
100318,104492
100319,104515
100305,104473
100292,104495
100208,104392
100281,104475
100371,104504
100292,104486
100272,104495
100255,104422
100332,104509
100373,104547
100373,104536
100346,104500
100321,104496
100394,104524
100484,104572
100441,104567
100455,104558
100381,104501
100534,104575
100575,104664
100551,104595
100571,104595
100536,104579
100593,104641
100705,104673
100647,104691
100662,104650
100651,104618
100750,104710
100838,104724
100817,104765
100801,104721
100787,104682
100916,104786
100948,104820
100969,104808
100928,104818
100946,104798
101039,104839
101123,104880
101080,104880
101142,104899
101059,104862
101187,104901
101248,104950
101233,104926
101262,104964
101191,104894
101329,104950
101392,105042
101341,104954
101391,104991
101319,104973
101470,105025
101479,105063
101509,105033
101500,105091
101408,104999
101545,105078
101624,105093
101608,105119
101553,105091
101538,105063
101674,105136
101690,105139
101678,105141
101665,105126
101658,105115
101752,105180
101761,105189
101766,105198
101762,105172
101745,105145
101817,105233
101862,105217
101813,105210
101860,105237
101805,105168
101933,105253
101946,105255
101963,105271
101955,105255
101872,105218
101980,105252
102062,105360
101987,105291
102034,105290
102000,105269
102099,105333
102153,105368
102123,105354
102084,105330
102057,105330
102172,105358
102202,105399
102186,105369
102222,105364
102114,105346
102239,105410
102285,105447
102263,105427
102266,105411
102202,105391
102337,105451
102379,105472
102340,105444
102321,105455
102292,105411
102410,105501
102472,105493
102407,105513
102433,105497
102353,105461
102496,105498
102517,105551
102512,105518
102514,105517
102398,105490
102556,105525
102595,105587
102562,105556
102571,105542
102504,105559
102634,105547
102636,105632
102651,105631
102613,105619
102578,105557
102741,105636
102737,105658
102740,105653
102786,105629
102696,105622
102815,105655
102867,105705
102840,105694
102821,105675
102830,105644
102915,105744
102948,105719
102923,105717
102889,105708
102842,105636
102882,105707
102849,105720
102746,105610
102666,105581
102491,105437
102451,105480
102357,105465
102169,105306
102004,105237
101740,105093
101637,105060
101463,105029
101239,104874
101023,104744
100748,104626
100668,104586
100464,104528
100259,104406
100063,104328
99813,104201
99730,104174
99622,104147
99465,104042
99276,103969
99135,103897
99176,103907
99072,103903
99047,103842
98966,103797
98919,103770
99012,103820
98998,103867
98981,103826
99004,103821
98972,103807
99111,103901
99187,103914
99144,103909
99198,103930
99221,103939
99324,103980
99413,104043
99431,104069
99458,104050
99473,104061
99612,104125
99708,104206
99691,104193
99727,104190
99729,104191
99850,104264
99916,104265
99947,104325
99977,104304
99948,104296
100048,104364
100136,104385
100092,104418
100124,104394
100067,104340
100223,104445
100274,104464
100244,104487
100259,104484
100254,104429
100375,104520
100396,104537
100404,104508
100417,104557
100405,104505
100520,104596
100597,104622
100529,104609
100574,104612
100517,104585
100653,104627
100646,104642
100620,104630
100638,104612
100584,104616
100645,104641
100709,104679
100627,104662
100610,104598
100563,104568
100658,104631
100646,104622
100583,104596
100558,104601
100515,104540
100588,104588
100573,104547
100549,104567
100485,104542
100395,104506
100517,104559
100495,104552
100465,104537
100405,104517
100364,104446
100443,104545
100451,104490
100426,104512
100374,104492
100280,104434
100417,104519
100415,104512
100408,104516
100417,104480
100318,104502
100427,104510
100484,104561
100407,104532
100407,104533
100394,104472
100556,104583
100543,104556
100519,104589
100526,104583
100490,104520
100630,104629
100630,104647
100658,104644
100590,104622
100647,104593
100711,104694
100779,104696
100754,104668
100745,104714
100767,104648
100874,104777
100948,104752
100913,104779
100933,104738
100923,104742
101054,104793
101062,104794
101085,104832
101063,104792
101074,104848
101167,104887
101221,104892
101238,104907
101200,104921
101187,104894
101316,104936
101333,104956
101342,104967
101331,104973
101334,104925
101407,105015
101472,105029
101459,104996
101434,104992
101420,104989
101523,105052
101558,105063
101552,105086
101548,105044
101525,105031
101626,105076
101643,105114
101663,105123
101631,105102
101594,105085
101739,105139
101729,105156
101724,105162
101732,105139
101711,105122
101804,105186
101829,105205
101825,105214
101808,105192
101781,105153
101926,105240
101935,105256
101917,105247
101886,105211
101873,105202
101998,105278
102008,105268
101948,105254
101964,105238
101919,105214
102074,105320
102064,105312
102046,105281
102006,105277
101991,105272
102097,105296
102133,105328
102119,105331
102098,105316
102085,105318
102205,105369
102208,105367
102209,105371
102179,105337
102143,105338
102274,105391
102275,105403
102297,105406
102249,105370
102230,105379
102360,105429
102373,105466
102367,105440
102338,105446
102313,105415
102447,105469
102474,105518
102464,105483
102428,105474
102412,105469
102499,105496
102553,105538
102522,105511
102471,105485
102459,105488
102597,105563
102605,105564
102580,105555
102551,105527
102579,105533
102661,105588
102691,105587
102642,105572
102606,105563
102621,105553
102713,105610
102749,105615
102716,105612
102705,105597
102716,105577
102808,105641
102864,105664
102816,105658
102812,105639
102817,105629
102937,105731
102959,105716
102903,105688
102907,105695
102931,105686
102999,105736
103030,105757
103033,105750
103008,105730
102998,105708
103049,105778
103057,105766
102984,105722
102863,105643
102818,105606
102766,105632
102684,105564
102531,105472
102291,105357
102167,105291
102082,105250
101865,105174
101617,105035
101400,104923
101192,104795
101044,104775
100847,104675
100641,104589
100352,104441
100169,104345
100088,104342
99910,104257
99687,104159
99534,104037
99391,103987
99384,103998
99251,103952
99155,103862
99090,103850
99036,103801
99108,103860
99095,103861
99059,103838
99001,103802
99043,103821
99161,103888
99179,103909
99206,103923
99209,103917
99239,103912
99370,104019
99408,104045
99430,104046
99473,104049
99530,104074
99641,104160
99689,104185
99712,104210
99744,104184
99774,104215
99929,104294
99979,104308
99961,104291
99958,104294
100028,104318
100145,104390
100155,104411
100183,104406
100180,104395
100217,104398
100311,104478
100362,104515
100372,104511
100305,104468
100379,104485
100501,104563
100519,104576
100520,104575
100501,104569
100573,104573
100693,104662
100658,104667
100707,104676
100703,104640
100710,104653
100823,104716
100859,104753
100870,104740
100824,104695
100823,104699
100946,104789
100974,104781
100896,104758
100850,104711
100865,104721
100978,104786
100932,104787
100904,104768
100870,104728
100877,104717
100909,104763
100931,104768
100890,104738
100827,104695
100829,104687
100887,104754
100885,104754
100879,104737
100761,104678
100806,104700
100854,104749
100864,104760
100832,104720
100762,104657
100799,104692
100891,104716
100847,104728
100828,104702
100790,104700
100823,104691
100915,104760
100935,104766
100882,104767
100854,104709
100938,104741
100998,104797
101041,104830
101029,104792
100993,104785
101046,104782
101174,104851
101153,104885
101166,104885
101171,104828
101168,104866
101310,104965
101320,104955
101340,104932
101306,104961
101358,104947
101460,105035
101480,105012
101497,105044
101499,105037
101515,105032
101648,105142
101645,105127
101669,105122
101656,105109
101691,105143
101807,105204
101838,105178
101879,105233
101813,105206
101868,105186
101975,105292
101995,105275
101999,105270
101974,105247
102014,105279
102141,105354
102146,105369
102141,105329
102124,105337
102144,105319
102249,105384
102291,105423
102222,105371
102227,105363
102249,105426
102368,105425
102398,105460
102329,105444
102306,105423
102414,105454
102472,105530
102452,105490
102470,105486
102419,105446
102465,105462
102579,105550
102545,105532
102551,105524
102530,105522
102571,105537
102637,105540
102634,105564
102604,105540
102609,105528
102632,105584
102710,105603
102677,105607
102696,105591
102654,105582
102655,105542
102778,105672
102766,105625
102735,105636
102722,105571
102729,105600
102818,105665
102819,105651
102806,105652
102755,105600
102799,105631
102869,105732
102876,105672
102839,105668
102836,105630
102845,105668
102971,105750
102911,105693
102939,105714
102886,105654
102921,105711
103036,105767
103039,105749
103008,105727
102994,105713
103051,105764
103099,105832
103071,105777
103116,105785
103069,105738
103084,105809
103183,105833
103191,105813
103143,105799
103154,105778
103193,105837
103247,105864
103246,105848
103254,105859
103189,105834
103245,105841
103361,105905
103305,105931
103319,105860
103273,105828
103322,105901
103419,105939
103361,105881
103371,105932
103297,105857
103368,105898
103477,105971
103427,105956
103426,105918
103384,105901
103402,105950
103506,105963
103546,105981
103471,105975
103417,105943
103500,105988
103565,105997
103560,106016
103608,105993
103521,105958
103593,105981
103672,106068
103631,106062
103638,106047
103557,105964
103584,106008
103590,106026
103471,105945
103417,105957
103243,105831
103216,105790
103163,105774
102921,105718
102784,105593
102550,105457
102431,105420
102279,105350
102030,105279
101837,105141
101515,104997
101368,104941
101241,104868
101004,104771
100775,104638
100550,104526
100366,104503
100276,104418
100087,104337
99897,104241
99700,104113
99674,104129
99649,104143
99511,104073
99480,104033
99325,103973
99355,103990
99424,104004
99374,103993
99324,103962
99309,103969
99408,103986
99462,104069
99446,104022
99470,104065
99480,104025
99551,104104
99645,104145
99686,104144
99663,104156
99682,104132
99756,104201
99868,104239
99863,104263
99877,104237
99900,104247
99956,104300
100048,104357
100083,104316
100093,104349
100067,104305
100122,104388
100217,104437
100250,104441
100229,104423
100189,104398
100313,104442
100396,104509
100362,104497
100357,104479
100339,104464
100398,104510
100494,104552
100502,104577
100478,104548
100475,104532
100525,104568
100655,104638
100631,104601
100613,104633
100595,104579
100656,104600
100732,104643
100693,104672
100686,104658
100616,104599
100679,104634
100735,104656
100733,104680
100668,104610
100609,104613
100691,104610
100729,104694
100644,104617
100616,104643
100546,104569
100592,104580
100658,104595
100597,104625
100597,104576
100468,104536
100546,104567
100604,104589
100554,104585
100511,104527
100444,104517
100522,104543
100584,104609
100484,104534
100482,104541
100458,104485
100494,104546
100569,104604
100508,104537
100511,104547
100450,104510
100551,104574
100568,104613
100558,104563
100551,104573
100528,104538
100567,104553
100700,104637
100627,104636
100651,104637
100614,104597
100736,104638
100793,104676
100805,104732
100819,104725
100783,104652
100902,104728
100977,104785
100909,104753
100945,104773
100917,104710
101025,104827
101089,104842
101124,104830
101134,104819
101105,104819
101181,104851
101295,104950
101285,104928
101291,104948
101247,104886
101375,104942
101459,105025
101419,104978
101464,104991
101388,104954
101508,105009
101603,105068
101538,105085
101556,105095
101517,105005
101679,105097
101680,105136
101677,105100
101692,105118
101638,105090
101736,105141
101783,105208
101779,105162
101773,105145
101759,105129
101810,105184
101906,105227
101858,105200
101859,105236
101837,105184
101948,105229
102014,105269
102024,105257
101997,105258
101936,105203
102069,105315
102106,105299
102057,105306
102070,105285
102066,105260
102119,105314
102176,105346
102158,105332
102141,105308
102089,105294
102156,105339
102224,105404
102219,105358
102182,105350
102157,105323
102255,105389
102266,105404
102236,105369
102272,105384
102163,105325
102320,105403
102371,105432
102323,105421
102342,105424
102250,105382
102379,105428
102438,105486
102394,105468
102414,105451
102375,105430
102434,105439
102508,105513
102510,105509
102444,105468
102453,105459
102527,105524
102590,105544
102553,105523
102567,105511
102525,105504
102635,105530
102657,105597
102645,105589
102615,105557
102592,105484
102693,105615
102723,105615
102711,105596
102713,105590
102635,105555
102744,105646
102781,105625
102774,105657
102755,105634
102698,105572
102837,105652
102851,105698
102849,105649
102852,105637
102734,105643
102877,105655
102970,105726
102892,105721
102907,105663
102849,105663
103009,105710
103038,105777
102996,105699
103015,105731
102984,105708
103059,105782
103081,105783
103120,105812
103080,105789
103003,105723
103074,105752
103094,105753
102990,105761
102907,105663
102725,105602
102759,105559
102654,105523
102451,105471
102263,105350
102043,105212
101946,105214
101762,105121
101525,104985
101323,104878
101032,104784
100896,104708
100790,104637
100493,104545
100329,104422
100033,104309
99978,104251
99896,104219
99661,104113
99579,104060
99368,103985
99367,103970
99365,103991
99234,103895
99245,103881
99107,103849
99201,103874
99264,103938
99177,103871
99225,103888
99125,103901
99291,103940
99378,104010
99389,103972
99415,103993
99383,103967
99586,104091
99614,104149
99653,104143
99671,104146
99662,104110
99838,104207
99888,104307
99939,104252
99964,104296
99945,104265
100092,104333
100125,104383
100183,104405
100177,104396
100154,104336
100291,104452
100325,104525
100365,104452
100353,104480
100330,104429
100434,104521
100516,104548
100467,104542
100508,104561
100491,104541
100611,104592
100686,104665
100651,104602
100684,104636
100705,104609
100783,104728
100834,104723
100823,104713
100877,104717
100845,104712
100950,104784
100972,104805
100962,104782
100937,104808
100914,104707
101053,104816
101018,104805
101023,104821
101002,104806
100958,104768
101047,104798
101067,104838
100984,104798
100965,104762
100930,104748
101019,104809
100987,104802
100993,104783
100948,104758
100880,104696
100932,104749
100936,104768
100915,104756
100904,104731
100825,104706
100941,104750
100909,104791
100891,104765
100889,104713
100825,104705
100919,104756
100965,104742
100904,104777
100911,104738
100912,104758
100973,104772
101017,104797
100992,104778
101022,104778
101002,104756
101100,104875
101131,104832
101127,104884
101143,104856
101118,104842
101224,104890
101313,104972
101302,104930
101280,104934
101296,104909
101409,104995
101452,104999
101433,105034
101444,104994
101442,104971
101568,105059
101657,105138
101642,105117
101618,105107
101626,105080
101750,105144
101781,105215
101790,105160
101779,105167
101787,105164
101909,105253
101920,105246
101934,105289
101951,105266
101972,105243
102081,105347
102087,105327
102128,105370
102089,105329
102102,105290
102211,105405
102256,105393
102290,105413
102269,105413
102257,105379
102403,105485
102415,105507
102408,105494
102405,105455
102374,105470
102504,105491
102543,105544
102545,105537
102522,105517
102522,105542
102641,105587
102687,105586
102661,105594
102630,105590
102616,105582
102716,105646
102796,105641
102744,105658
102729,105640
102688,105586
102878,105689
102853,105653
102815,105673
102849,105712
102841,105676
102957,105704
102942,105761
102937,105740
102903,105705
102915,105719
103030,105771
103045,105761
103012,105782
103035,105756
102981,105730
103105,105794
103100,105818
103102,105791
103094,105779
103028,105760
103216,105839
103184,105872
103149,105834
103149,105830
103121,105811
103269,105876
103219,105883
103236,105877
103214,105884
103221,105822
103313,105903
103312,105893
103341,105893
103286,105923
103270,105859
103423,105970
103422,105981
103390,105974
103352,105902
103351,105944
103510,105998
103529,106001
103463,106003
103435,105937
103451,105972
103560,106029
103570,106021
103506,106042
103520,105995
103530,106009
103628,106084
103671,106058
103624,106056
103622,106041
103560,106026
103712,106068
103689,106131
103664,106072
103668,106051
103653,106061
103747,106116
103782,106110
103741,106111
103718,106098
103688,106099
103806,106110
103813,106172
103799,106142
103794,106068
103803,106093
103869,106191
103904,106154
103901,106166
103846,106160
103869,106142
103957,106208
103974,106204
103954,106189
103925,106159
103883,106119
104007,106181
103940,106181
103872,106158
103762,106071
103656,106009
103663,106026
103538,106002
103338,105909
103157,105751
102981,105703
102889,105659
102677,105548
102465,105441
102182,105322
101972,105171
101828,105113
101588,105029
101357,104918
101124,104798
100879,104678
100796,104659
100585,104569
100365,104459
100203,104383
100012,104293
99954,104284
99839,104230
99745,104159
99623,104090
99521,104023
99596,104081
99559,104067
99527,104039
99482,104003
99444,104026
99556,104068
99605,104080
99613,104103
99589,104083
99641,104103
99755,104172
99766,104207
99799,104202
99810,104212
99838,104206
99974,104311
99988,104271
100035,104306
100054,104277
100114,104344
100221,104391
100194,104448
100221,104439
100210,104408
100275,104419
100407,104537
100408,104512
100396,104497
100404,104471
100461,104506
100575,104601
100579,104551
100581,104571
100522,104603
100577,104576
100729,104649
100718,104676
100753,104661
100746,104654
100792,104676
100886,104742
100939,104728
100946,104781
100857,104707
100921,104750
101048,104800
101067,104858
101038,104825
101035,104781
101069,104795
101152,104835
101131,104884
101118,104815
101084,104848
101098,104825
101143,104882
101162,104868
101175,104851
101075,104848
101100,104818
101212,104856
101189,104900
101123,104879
101089,104806
101126,104794
101145,104873
101169,104849
101135,104864
101088,104820
101083,104814
101136,104882
101152,104859
101125,104882
101075,104801
101086,104855
101163,104869
101196,104909
101116,104876
101111,104825
101132,104848
101224,104926
101263,104904
101269,104935
101183,104877
101242,104893
101374,104976
101356,104964
101368,104976
101354,104976
101367,104980
101499,105079
101532,105041
101541,105058
101489,105068
101543,105051
101671,105129
101682,105146
101712,105128
101678,105158
101703,105137
101875,105217
101849,105217
101896,105238
101882,105229
101902,105240
102047,105322
102046,105299
102100,105306
102056,105271
102120,105325
102224,105418
102260,105424
102240,105413
102241,105388
102305,105429
102415,105518
102440,105475
102447,105489
102385,105478
102458,105499
102583,105577
102593,105569
102600,105548
102595,105591
102618,105590
102735,105613
102795,105680
102761,105687
102711,105621
102755,105665
102923,105740
102886,105694
102896,105710
102876,105705
102917,105712
103016,105785
103049,105790
103045,105762
103017,105769
103034,105803
103166,105847
103142,105861
103129,105817
103145,105826
103166,105850
103249,105900
103245,105864
103285,105878
103202,105873
103255,105873
103352,105939
103343,105910
103352,105950
103279,105858
103366,105906
103421,105991
103404,105982
103420,105966
103404,105891
103440,105955
103513,106034
103484,105981
103463,106025
103445,105944
103515,105998
103597,106052
103582,106026
103613,106034
103515,105989
103573,106058
103672,106073
103691,106127
103619,106071
103653,106049
103654,106088
103753,106147
103776,106116
103726,106159
103725,106056
103777,106098
103808,106200
103838,106165
103834,106198
103830,106114
103839,106184
103903,106247
103917,106211
103901,106210
103893,106158
103937,106212
104006,106302
103992,106220
104005,106227
103979,106204
104013,106249
104075,106311
104045,106262
104093,106285
104000,106238
104074,106290
104165,106351
104138,106312
104150,106305
104103,106279
104197,106355
104251,106405
104206,106345
104256,106351
104176,106322
104255,106358
104359,106392
104311,106373
104278,106376
104210,106349
104235,106371
104259,106336
104183,106296
104065,106315
103925,106162
103866,106155
103797,106167
103605,106056
103465,105934
103227,105876
103103,105791
102990,105736
102771,105590
102542,105520
102256,105358
102160,105307
102000,105255
101764,105172
101519,105045
101296,104935
101150,104873
101055,104829
100847,104746
100646,104648
100480,104582
100388,104512
100385,104527
100250,104461
100119,104373
100042,104359
100060,104335
100083,104353
100053,104339
100026,104339
99928,104304
100045,104310
100081,104386
100121,104383
100106,104405
100056,104344
100181,104449
100303,104474
100303,104480
100268,104491
100306,104462
100367,104516
100517,104581
100500,104586
100500,104594
100501,104580
100582,104611
100671,104688
100630,104677
100685,104701
100623,104635
100754,104671
100836,104793
100845,104750
100839,104761
100753,104710
100852,104721
100924,104839
100921,104775
100918,104787
100867,104791
100987,104821
101029,104888
101015,104836
101092,104881
101027,104844
101079,104866
101172,104932
101127,104897
101155,104933
101115,104883
101162,104882
101197,104947
101193,104924
101129,104891
101084,104887
101107,104877
101176,104899
101130,104875
101120,104863
101010,104837
101025,104842
101077,104885
101026,104848
100964,104820
100889,104798
100911,104773
100954,104853
100846,104754
100829,104731
100745,104696
100795,104738
100820,104742
100787,104735
100701,104717
100667,104652
100699,104681
100696,104708
100663,104698
100652,104662
100576,104612
100628,104663
100677,104677
100667,104679
100601,104630
100572,104615
100637,104676
100662,104705
100633,104663
100629,104657
100578,104627
100660,104639
100692,104731
100695,104650
100700,104685
100622,104638
100775,104683
100784,104752
100780,104708
100821,104725
100780,104696
100836,104777
100923,104773
100905,104812
100910,104776
100870,104744
100972,104831
101041,104854
101013,104833
101059,104868
101007,104796
101107,104923
101176,104913
101179,104932
101172,104908
101155,104903
101230,104941
101321,105012
101295,104978
101303,104977
101292,104923
101364,105052
101451,105028
101429,105078
101417,105032
101393,104996
101479,105083
101543,105122
101524,105069
101564,105087
101516,105051
101628,105137
101708,105172
101647,105158
101710,105165
101626,105116
101757,105196
101830,105236
101767,105202
101804,105220
101780,105165
101839,105247
101925,105274
101917,105267
101871,105270
101836,105215
101943,105302
102007,105312
101957,105308
101964,105303
101905,105262
102035,105347
102074,105354
102046,105357
102068,105341
101983,105309
102117,105366
102115,105405
102111,105373
102172,105382
102108,105355
102188,105417
102260,105427
102230,105431
102188,105397
102166,105375
102275,105463
102303,105496
102308,105435
102300,105475
102230,105437
102312,105511
102372,105488
102399,105496
102382,105509
102340,105474
102435,105525
102504,105584
102495,105567
102452,105506
102418,105522
102514,105589
102555,105594
102535,105558
102532,105608
102453,105525
102586,105586
102621,105619
102608,105632
102612,105605
102544,105560
102676,105626
102731,105666
102690,105683
102671,105633
102666,105629
102737,105685
102834,105695
102778,105732
102796,105682
102738,105632
102861,105727
102929,105769
102908,105768
102875,105711
102849,105726
102968,105766
102985,105831
102943,105755
102949,105764
102830,105716
102889,105727
102808,105684
102653,105595
102547,105561
102298,105444
102264,105403
102146,105351
101916,105227
101669,105097
101421,104992
101321,104959
101129,104866
100901,104739
100674,104646
100410,104507
100331,104475
100120,104408
99915,104346
99760,104193
99578,104089
99488,104086
99424,104041
99339,104002
99180,103954
99080,103890
99132,103916
99094,103895
99071,103904
99044,103852
98987,103840
99091,103914
99122,103917
99160,103909
99134,103912
99148,103934
99302,103989
99356,104033
99353,104037
99418,104062
99391,104048
99527,104106
99616,104173
99630,104222
99671,104169
99662,104187
99805,104245
99870,104290
99892,104317
99899,104293
99911,104291
100048,104382
100088,104430
100109,104393
100113,104462
100068,104379
100236,104436
100262,104517
100230,104451
100293,104497
100207,104461
100360,104519
100417,104584
