11111,11111
0,0
82156,82211
114996,114114
114945,114089
114854,113979
114865,114036
114976,114073
114944,114075
114896,114063
114793,113984
114869,114076
114957,114046
114979,114089
114921,114063
114855,113981
114918,114011
115001,114106
114983,114081
114998,114042
114917,114024
114956,114045
115054,114132
115035,114086
115068,114082
114931,114041
115027,114061
115091,114101
115097,114099
115082,114084
115030,114036
115055,114115
115144,114132
115148,114088
115101,114075
115048,114029
115116,114106
115230,114131
115186,114143
115163,114078
115109,114092
115193,114094
115248,114176
115203,114129
115202,114123
115130,114070
115191,114158
115237,114171
115272,114136
115190,114156
115153,114074
115275,114162
115314,114192
115295,114192
115238,114119
115184,114084
115275,114179
115335,114223
115322,114195
115257,114123
115254,114097
115284,114189
115331,114209
115348,114164
115297,114149
115258,114117
115314,114162
115436,114212
115392,114194
115291,114174
115308,114144
115331,114184
115445,114237
115385,114211
115344,114149
115318,114139
115379,114178
115445,114222
115433,114185
115389,114208
115341,114165
115398,114200
115514,114213
115436,114247
115406,114167
115396,114176
115447,114240
115490,114252
115466,114252
115418,114185
115391,114194
115512,114223
115550,114234
115520,114241
115457,114176
115428,114188
115560,114252
115575,114260
115543,114250
115493,114216
115471,114205
115579,114280
115614,114250
115607,114260
115500,114222
115527,114216
115598,114297
115618,114298
115602,114259
115503,114205
115525,114251
115615,114297
115605,114269
115571,114285
115526,114241
115567,114245
115619,114297
115660,114276
115644,114276
115525,114261
115542,114211
115695,114324
115678,114273
115649,114252
115533,114226
115610,114246
114320,113637
114859,113908
114932,113937
115024,113969
114964,113933
115066,113999
115148,113995
115080,113971
115038,113942
115143,114017
115250,114022
115260,114038
115251,114033
115190,113958
115228,113988
115273,114081
115322,114061
115311,114047
115233,114005
115244,114006
115362,114091
115378,114062
115365,114072
115254,114025
115238,114001
115390,114087
115404,114074
115401,114088
115262,113980
115286,114023
115392,114079
115398,114067
115381,114066
115276,114052
115310,114047
115434,114109
115431,114139
115367,114092
115348,114051
115356,114067
115421,114099
115418,114124
115408,114120
115318,114004
115361,114052
115401,114130
115424,114082
115415,114106
115312,114024
115389,114071
115446,114100
115478,114118
115389,114111
115362,114019
115399,114073
115438,114107
115471,114138
115391,114088
115375,114053
115411,114060
115499,114122
115481,114094
115443,114109
115388,114012
115439,114112
115519,114139
115505,114087
115465,114105
115331,114022
115466,114080
115523,114146
115485,114121
115491,114086
115409,114078
115456,114101
115537,114100
115553,114131
115497,114113
115406,114094
115479,114103
115570,114138
115540,114149
115503,114110
115448,114056
115526,114095
115566,114177
115549,114128
115571,114107
115433,114075
115529,114128
115550,114178
115580,114127
115604,114143
115460,114048
115559,114137
115591,114160
115573,114179
115544,114132
115498,114097
115542,114128
115583,114145
115610,114161
115563,114091
115473,114102
115608,114128
115664,114180
115582,114141
115583,114125
115525,114075
115581,114138
115630,114145
115629,114147
115601,114150
115518,114077
115612,114157
115631,114167
115638,114143
115563,114141
115504,114058
115575,114099
115576,114142
113946,113346
113865,113311
113821,113297
113861,113330
113896,113323
113903,113322
113824,113320
113806,113283
113888,113374
113959,113406
113960,113365
113938,113375
113920,113362
114067,113439
114141,113481
114170,113483
114112,113476
114169,113477
114285,113574
114356,113562
114309,113552
114347,113555
114323,113523
114457,113621
114481,113648
114517,113616
114497,113639
114461,113639
114566,113656
114631,113721
114584,113683
114552,113649
114557,113674
114603,113711
114676,113738
114620,113686
114570,113641
114570,113664
114625,113690
114647,113711
114625,113677
114512,113655
114562,113632
114614,113712
114644,113711
114615,113701
114557,113648
114582,113695
114672,113705
114724,113730
114717,113727
114663,113702
114664,113703
114802,113793
114778,113786
114759,113791
114729,113717
114749,113729
114879,113819
114834,113800
114857,113769
114764,113734
114832,113771
114904,113819
114882,113814
114874,113814
114783,113725
114825,113763
114948,113810
114903,113779
114901,113804
114778,113730
114839,113777
114894,113780
114875,113821
114861,113779
114777,113758
114826,113728
114904,113812
114895,113838
114868,113776
114773,113750
114818,113753
114905,113783
114881,113844
114909,113789
114860,113757
114874,113778
115035,113839
114974,113842
114992,113804
114938,113763
114983,113828
115081,113860
115074,113901
115033,113829
115027,113800
115068,113845
115164,113903
115122,113872
115132,113889
115007,113795
115155,113910
115205,113927
115178,113904
115147,113861
115115,113868
115159,113897
115262,113941
115216,113959
115189,113905
115144,113865
115196,113924
115257,113928
115300,113947
115266,113945
115178,113842
115259,113917
115346,113975
115347,113960
115283,113938
115196,113918
115267,113958
115349,114004
115330,113948
115319,113930
115223,113916
115314,113961
115351,113985
115384,113976
115300,113933
115290,113899
115317,113974
115375,113982
115359,113957
115291,113935
115274,113891
115349,113923
115425,113986
115364,113952
115357,113933
115277,113888
115368,113954
115438,113996
115388,113932
115329,113929
115313,113893
115393,113969
115401,113969
115411,113961
115319,113957
115294,113900
115351,113950
115454,114015
115386,113930
115359,113929
115265,113900
115379,113977
115449,113996
115378,113947
115365,113894
115307,113938
115408,113982
115439,113998
115421,113950
115328,113893
115386,113954
115383,113954
115467,113983
115443,113952
115349,113906
115333,113933
115431,113945
115490,114010
115433,113947
115365,113918
115376,113926
115478,114002
115483,113962
115463,113987
115376,113918
115411,113891
115519,113989
115554,113991
115458,114003
115450,113904
115427,113974
115506,114014
115560,114010
115490,113997
115437,113919
115443,113979
115552,113988
115530,114010
115535,113984
115457,113966
115472,113921
115551,114032
115568,114001
115512,113981
115470,113934
115476,113948
115590,114039
115574,114005
115550,114005
115473,113933
115499,113962
115616,114032
115604,114026
115598,113985
115502,113982
115540,113972
115644,114023
115552,114028
115521,113965
115389,113926
115434,113914
115459,113954
115357,113892
115281,113844
115104,113791
115063,113727
115020,113766
114946,113685
114712,113623
114551,113492
114413,113490
114418,113448
114282,113435
114208,113389
114050,113267
114113,113321
114132,113351
114144,113345
114084,113337
114044,113275
114112,113333
114255,113402
114240,113357
114283,113409
114221,113348
114331,113459
114441,113481
114541,113527
114523,113535
114487,113453
114618,113557
114710,113626
114763,113620
114769,113608
114685,113593
114817,113626
114895,113691
114873,113705
114836,113678
114825,113604
114902,113708
115005,113714
114955,113732
114932,113703
114853,113644
114929,113684
114975,113741
114995,113739
114942,113693
114865,113661
114977,113706
114983,113739
114974,113736
114950,113683
114872,113653
114987,113701
115012,113751
114973,113739
114967,113705
114899,113666
114998,113738
115022,113754
115053,113759
115019,113716
114959,113699
115072,113777
115130,113788
115165,113759
115054,113727
115069,113739
115112,113766
115192,113833
115136,113758
115095,113718
115005,113726
115155,113767
115177,113784
115121,113744
115099,113739
115078,113689
115103,113739
115168,113769
115103,113719
115070,113712
114979,113707
115096,113736
115120,113749
115068,113742
115044,113669
115013,113708
115076,113705
115106,113779
115057,113753
115021,113662
115026,113694
115082,113735
115124,113762
115092,113722
115061,113676
115029,113714
115158,113743
115180,113774
115134,113740
115094,113692
115065,113747
115179,113748
115207,113778
115176,113768
115108,113686
115156,113773
115219,113758
115257,113813
115210,113798
115154,113707
115199,113761
115268,113801
115304,113798
115258,113803
115186,113730
115252,113772
115306,113821
115353,113844
115307,113803
115229,113755
115290,113799
115327,113806
115395,113866
115359,113809
115271,113806
115272,113780
115389,113878
115403,113857
115368,113818
115310,113762
115305,113855
115413,113841
115452,113877
115402,113837
115335,113774
115361,113864
115492,113882
115401,113873
115416,113861
115369,113794
115449,113885
115507,113881
115460,113886
115453,113884
115331,113800
115450,113878
115506,113908
115466,113879
115512,113895
115405,113849
115453,113845
115525,113917
115528,113914
115481,113825
115422,113814
115466,113880
115500,113902
115519,113875
115469,113874
115440,113833
115450,113898
115548,113886
115551,113913
115486,113865
115431,113824
115493,113880
115599,113922
115534,113908
115513,113890
115403,113838
115492,113859
115548,113930
115569,113913
115514,113869
115447,113820
115544,113924
115605,113914
115605,113919
115521,113885
115509,113863
115532,113854
115648,113955
115621,113921
115598,113887
115527,113875
115565,113887
115686,113959
115614,113931
115593,113865
115553,113883
115597,113903
115662,113943
115678,113912
115631,113919
115564,113871
115654,113950
115685,113941
115673,113924
115615,113896
115591,113861
115656,113921
115685,113976
115690,113943
115634,113890
115610,113866
115683,113964
115735,113981
115724,113916
115625,113884
115640,113884
115702,113963
115756,113960
115748,113907
115665,113905
115593,113861
115694,113935
115690,113906
115613,113887
115516,113826
115403,113788
115464,113857
115399,113807
115347,113731
115209,113714
115115,113635
115154,113697
115099,113654
115049,113622
114910,113519
114890,113554
114880,113591
114897,113596
114872,113555
114788,113523
114724,113477
114884,113589
114870,113576
114875,113573
114809,113495
114863,113531
114933,113653
114995,113634
115008,113609
114957,113608
114984,113640
115099,113636
115154,113697
115103,113665
115092,113631
115132,113677
115215,113739
115214,113710
115231,113696
115168,113695
115182,113697
115272,113740
115263,113729
115295,113716
115187,113691
115229,113707
115284,113764
115314,113758
115278,113724
115223,113677
115200,113727
115307,113752
115310,113732
115250,113724
115190,113669
115187,113731
115294,113710
115298,113763
115284,113726
115158,113683
115250,113716
115333,113745
115332,113770
115288,113721
115173,113696
115281,113719
115336,113739
115422,113776
115325,113779
115287,113697
115360,113748
115403,113775
115484,113814
115378,113799
115333,113730
115379,113785
115455,113829
115444,113782
115403,113766
115316,113704
115355,113754
115445,113799
115430,113777
115348,113756
115276,113684
115391,113734
115393,113806
115391,113741
115364,113739
115237,113663
115320,113733
115344,113745
115387,113744
115305,113738
115274,113676
115297,113713
115343,113751
115379,113726
115320,113758
115241,113667
115331,113714
115396,113739
115403,113750
115327,113736
115269,113674
115369,113761
115451,113755
115439,113783
115379,113758
115313,113739
115375,113766
115477,113808
115464,113786
115443,113756
115368,113733
115459,113754
115528,113839
115496,113770
115427,113769
115401,113730
115498,113790
115563,113845
115554,113796
115493,113780
115469,113751
115519,113805
115574,113854
115564,113850
115534,113775
115472,113787
115547,113809
115627,113819
115602,113851
115516,113796
115505,113780
115568,113844
115639,113824
115601,113832
115540,113777
115533,113775
115566,113864
115674,113856
115602,113860
115537,113778
115557,113777
115612,113843
115661,113831
115629,113832
115579,113790
115548,113798
115623,113815
115689,113902
115634,113823
115588,113775
115548,113796
115672,113889
115697,113885
115633,113843
115600,113778
115561,113802
115670,113874
115674,113839
115642,113844
115589,113786
115570,113831
115632,113823
115686,113888
115642,113861
115575,113763
115618,113817
115611,113886
115683,113830
115669,113845
115591,113806
115566,113800
115675,113841
115687,113878
115668,113832
115542,113789
115629,113830
115692,113847
115719,113889
115675,113827
115611,113792
115638,113810
115709,113846
115768,113893
115696,113841
115636,113796
115653,113825
115706,113863
115759,113882
115725,113830
115620,113768
115704,113843
115753,113870
115733,113896
115753,113854
115651,113808
115673,113838
115777,113858
115769,113894
115758,113849
115680,113841
115732,113841
115765,113871
115808,113912
115769,113871
115717,113830
115743,113850
115831,113909
115847,113939
115769,113874
115731,113821
115824,113846
115867,113920
115839,113920
115828,113861
115757,113884
115790,113858
115890,113901
115866,113906
115824,113910
115754,113822
115764,113869
115815,113871
115747,113856
115727,113812
115564,113767
115595,113811
115565,113778
115505,113757
115406,113688
115273,113640
115277,113629
115334,113699
115225,113585
115147,113567
115019,113521
115076,113587
115140,113559
115091,113590
115032,113503
114945,113502
115047,113559
115070,113577
115094,113543
115120,113549
115021,113546
115113,113586
115233,113622
115202,113604
115220,113622
115164,113573
115229,113641
115337,113655
115313,113680
115296,113623
115258,113600
115360,113659
115414,113728
115439,113709
115372,113661
115377,113671
115421,113731
115486,113697
115470,113725
115415,113664
115357,113666
115489,113688
115483,113777
115486,113693
115419,113699
115377,113632
115456,113698
115463,113749
115455,113683
115411,113666
115342,113637
115463,113697
115501,113738
115482,113698
115389,113683
115382,113625
115485,113739
115485,113733
115471,113720
115391,113662
115406,113663
115501,113717
115520,113705
115506,113715
115478,113669
115440,113657
115537,113710
115562,113744
115572,113706
115485,113684
115479,113690
115556,113743
115609,113758
115596,113705
115525,113684
115522,113683
115567,113732
115635,113756
115592,113715
115472,113671
115516,113678
115574,113741
115619,113734
115549,113704
115483,113661
115490,113679
115588,113704
115589,113726
115568,113724
115446,113660
115455,113660
115562,113707
115580,113709
115536,113702
115477,113630
115490,113677
115565,113679
115625,113751
115593,113719
115514,113658
115536,113679
115610,113740
115643,113755
115617,113736
115505,113646
115557,113679
115638,113733
115673,113713
115644,113717
115548,113696
115621,113687
115689,113737
115698,113755
115653,113740
115551,113652
115596,113752
115665,113766
115706,113760
115692,113771
115550,113665
115652,113770
115711,113764
115735,113750
115678,113758
115593,113689
115683,113744
115727,113787
115719,113743
115705,113767
115625,113728
115687,113721
115731,113770
115733,113797
115695,113753
115640,113709
115694,113769
115743,113771
115731,113757
115710,113741
115651,113743
115696,113735
115779,113794
115753,113818
115681,113732
115636,113709
115680,113750
115795,113781
115738,113791
115701,113773
115626,113751
115710,113752
115766,113809
115728,113811
115708,113733
115647,113744
115715,113753
115769,113798
115789,113772
115712,113776
115622,113696
115730,113783
115779,113812
115752,113771
115746,113752
115654,113747
115727,113762
115803,113804
115777,113794
115708,113716
115685,113733
115752,113750
115775,113786
115800,113762
115735,113758
115676,113720
115779,113760
115792,113819
115755,113763
115700,113735
115682,113737
115754,113762
115816,113797
115777,113776
115713,113772
115678,113719
115774,113802
115805,113798
115810,113798
115719,113737
115725,113748
115793,113786
115830,113828
115808,113782
115741,113768
115723,113718
115826,113814
115864,113832
115820,113771
115794,113752
115734,113773
115836,113808
115882,113848
115857,113806
115762,113746
115787,113816
115831,113801
115925,113842
115914,113822
115814,113780
115788,113755
115907,113844
115901,113867
115880,113822
115826,113777
115769,113801
115867,113807
115963,113831
115879,113845
115827,113783
115797,113796
115925,113828
115957,113869
115883,113799
115887,113786
115848,113785
115893,113863
115962,113851
115896,113811
115850,113737
115812,113796
115874,113794
115851,113817
115757,113727
115647,113691
115603,113683
115611,113725
115517,113647
115451,113588
115294,113521
115227,113543
115268,113537
115222,113508
115134,113461
114986,113392
114973,113403
115050,113442
115013,113460
114970,113380
114861,113344
114922,113375
114983,113436
115052,113445
115017,113415
114951,113369
115004,113419
115126,113488
115165,113465
115161,113457
115119,113471
115175,113474
115286,113561
115303,113552
115252,113548
115223,113471
115331,113587
115400,113572
115412,113589
115339,113545
115296,113515
115405,113583
115435,113621
115462,113570
115398,113572
115348,113529
115412,113605
115485,113616
115418,113600
115395,113585
115333,113518
115407,113573
115455,113600
115462,113601
115382,113569
115307,113502
115394,113562
115465,113605
115434,113596
115358,113552
115345,113534
115370,113609
115410,113597
115425,113580
115382,113554
115335,113517
115411,113594
115505,113593
115479,113621
115429,113545
115396,113553
115474,113598
115546,113651
115505,113605
115482,113590
115430,113558
115472,113633
115548,113650
115527,113599
115530,113608
115461,113574
115531,113630
115600,113681
115508,113619
115494,113585
115411,113577
115514,113613
115565,113639
115520,113618
115477,113593
115391,113536
115510,113626
115516,113599
115521,113604
115423,113550
115437,113550
115476,113598
115530,113604
115525,113609
115481,113585
115427,113601
115535,113595
115575,113662
115520,113595
115487,113568
115469,113577
115564,113598
115616,113653
115555,113621
115521,113606
115514,113576
115551,113645
115658,113672
115606,113648
115568,113614
115523,113601
115619,113632
115703,113658
115617,113661
115580,113583
115613,113640
115651,113655
115729,113669
115682,113669
115611,113614
115615,113632
115714,113708
115720,113734
115698,113701
115648,113655
115629,113642
115751,113720
115728,113735
115732,113659
115647,113643
115669,113651
115744,113678
115791,113727
115710,113719
115674,113636
115673,113690
115772,113709
115785,113692
115774,113720
115699,113614
115742,113692
115785,113718
115783,113728
115802,113706
115701,113641
115768,113682
115804,113732
115817,113719
115777,113708
115687,113675
115758,113689
115831,113703
115864,113749
115800,113700
115729,113654
115746,113720
115841,113710
115841,113743
115767,113702
115685,113627
115738,113687
115837,113747
115791,113718
115803,113667
115688,113680
115731,113665
115845,113728
115827,113719
115803,113689
115728,113662
115734,113653
115836,113757
115815,113709
115797,113684
115729,113626
115814,113696
115852,113705
115852,113704
115808,113678
115758,113659
115777,113682
115880,113732
115849,113712
115841,113687
115755,113683
115815,113695
115892,113727
115843,113729
115842,113694
115770,113669
115825,113693
115920,113719
115889,113722
115849,113674
115807,113678
115862,113705
115935,113716
115927,113746
115839,113706
115806,113650
115875,113732
115909,113761
115925,113718
115907,113679
115841,113701
115872,113746
115976,113758
115940,113780
115899,113706
115844,113653
115929,113718
115961,113755
115966,113728
115875,113751
115846,113695
115974,113749
115999,113779
115949,113760
115922,113723
115890,113682
115939,113739
116009,113747
115936,113748
115840,113627
115784,113666
115768,113664
115840,113684
115723,113668
115609,113557
115530,113564
115529,113537
115533,113576
115414,113504
115332,113441
115288,113401
115287,113477
115334,113465
115305,113444
115182,113377
115160,113360
115232,113473
115327,113459
115260,113424
115218,113370
115209,113383
115265,113457
115370,113456
115331,113479
115259,113382
115316,113405
115381,113477
115460,113501
115453,113521
115353,113403
115388,113475
115447,113550
115551,113545
115496,113559
115443,113464
115474,113533
115571,113544
115585,113600
115534,113550
115474,113517
115478,113523
115611,113575
115610,113571
115606,113578
115506,113506
115532,113515
115566,113576
115648,113598
115560,113561
115514,113534
115523,113548
115594,113567
115636,113602
115537,113569
115485,113501
115508,113531
115565,113595
115612,113568
115595,113558
115462,113469
115565,113521
115624,113616
115603,113599
115604,113532
115496,113531
115558,113504
115658,113603
115648,113592
115616,113558
115550,113531
115603,113561
115656,113589
115695,113589
115654,113562
115548,113527
115592,113547
115647,113590
115680,113592
115616,113543
115555,113515
115605,113545
115642,113587
115658,113573
115614,113540
115549,113501
115574,113547
115647,113574
115663,113575
115617,113541
115538,113498
115597,113557
115643,113579
115663,113581
115588,113552
115543,113490
115623,113541
115669,113591
115671,113565
115604,113554
115582,113498
115647,113543
115703,113611
115682,113554
115661,113551
115560,113488
115670,113540
115706,113578
115726,113573
115658,113575
115610,113510
115653,113580
115726,113574
115699,113561
115671,113565
115616,113531
115682,113593
115742,113631
115717,113605
115684,113537
115604,113525
115674,113595
115764,113590
115742,113564
115663,113559
115630,113524
115711,113608
115737,113628
115727,113579
115716,113560
115633,113548
115744,113566
115805,113655
115778,113604
115705,113558
115675,113526
115774,113621
115801,113602
115771,113595
115737,113567
115688,113523
115782,113586
115817,113611
115786,113605
115729,113580
115699,113584
115793,113631
115846,113640
115812,113605
115748,113570
115736,113549
115786,113640
115875,113652
115818,113604
115731,113599
115734,113568
115839,113639
115842,113636
115821,113613
115727,113578
115732,113568
115823,113656
115825,113600
115792,113629
115734,113583
115737,113612
115788,113629
115862,113655
115806,113588
115743,113549
115711,113599
115829,113636
115871,113651
115818,113656
115752,113555
115776,113591
115861,113642
115882,113663
115834,113648
115749,113540
115798,113621
115878,113666
115903,113641
115853,113600
115816,113602
115794,113584
115906,113661
115886,113659
115843,113642
115795,113565
115849,113612
115893,113676
115887,113623
115866,113623
115796,113553
115790,113616
115913,113695
115914,113622
115889,113632
115803,113568
115816,113606
115937,113671
115945,113657
115887,113667
115798,113569
115851,113595
115943,113666
115939,113681
115891,113660
115861,113578
115845,113654
115980,113682
115972,113691
115933,113638
115876,113632
115891,113640
116025,113695
115982,113647
115968,113654
115880,113611
115951,113656
116006,113718
115991,113638
115998,113673
115883,113588
115950,113678
116051,113693
115986,113675
116021,113665
115913,113609
115978,113661
116046,113722
116022,113666
115957,113677
115838,113571
115929,113623
115940,113672
115894,113628
115785,113581
115699,113497
115681,113553
115724,113555
115600,113486
115532,113439
115440,113409
115422,113412
115448,113405
115389,113366
115295,113327
115171,113310
115202,113291
115288,113350
115206,113323
115160,113297
115103,113230
115169,113330
115220,113306
115219,113344
115175,113271
115171,113290
115245,113316
115299,113360
115327,113384
115262,113304
115303,113334
115373,113394
115404,113414
115446,113402
115394,113339
115346,113373
115454,113426
115538,113443
115482,113446
115471,113382
115399,113410
115528,113422
115575,113481
115546,113418
115505,113444
115474,113409
115571,113499
115562,113457
115570,113483
115515,113409
115474,113420
115604,113481
115582,113486
115560,113448
115486,113409
115441,113384
115556,113473
115585,113471
115498,113414
115445,113374
115452,113413
115548,113466
115522,113461
115541,113452
115454,113433
115457,113374
115541,113488
115597,113480
115529,113480
115452,113381
115520,113463
115549,113485
115607,113480
115541,113483
115518,113417
115525,113435
115591,113526
115631,113460
115609,113507
115546,113430
115540,113437
115633,113520
115596,113497
115624,113482
115513,113409
115576,113415
115653,113504
115655,113488
115628,113450
115550,113444
115585,113431
115648,113516
115669,113527
115603,113463
115554,113398
115581,113495
115671,113492
115667,113523
115627,113509
115500,113434
115580,113510
115634,113530
115658,113531
115610,113512
115532,113459
115594,113483
115704,113556
115652,113511
115660,113543
115569,113482
115656,113522
115696,113579
115705,113569
115684,113523
115612,113494
115683,113565
115720,113593
115758,113585
115740,113546
115662,113550
115724,113549
115758,113577
115819,113611
115729,113603
115657,113488
115728,113603
115785,113599
115801,113610
115768,113568
115698,113559
115751,113554
115846,113630
115804,113623
115764,113578
115709,113550
115779,113606
115828,113606
115814,113628
115752,113574
115730,113554
115758,113596
115833,113626
115838,113595
115820,113589
115732,113574
115773,113558
115870,113630
115858,113620
115780,113592
115726,113506
115804,113605
115874,113626
115866,113622
115788,113557
115770,113532
115826,113619
115911,113627
115854,113602
115796,113548
115753,113546
115828,113596
115900,113615
115873,113597
115832,113570
115734,113524
115852,113595
115902,113624
115875,113575
115792,113578
115776,113535
115847,113589
115873,113642
115838,113552
115808,113580
115750,113518
115848,113614
115861,113616
115890,113600
115793,113574
115729,113525
115862,113587
115941,113604
115876,113568
115817,113561
115789,113539
115849,113570
115945,113616
115869,113580
115806,113537
115825,113526
115864,113616
115913,113594
115916,113599
115849,113549
115811,113562
115917,113598
115980,113617
115894,113588
115860,113565
115863,113589
115924,113654
115935,113612
115935,113615
115827,113557
115882,113579
115924,113594
115989,113634
115922,113614
115871,113563
115884,113566
115962,113639
115958,113642
115991,113654
115873,113547
115905,113601
115972,113627
116012,113640
115990,113631
115917,113558
115928,113636
116020,113631
116037,113672
116010,113621
115943,113591
115926,113615
116043,113693
116033,113657
116054,113647
115964,113599
115976,113632
116044,113685
116048,113643
116018,113670
115919,113565
116010,113635
116074,113687
116052,113663
116025,113648
115923,113567
115980,113654
116026,113647
115966,113627
115914,113603
115756,113525
115824,113516
115796,113586
115726,113526
115618,113477
115502,113421
115497,113380
115520,113445
115396,113349
115343,113332
115171,113236
115210,113256
115256,113304
115151,113273
115142,113196
115031,113167
115096,113210
115162,113251
115137,113268
115065,113217
115070,113173
115127,113252
115231,113322
115221,113286
115203,113277
115161,113221
115285,113333
115344,113363
115326,113338
115367,113346
115271,113344
115362,113338
115450,113437
115420,113381
115430,113339
115331,113304
115491,113422
115495,113414
115513,113400
115454,113357
115438,113361
115472,113415
115558,113448
115540,113441
115482,113404
115426,113354
115480,113410
115559,113464
115552,113445
115479,113384
115426,113348
115459,113404
115537,113462
115527,113433
115440,113371
115400,113355
115442,113393
115519,113421
115433,113392
115414,113367
115399,113343
115479,113401
115528,113421
115493,113428
115468,113374
115426,113369
115540,113438
115563,113436
115577,113433
115487,113354
115508,113380
115572,113454
115583,113456
115558,113415
115507,113407
115466,113407
115554,113417
115580,113439
115574,113423
115464,113381
115443,113350
115527,113436
115564,113428
115507,113389
115434,113379
115423,113330
115551,113442
115545,113392
115508,113396
115459,113360
115411,113392
115550,113413
115540,113400
115489,113377
115474,113360
115471,113345
115554,113446
115570,113422
115500,113405
115458,113352
115497,113404
115591,113400
115584,113407
115565,113418
115457,113354
115517,113375
115568,113465
115585,113439
115573,113414
115486,113353
115536,113395
115607,113479
115627,113448
115592,113427
115522,113383
115585,113399
115657,113472
115673,113472
115612,113456
115565,113389
115619,113447
115714,113483
115701,113447
115708,113469
115574,113430
115629,113431
115757,113530
115736,113492
115697,113477
115641,113395
115666,113479
115784,113497
115767,113482
115689,113496
115633,113416
115710,113480
115781,113484
115780,113487
115732,113503
115667,113408
115719,113475
115784,113487
115798,113503
115758,113481
115689,113442
115722,113500
115830,113519
115811,113524
115765,113449
115723,113446
115768,113509
115837,113481
115822,113507
115778,113503
115712,113427
115796,113512
115852,113498
115843,113529
115776,113461
115697,113416
115809,113503
115838,113529
115836,113530
115771,113480
115710,113470
115778,113499
115862,113554
115827,113505
115824,113502
115730,113419
115800,113498
115860,113496
115840,113520
115796,113480
115714,113403
115827,113489
115866,113548
115860,113496
115792,113489
115729,113463
115808,113469
115871,113572
115852,113500
115838,113467
115720,113463
115844,113467
115879,113573
115863,113488
115792,113479
115746,113471
115851,113529
115901,113541
115890,113510
115810,113453
115788,113491
115854,113501
115931,113555
115862,113529
115831,113489
115799,113461
115890,113537
115920,113506
115898,113518
115811,113517
115795,113446
115930,113532
115910,113546
115912,113524
115829,113497
115781,113474
115940,113523
115908,113554
115899,113531
115845,113488
115830,113475
115919,113571
115991,113548
115959,113541
115845,113490
115882,113486
115938,113515
116013,113578
115939,113546
115890,113480
115875,113515
115973,113527
115994,113583
115946,113543
115929,113479
115909,113529
116004,113546
116021,113562
115981,113551
115928,113518
115869,113509
115947,113532
115948,113547
115852,113500
115787,113434
115739,113445
115740,113453
115735,113436
115636,113372
115498,113289
115411,113274
115458,113334
115369,113241
115332,113240
115151,113143
115151,113142
115111,113155
115133,113120
115032,113122
114888,113012
114924,113061
114969,113060
114940,113084
114920,113092
114831,112994
114917,113075
114997,113086
115017,113077
115038,113098
114932,113091
115037,113080
115157,113209
115185,113200
115159,113184
115152,113137
115204,113188
115321,113263
115338,113213
115329,113243
115212,113177
115354,113221
115391,113319
115424,113257
115425,113269
115290,113213
115353,113245
115481,113331
115416,113296
115427,113242
115319,113253
115409,113287
115430,113291
115427,113324
115376,113246
115361,113252
115376,113261
115452,113290
115422,113315
115398,113281
115342,113239
115388,113282
115451,113331
115430,113289
115412,113255
115353,113248
115378,113277
115478,113296
115449,113318
115437,113250
115382,113253
115433,113293
115508,113342
115473,113279
115466,113288
115381,113273
115448,113310
115535,113363
115533,113326
115461,113282
115410,113236
115490,113320
115553,113362
115554,113309
115476,113263
115439,113256
115517,113306
115554,113366
115534,113335
115464,113285
115403,113265
115484,113312
115532,113330
115494,113298
115445,113271
115422,113263
115489,113315
115509,113324
115491,113327
115450,113269
115382,113251
115512,113331
115561,113331
115505,113336
115428,113240
115443,113257
115514,113325
115542,113318
115508,113329
115463,113279
115429,113247
115547,113335
115542,113342
115534,113360
115456,113281
115474,113325
115560,113319
115603,113334
115553,113344
115540,113278
115494,113291
115619,113336
115627,113378
115614,113370
115552,113301
115533,113296
115666,113364
115639,113387
115636,113380
115527,113335
115570,113309
115687,113391
115675,113377
115633,113369
115599,113322
115593,113355
115688,113379
115682,113403
115670,113395
115597,113296
115611,113345
115669,113377
115717,113424
115692,113398
115581,113304
115641,113360
115695,113400
115732,113389
115703,113411
115636,113322
115630,113339
115738,113402
115723,113433
115732,113394
115597,113352
115670,113343
115783,113428
115710,113369
115716,113381
115606,113339
115683,113371
115806,113434
115767,113387
115732,113389
115684,113347
115698,113373
115790,113389
115763,113435
115755,113394
115656,113347
115733,113389
115818,113396
115786,113462
115743,113390
115693,113339
115735,113389
115790,113420
115770,113418
115769,113392
115670,113337
115773,113438
115791,113427
115776,113410
115758,113358
115702,113358
115732,113403
115851,113462
115790,113396
115754,113418
115690,113318
115789,113415
115857,113427
115828,113424
115784,113435
115680,113326
115798,113373
115843,113461
115839,113461
115763,113409
115729,113320
115791,113424
115823,113433
115838,113401
115818,113422
115715,113382
115815,113406
115880,113452
115864,113425
115846,113391
115740,113397
115816,113435
115921,113443
115843,113448
115823,113372
115781,113371
115855,113413
115906,113442
115886,113466
115832,113402
115804,113394
115906,113434
115956,113473
115891,113473
115868,113384
115835,113422
115901,113446
115975,113486
115962,113485
115868,113437
115875,113383
115908,113495
115975,113504
115954,113484
115902,113436
115850,113422
115972,113483
115987,113515
115977,113448
115920,113430
115913,113434
115946,113459
116009,113475
115978,113487
115934,113411
115942,113430
115983,113515
116013,113490
116010,113497
115910,113413
115884,113446
115965,113458
115950,113482
115892,113412
115736,113379
115705,113337
115739,113341
115684,113367
115618,113319
115489,113218
115369,113208
115431,113237
115392,113212
115292,113142
115130,113068
115101,113084
115167,113093
115107,113089
115053,113062
114949,112998
114911,112982
115000,113030
114983,113015
114989,113001
114914,112972
114947,113003
115046,113050
115100,113066
115067,113055
115032,113024
115108,113060
115172,113123
115249,113144
115195,113119
115146,113064
115211,113115
115306,113167
115340,113186
115315,113170
115254,113109
115278,113189
115378,113218
115391,113209
115323,113196
115265,113124
115344,113195
115431,113241
115412,113223
115351,113169
115304,113147
115344,113207
115429,113250
115382,113228
115399,113211
115263,113153
115361,113166
115403,113211
115374,113206
115379,113220
115273,113143
115331,113171
115415,113235
115374,113247
115384,113158
115305,113147
115348,113180
115429,113267
115436,113203
115396,113230
115324,113176
115416,113215
115464,113260
115481,113233
115422,113189
115385,113173
115424,113243
115490,113271
115497,113246
115455,113239
115387,113188
115496,113208
115530,113291
115477,113227
115471,113206
115388,113209
115476,113236
115547,113276
115520,113257
115442,113207
115362,113201
115472,113250
115534,113276
115457,113237
115436,113229
115332,113173
115448,113240
115529,113272
115426,113240
115435,113182
115398,113208
115461,113218
115495,113268
115517,113252
115436,113237
115353,113191
115494,113267
115511,113278
115510,113251
115474,113188
115403,113213
115496,113232
115521,113279
115504,113281
115470,113213
115452,113221
115546,113285
115555,113295
115526,113276
115521,113237
115490,113228
115545,113287
115608,113310
115598,113252
115529,113280
115510,113226
115599,113333
115589,113318
115622,113321
115522,113252
115542,113260
115631,113356
115656,113299
115631,113318
115557,113259
115557,113249
115648,113341
115685,113343
115635,113313
115595,113283
115595,113283
115701,113316
115749,113331
115659,113342
115605,113267
115636,113296
115725,113372
115737,113355
115720,113324
115631,113301
115675,113326
115723,113351
115736,113387
115732,113297
115665,113319
115630,113316
115783,113370
115789,113375
115706,113348
115669,113285
115698,113305
115768,113393
115753,113359
115765,113354
115658,113265
115738,113347
115737,113365
115780,113347
115779,113325
115676,113309
115731,113355
115794,113384
115789,113343
115782,113397
115671,113295
115734,113342
115800,113348
115810,113364
115787,113384
115704,113306
115732,113339
115846,113389
115813,113376
115751,113371
115709,113298
115716,113369
115797,113361
115826,113379
115799,113357
115701,113307
115768,113345
115817,113408
115842,113359
115776,113380
115696,113317
115801,113361
115849,113372
115843,113364
115816,113336
115748,113296
115845,113367
115892,113428
115852,113368
115843,113407
115735,113342
115850,113379
115888,113414
115920,113396
115831,113405
115763,113335
115849,113404
115905,113423
115902,113411
115867,113387
115757,113368
115877,113386
115982,113444
115923,113426
115895,113369
115850,113370
115899,113413
115972,113441
115962,113423
115905,113426
115844,113370
115985,113431
115969,113451
115957,113453
115927,113386
115881,113380
115932,113439
116019,113481
115996,113466
115955,113403
115882,113368
115960,113426
115998,113445
115937,113410
115815,113389
115784,113339
115821,113371
115816,113348
115732,113318
115588,113229
115494,113222
115482,113243
115455,113214
115337,113161
115150,113099
115044,112981
115085,113023
115023,113013
114881,112961
114813,112874
114740,112867
114759,112890
114833,112924
114753,112896
114690,112861
114674,112857
114817,112899
114865,112931
114831,112941
114851,112893
114856,112926
114989,112999
115031,113010
115052,112991
115013,113001
115048,112982
115201,113109
115213,113120
115206,113058
115165,113073
115153,113052
115305,113126
115328,113141
115309,113119
115232,113056
115289,113101
115313,113164
115368,113143
115314,113139
115280,113092
115275,113106
115388,113160
115425,113157
115349,113145
115302,113134
115330,113124
115377,113203
115391,113165
115403,113148
115290,113100
115341,113131
115412,113185
115457,113174
115372,113178
115311,113089
115367,113157
115432,113207
115442,113180
115438,113205
115331,113094
115420,113176
115482,113216
115467,113210
115483,113218
115390,113127
115419,113194
115510,113190
115485,113224
115498,113195
115334,113147
115419,113203
115526,113233
115475,113195
115455,113178
115377,113118
115439,113175
115465,113221
115450,113171
115484,113174
115346,113126
115435,113183
115481,113237
115446,113178
115452,113158
115320,113142
115418,113165
115494,113232
115464,113224
115433,113140
115324,113155
115421,113160
115509,113241
115500,113209
115440,113172
115366,113137
115451,113184
115509,113254
115498,113214
115495,113186
115375,113168
115498,113201
115597,113208
115556,113246
115473,113198
115467,113195
115527,113234
115607,113213
115601,113263
115513,113201
115481,113188
115577,113248
115671,113268
115604,113272
115545,113181
115538,113211
115588,113251
115682,113295
115646,113265
115587,113244
115543,113208
115628,113265
115690,113284
115679,113269
115645,113258
115588,113205
115708,113290
115714,113304
115707,113260
115661,113256
115625,113239
115692,113306
115787,113292
115707,113326
115686,113275
115653,113228
115745,113313
115735,113342
115735,113273
115693,113265
115660,113227
115731,113317
115737,113309
115750,113296
115660,113283
115647,113235
115757,113320
115756,113292
115739,113307
115691,113255
115625,113235
115758,113298
115732,113325
115721,113311
115699,113239
115618,113267
115745,113280
115805,113353
115747,113290
115690,113266
115685,113256
115781,113317
115769,113292
115782,113315
115674,113231
115658,113278
115770,113301
115809,113327
115766,113288
115686,113234
115688,113285
115822,113311
115788,113323
115803,113288
115717,113286
115708,113257
115844,113326
115796,113342
115782,113319
115707,113219
115731,113292
115821,113291
115817,113337
115775,113311
115736,113263
115744,113291
115836,113321
115842,113360
115842,113323
115737,113248
115763,113298
115897,113336
115875,113351
115851,113326
115770,113273
115845,113311
115943,113364
115909,113376
115861,113329
115837,113291
115864,113334
115977,113392
115964,113399
115896,113374
115849,113279
115883,113364
115983,113371
115986,113371
115966,113377
115841,113333
115963,113341
116004,113417
116007,113352
115996,113369
115877,113300
115975,113369
116021,113437
116028,113375
115991,113370
115898,113312
115946,113357
115936,113363
115891,113335
115837,113288
115696,113256
115761,113261
115747,113279
115668,113220
115550,113182
115430,113104
115447,113118
115427,113134
115318,113085
115269,113035
115123,112968
115122,112980
115163,112994
115114,112971
115067,112917
114975,112883
115020,112922
115066,112951
115028,112944
115033,112920
114977,112912
115082,112972
115114,112966
115142,113017
115118,112964
115101,112937
115161,113004
115248,113034
115224,113043
115192,113036
115219,113011
115289,113067
115391,113078
115342,113101
115295,113033
115338,113049
115406,113101
115476,113128
115424,113079
115394,113058
115355,113059
115492,113112
115533,113150
115472,113136
115428,113112
115396,113113
115488,113141
115506,113136
115494,113138
115432,113117
115367,113080
115451,113097
115518,113167
115417,113110
115387,113098
115348,113111
115421,113128
115502,113149
115422,113134
115395,113070
115369,113072
115486,113177
115473,113148
115479,113171
115400,113105
115435,113118
115498,113163
115582,113201
115533,113129
115458,113095
115477,113094
115563,113186
115590,113171
115539,113176
115480,113096
115498,113100
115561,113175
115588,113174
115537,113166
115430,113112
115518,113119
115564,113193
115550,113155
115547,113171
115466,113099
115520,113146
115542,113218
115594,113166
115512,113163
115450,113121
115457,113143
115535,113164
115596,113190
115563,113160
115488,113105
115490,113152
115561,113155
115570,113222
115573,113164
115477,113136
115501,113156
115574,113188
115601,113165
115577,113187
115513,113105
115568,113144
115671,113235
115630,113227
115634,113195
115498,113138
115607,113182
115658,113248
115689,113189
115630,113216
115594,113171
115631,113191
115715,113246
115665,113244
115690,113240
115574,113166
115660,113217
115753,113238
115716,113227
115730,113246
115630,113204
115692,113210
115781,113272
115748,113255
115717,113259
115629,113159
115704,113251
115730,113253
115746,113241
115745,113235
115613,113157
115744,113255
115772,113266
115792,113266
115740,113224
115679,113195
115759,113294
115795,113283
115792,113260
115746,113214
115678,113197
115729,113266
115831,113286
115827,113262
115764,113260
115670,113171
115748,113273
115787,113287
115822,113276
115736,113266
115658,113197
115779,113295
115831,113322
115789,113280
115734,113238
115698,113195
115762,113273
115841,113282
115808,113281
115742,113270
115730,113185
115753,113298
115840,113263
115813,113284
115783,113253
115725,113212
115800,113283
115847,113314
115815,113243
115786,113251
115741,113215
115803,113313
115855,113302
115832,113312
115766,113235
115765,113226
115828,113301
115905,113301
115869,113288
115776,113268
115753,113215
115849,113286
115922,113308
115882,113263
115843,113250
115782,113266
115894,113310
115938,113304
115876,113318
115869,113263
115839,113245
115942,113321
115964,113346
115925,113283
115884,113245
115840,113249
115953,113347
115944,113324
115972,113302
115868,113252
115863,113287
115942,113304
115984,113317
115932,113341
115867,113248
115886,113272
116013,113376
115982,113350
115974,113287
115909,113298
115880,113259
116017,113347
115991,113339
115968,113346
115886,113303
115939,113308
116034,113402
116046,113336
115985,113338
115958,113281
115970,113332
116071,113344
116101,113358
116047,113361
115958,113289
115995,113322
116081,113401
116049,113347
116056,113337
115970,113288
115942,113291
115997,113297
115965,113296
115834,113298
115738,113177
115748,113243
115756,113229
115675,113181
115576,113145
115422,113101
115456,113078
115482,113086
115372,113048
115333,113052
115166,112952
115231,112936
115272,113037
115258,112996
115213,112972
115123,112889
115206,112994
115272,112986
115275,113021
115267,112954
115199,112941
115233,113018
115321,113029
115379,113065
115335,113024
115287,113010
115330,113041
115465,113070
115435,113082
115402,113018
115366,113014
115423,113074
115503,113130
115466,113085
115477,113100
115367,113017
115465,113103
115542,113107
115549,113117
115514,113090
115421,113063
115481,113055
115545,113146
115528,113117
115463,113059
115406,113049
115458,113066
115542,113134
115459,113106
115425,113069
115370,113032
115478,113078
115472,113093
115474,113053
115400,113046
115346,113006
115468,113063
115473,113087
115460,113063
115385,113002
115389,113024
115453,113059
115515,113115
115488,113079
115431,113039
115401,113028
115505,113089
115537,113120
115531,113106
115432,113044
115412,113026
115497,113119
115586,113109
115504,113082
115464,113061
115444,113053
115502,113065
115523,113128
115497,113086
115427,113045
115410,113040
115440,113104
115512,113084
115494,113105
115392,113008
115370,113009
115440,113111
115464,113102
115435,113058
115377,113004
115381,113016
115471,113066
115470,113069
115434,113090
115394,113008
115368,113051
115423,113053
115503,113079
115436,113062
115404,113029
115343,113011
115469,113107
115489,113099
115475,113043
115389,113033
115405,113050
115478,113100
115526,113130
115453,113079
115413,113012
115415,113061
115499,113126
115513,113098
115540,113083
115436,113045
115454,113077
115517,113114
115587,113139
115522,113102
115503,113072
115484,113089
115578,113150
115609,113119
115530,113136
115482,113038
115543,113114
115578,113119
115605,113164
115600,113142
115526,113056
115543,113106
115650,113151
115636,113121
115606,113136
115545,113077
115559,113106
115659,113147
115676,113150
115672,113112
115539,113070
115643,113139
115728,113156
115681,113185
115660,113171
115608,113114
115613,113115
115724,113178
115683,113160
115669,113137
115579,113120
115638,113127
115698,113174
115707,113177
115695,113104
115610,113128
115684,113157
115715,113199
115724,113174
115694,113145
115627,113139
115643,113163
115768,113170
115714,113170
115702,113151
115625,113101
115680,113167
115760,113171
115754,113215
115699,113124
115581,113109
115715,113165
115768,113159
115760,113160
115678,113176
115626,113095
115723,113171
115791,113189
115747,113200
115723,113117
115637,113140
115738,113147
115789,113212
115782,113177
115706,113121
115696,113128
115754,113205
115835,113189
115780,113208
115746,113130
115722,113117
115781,113222
115815,113197
115845,113225
115771,113161
115693,113136
115807,113183
115826,113238
115857,113204
115778,113195
115716,113155
115866,113185
115913,113231
115881,113240
115791,113156
115771,113158
115867,113231
115926,113236
115891,113228
115825,113197
115768,113167
115909,113215
115923,113262
115868,113234
115846,113200
115833,113172
115934,113264
115962,113269
115945,113249
115890,113218
115821,113166
115962,113218
115963,113298
115953,113218
115901,113192
115880,113207
115945,113249
115979,113266
115968,113250
115882,113151
115802,113170
115870,113218
115859,113221
115760,113140
115612,113075
115566,113069
115593,113085
115558,113063
115433,113000
115258,112916
115186,112897
115200,112908
115156,112861
115055,112845
114917,112732
114876,112735
114926,112790
114928,112753
114879,112749
114781,112686
114783,112737
114855,112719
114900,112786
114862,112753
114833,112722
114848,112753
114963,112821
114992,112811
115011,112808
114958,112779
114999,112804
115122,112892
115148,112867
115145,112882
115069,112848
115123,112856
115222,112892
115236,112937
115246,112895
115180,112866
115217,112927
115280,112951
115299,112968
115270,112933
115170,112871
115255,112932
115331,113009
115322,112977
115292,112949
115213,112886
115244,112963
115340,112965
115337,112969
115300,112926
115188,112906
115234,112921
115329,112953
115297,112934
115306,112933
115175,112899
115235,112913
115340,112985
115297,112926
115298,112941
115197,112906
115274,112937
115326,113002
115329,112972
115289,112949
115195,112923
115286,112910
115413,112997
115355,112973
115348,112964
115255,112887
115375,112977
115425,112982
115361,112980
115350,112952
115252,112932
115327,112949
115453,113023
115383,112953
115354,112969
115285,112938
115329,112996
115393,112974
115332,112966
115321,112935
115242,112895
115381,112970
115353,112973
115355,112974
115291,112928
115258,112888
115317,112983
115381,112981
115353,112956
115339,112935
115283,112945
115351,112999
115391,113011
115367,113006
115288,112938
115287,112960
115355,112962
115477,113034
115432,113012
115342,112952
115286,112947
115390,112974
115488,113060
115427,112996
115387,112983
115345,112951
115445,113004
115524,113045
115464,113003
115451,112982
115373,112997
115430,113036
115520,113051
115489,113036
115441,113020
115414,112957
115487,113052
115525,113060
115528,113043
115460,112974
115470,113025
115494,113063
115570,113103
115541,113031
115472,113004
115464,113028
115555,113036
115616,113086
115571,113056
115491,112998
115525,113050
115564,113093
115625,113070
115578,113087
115520,113011
115501,113040
115571,113085
115660,113079
115566,113078
115530,112986
115531,113033
115616,113086
115583,113087
115610,113071
115527,112994
115503,113068
115611,113089
115629,113073
115612,113071
115554,113025
115562,113043
115673,113118
115675,113107
115622,113058
115550,113024
115606,113057
115657,113088
115701,113091
115668,113079
115555,113039
115650,113092
115656,113107
115697,113100
115658,113101
115566,113056
115651,113058
115711,113102
115758,113135
115707,113089
115603,113020
115700,113099
115777,113162
115751,113103
115717,113107
115649,113025
115698,113151
115761,113128
115835,113167
115781,113146
115670,113095
115718,113117
115828,113153
115813,113156
115780,113129
115723,113082
115756,113126
115844,113164
115866,113182
115818,113155
115727,113078
115841,113166
115889,113201
115924,113155
115875,113158
115795,113096
115873,113156
115895,113217
115939,113175
115907,113192
115796,113124
115907,113183
115975,113227
115963,113223
115877,113187
115853,113147
115916,113215
116015,113240
115939,113217
115943,113185
115850,113151
115981,113204
116020,113278
115965,113214
115917,113192
115922,113176
115979,113242
116018,113272
116020,113241
115975,113208
115921,113172
115980,113231
116023,113266
116049,113252
115951,113186
115946,113185
115989,113248
116069,113255
116046,113265
115970,113181
115938,113182
116013,113223
116040,113251
116002,113244
115888,113161
115851,113137
115842,113181
115854,113147
115800,113147
115637,113048
115578,113011
115566,113008
115622,113036
115459,113005
115313,112910
115279,112884
115295,112910
115340,112922
115227,112857
115109,112802
115085,112842
115142,112814
115195,112846
115110,112841
115090,112788
115076,112773
115131,112866
115202,112861
115214,112888
115131,112813
115162,112826
115255,112875
115298,112945
115285,112896
115264,112874
115240,112876
115346,112951
115376,112943
115386,112960
115308,112890
115325,112904
115427,112953
115457,112993
115455,112956
115386,112911
115351,112925
115481,112999
115501,113014
115470,112980
115378,112917
115411,112929
115480,113020
115465,112972
115466,112973
115353,112913
115366,112959
115502,113008
115463,113001
115436,112957
115356,112925
115371,112925
115454,112971
115441,112974
115419,112944
115335,112920
115400,112944
115456,112976
115426,112961
115446,112959
115325,112904
115421,112960
115474,113040
115502,112957
115441,112931
115376,112930
115429,112996
115497,112995
115514,112998
115471,112992
115373,112935
115463,112955
115509,113015
115462,112969
115449,112984
115350,112924
115406,112963
115450,112985
115476,112934
115392,112981
115314,112887
115405,112945
115448,112974
115424,112961
115425,112910
115325,112892
115354,112930
115448,112980
115448,112936
115405,112944
115318,112903
115380,112909
115445,113005
115435,112956
115398,112903
115339,112913
115404,112949
115460,113007
115422,112927
115398,112940
115354,112890
115435,112982
115464,112990
115488,112957
115422,112952
115388,112934
115465,112962
115528,113007
115501,112974
115480,113016
115381,112920
115485,112950
115551,113015
115534,113003
115495,112956
115453,112939
115506,113008
115593,113047
115577,113020
115530,112983
115492,112983
115551,112994
115614,113068
115572,113024
115564,112998
115506,112971
115590,113005
115673,113042
115597,113081
115567,112990
115542,113005
115634,113034
115686,113088
115652,113040
115592,113035
115549,112997
115628,113053
115731,113078
115673,113071
115608,112993
115620,113028
115687,113062
115717,113098
115704,113060
115606,113046
115611,113005
115702,113093
115719,113077
115722,113074
115632,112995
115631,113019
115707,113058
115754,113089
115730,113095
115655,113012
115616,113026
115728,113055
115788,113107
115676,113048
115636,113018
115635,113032
115740,113098
115750,113067
115761,113066
115653,113035
115663,113020
115778,113078
115802,113071
115730,113084
115667,113005
115696,113046
115758,113057
115775,113063
115729,113099
115688,113004
115695,113060
115768,113082
115792,113088
115765,113068
115682,113020
115683,113034
115802,113108
115797,113097
115797,113054
115706,113015
115758,113075
115859,113104
115822,113143
115817,113042
115730,113030
115807,113089
115894,113114
115877,113135
115836,113067
115781,113059
115811,113103
115922,113141
115869,113109
115884,113122
115755,113055
115850,113104
115940,113139
115920,113167
115928,113101
115800,113068
115860,113121
115931,113154
115929,113122
115917,113130
115863,113089
115916,113139
115975,113175
115975,113148
115943,113142
115863,113092
115898,113134
115969,113169
115986,113162
115959,113150
115885,113083
115891,113134
115984,113156
115945,113144
115899,113128
115784,113042
115777,113092
115794,113069
115729,113058
115674,112984
115513,112918
115518,112944
115480,112956
115459,112889
115321,112844
115192,112814
115205,112804
115244,112800
115159,112777
115061,112736
114995,112712
115060,112726
115074,112742
115057,112734
114991,112708
114978,112673
115067,112734
115117,112778
115117,112747
115080,112725
115046,112714
115153,112793
115186,112821
115232,112818
115193,112753
115149,112772
115254,112816
115287,112867
115288,112851
115243,112813
115239,112818
115326,112843
115391,112872
115352,112877
115319,112844
115242,112846
115377,112880
115420,112886
115357,112886
115341,112858
115322,112845
115362,112889
115423,112912
115391,112890
115334,112831
115264,112839
115380,112905
115426,112901
115369,112867
115291,112826
115280,112845
115367,112892
115409,112901
115346,112869
115311,112847
115281,112817
115367,112884
115423,112913
115386,112877
115306,112860
115332,112864
115464,112911
115461,112950
115416,112898
115381,112844
115412,112880
115470,112960
115536,112926
115452,112887
115372,112873
115434,112857
115487,112946
115507,112915
115468,112907
115383,112869
115402,112869
115472,112911
115486,112940
115440,112870
115372,112880
115384,112868
115473,112919
115440,112925
115409,112862
115316,112838
115386,112849
115384,112931
115420,112869
115427,112896
115287,112805
115355,112839
115426,112925
115391,112882
115413,112869
115291,112863
115333,112863
115437,112935
115443,112884
115439,112893
115333,112839
115377,112865
115467,112937
115480,112919
115476,112912
115377,112840
115433,112920
115481,112913
115523,112952
115511,112911
115400,112874
115512,112941
115532,112954
115551,112960
115530,112927
115459,112890
115538,112937
115592,112988
115609,112990
115607,112945
115522,112894
115609,112975
115640,113003
115629,113004
115593,112952
115541,112939
115634,112985
115662,113005
115684,113009
115608,112953
115599,112914
115658,113010
115677,112988
115691,113012
115667,112986
115566,112914
115691,112993
115715,113035
115704,113010
115694,112976
115643,112950
115709,113034
115772,113009
115728,112998
115703,113006
115644,112945
115735,113019
115802,113027
115770,113039
115720,113005
115683,112953
115706,112998
115799,113070
115768,113032
115721,112983
115686,112973
115746,113009
115809,113068
115769,113035
115727,112998
115702,112993
115784,113036
115797,113042
115778,113033
115733,112976
115684,112998
115777,113040
115822,113059
115774,113048
115716,112988
115716,113024
115792,113031
115797,113063
115772,113049
115740,113000
115699,113002
115792,113049
115831,113075
115805,113041
115744,113010
115669,113000
115796,113047
115865,113080
115782,113040
115759,112992
115734,112984
115816,113085
115884,113102
115828,113047
115770,113025
115769,113042
115831,113073
115853,113100
115823,113057
115805,113015
115777,113032
115869,113090
115876,113092
115861,113067
115784,113013
115819,113037
115880,113093
115910,113100
115863,113068
115806,113042
115835,113053
115883,113110
115953,113091
115891,113087
115822,113039
115812,113048
115930,113102
115942,113123
115915,113078
115831,113038
115858,113065
115947,113118
115962,113132
115914,113104
115848,113054
115857,113072
115941,113119
115938,113123
115923,113110
115852,113039
115893,113070
115959,113128
115994,113127
115929,113101
115839,113049
115916,113096
115985,113133
115952,113114
115944,113098
115852,113056
115918,113093
115984,113113
115996,113121
115960,113110
115861,113027
115919,113086
115995,113144
116004,113138
115929,113093
115829,113046
115852,113058
115874,113081
115827,113043
115729,113003
115615,112937
115590,112933
115600,112951
115532,112908
115417,112856
115245,112772
115252,112781
115248,112787
115152,112746
115055,112670
114898,112608
114935,112618
114951,112665
114904,112627
114845,112580
114738,112533
114825,112595
114907,112607
114868,112599
114855,112612
114802,112551
114896,112611
114992,112653
115026,112663
114999,112650
114950,112644
115024,112693
115146,112747
115125,112713
115141,112717
115097,112707
115134,112758
115235,112745
115236,112806
115206,112766
115151,112749
115241,112801
115316,112820
115280,112843
115242,112774
115235,112759
115308,112840
115329,112822
115343,112841
115265,112789
115203,112759
115305,112793
115368,112844
115286,112839
115250,112774
115223,112785
115261,112814
115320,112842
115309,112808
115265,112782
115178,112788
115260,112814
115376,112832
115285,112854
115270,112797
115279,112801
115324,112842
115408,112829
115384,112875
115327,112817
115327,112828
115427,112840
115514,112907
115433,112837
115423,112831
115399,112866
115484,112916
115529,112888
115463,112908
115418,112829
115458,112840
115495,112933
115524,112935
115536,112917
115415,112846
115451,112880
115514,112916
115579,112924
115524,112888
115438,112851
115441,112865
115530,112892
115573,112920
115509,112894
115453,112849
115438,112878
115555,112914
115556,112928
115507,112883
115445,112852
115485,112889
115525,112938
115578,112894
115512,112926
115422,112863
115483,112883
115542,112922
115534,112918
115545,112927
115463,112862
115492,112862
115583,112975
115550,112944
115574,112947
115465,112869
115493,112866
115604,112946
115581,112961
115550,112928
115469,112843
115545,112893
115615,112964
115583,112929
115587,112934
115479,112868
115544,112900
115601,112973
115605,112916
115564,112936
115472,112899
115549,112933
115623,112972
115571,112933
115581,112927
115505,112881
115530,112897
115625,112969
115598,112952
115600,112931
115506,112870
115573,112916
115636,112946
115654,112976
115623,112927
115502,112877
115591,112945
115695,112974
115621,112943
115634,112933
115542,112895
115595,112947
115677,112960
115668,112956
115604,112925
115542,112900
115621,112955
115671,112990
115655,112976
115631,112939
115546,112901
115614,112929
115687,112996
115673,112959
115600,112917
115565,112907
115646,112931
115733,112986
115665,112949
115607,112935
115565,112918
115666,112952
115676,112991
115685,112984
115654,112928
115547,112918
115650,112942
115700,113000
115700,112983
115651,112942
115576,112929
115677,112977
115735,113001
115708,112978
115656,112954
115598,112923
115674,112955
115747,112988
115694,112992
115664,112955
115612,112934
115702,112971
115750,112992
115716,112997
115671,112952
115627,112946
115715,112992
115749,113022
115750,113010
115707,112954
115647,112939
115726,112994
115794,113026
115774,113001
115716,112940
115678,112958
115760,113031
115825,113032
115807,113016
115732,112955
115725,112971
115820,113033
115828,113027
115798,113018
115742,112972
115753,112995
115815,113053
115839,113055
115842,113036
115773,112984
115744,112979
115859,113042
115869,113035
115859,113045
115768,112983
115763,113002
115877,113067
115863,113035
115850,113023
115786,113012
115817,113010
115914,113064
115879,113058
115885,113047
115797,112980
115830,113027
115944,113094
115937,113069
115913,113054
115828,113012
115883,113066
115985,113101
115941,113081
115911,113056
115845,113012
115883,113057
115978,113083
115966,113076
115928,113057
115828,113010
115904,113061
115968,113089
115972,113085
115964,113059
115805,113009
115911,113050
115981,113081
115992,113111
115956,113089
115833,113001
115858,113026
115890,113045
115903,113063
115829,113004
115656,112919
115668,112941
115638,112936
115605,112930
115483,112854
115325,112783
115298,112778
115254,112761
115151,112681
115002,112638
114854,112543
114835,112539
114779,112550
114740,112507
114685,112480
114576,112429
114671,112490
114685,112507
114691,112496
114681,112435
114606,112428
114711,112491
114781,112553
114778,112546
114793,112548
114754,112518
114840,112585
114959,112624
114961,112617
114959,112619
114906,112584
115018,112658
115100,112691
115102,112698
115080,112665
115043,112642
115149,112735
115216,112746
115191,112720
115141,112720
115111,112683
115215,112755
115275,112769
115201,112746
115221,112761
115138,112700
115240,112757
115253,112755
115252,112737
115194,112721
115110,112708
115212,112729
115281,112768
115226,112750
115178,112708
115100,112702
115236,112767
115277,112776
115222,112764
115175,112723
115145,112711
115245,112724
115305,112797
115253,112750
115209,112711
115210,112740
115306,112796
115344,112798
115312,112765
115259,112775
115277,112751
115354,112813
115435,112843
115348,112781
115344,112803
115313,112777
115390,112830
115416,112818
115440,112800
115324,112791
115307,112771
115418,112845
115437,112833
115419,112833
115310,112764
115339,112778
115409,112840
115425,112868
115406,112796
115321,112806
115315,112799
115412,112831
115474,112857
115399,112845
115377,112815
115328,112795
115464,112842
115440,112848
115406,112852
115378,112772
115409,112825
115446,112877
115486,112825
115474,112823
115357,112812
115387,112809
115494,112888
115494,112865
115477,112813
115385,112824
115395,112821
115535,112876
115532,112867
115503,112888
115449,112819
115472,112854
115542,112857
115574,112910
115499,112880
115458,112823
115468,112867
115570,112904
115580,112923
115559,112874
115450,112850
115495,112878
115599,112931
115589,112938
115559,112858
115477,112849
115526,112869
115594,112891
115639,112921
115563,112926
115513,112823
115579,112876
115617,112942
115609,112909
115632,112906
115496,112833
115577,112913
115665,112974
115635,112913
115571,112914
115532,112865
115570,112901
115653,112946
115638,112916
115628,112889
115534,112851
115620,112930
115696,112936
115695,112934
115614,112921
115572,112869
115620,112951
115720,112934
115696,112930
115633,112930
115577,112844
115637,112921
115717,112910
115695,112918
115676,112903
115560,112905
115629,112911
115752,112937
115706,112947
115635,112925
115577,112892
115676,112925
115714,112954
115697,112919
115667,112930
115604,112850
115682,112937
115774,112951
115738,112961
115705,112891
115612,112882
115744,112939
115800,112976
115750,112973
115702,112908
115653,112883
115746,112963
115840,113002
115772,112958
115756,112911
115682,112917
115795,112984
115879,113005
115786,112982
115745,112901
115721,112919
115832,112976
115852,113003
115832,112976
115807,112987
115774,112920
115842,113004
115901,113024
115855,113029
115810,112937
115767,112953
115879,113016
115928,113009
115897,113021
115822,112928
115795,112960
115894,113000
115917,113015
115933,113002
115829,112960
115851,112963
115908,113021
115947,113035
115909,112987
115859,112980
115861,112961
115951,113031
115964,113040
115894,113003
115882,112948
115859,112982
115998,113035
115995,113015
115968,113018
115852,112996
115911,113017
115952,113048
115991,113062
115957,113047
115863,112946
115904,113005
116003,113048
115990,113014
115994,113036
115879,112979
115894,113007
115999,113049
116012,113023
115979,113039
115895,112994
115952,113033
115995,113042
116016,113056
115932,113034
115887,112954
115869,113000
115950,113034
115893,112969
115812,112949
115621,112834
115635,112873
115640,112874
115608,112831
115547,112831
115345,112737
115326,112770
115349,112751
115290,112741
115217,112672
115093,112646
115148,112651
115186,112679
115134,112654
115131,112628
115016,112591
115076,112635
115201,112684
115184,112663
115175,112645
115082,112609
115191,112664
115279,112754
115313,112695
115271,112710
115206,112692
115287,112714
115363,112746
115343,112742
115374,112725
115277,112715
115314,112721
115451,112816
115471,112790
115430,112753
115382,112766
115407,112786
115527,112821
115494,112811
115455,112760
115410,112747
115477,112800
115575,112864
115504,112797
115476,112746
115366,112766
115439,112798
115517,112802
115517,112788
115480,112811
115396,112714
115456,112803
115503,112826
115495,112799
115453,112793
115355,112710
115501,112783
115542,112869
115489,112772
115484,112770
115398,112748
115499,112810
115584,112825
115509,112802
115523,112786
115422,112773
115514,112831
115634,112874
115554,112843
115499,112793
115484,112774
115516,112782
115628,112871
115538,112770
115499,112766
115449,112734
115557,112822
115549,112861
115537,112814
115438,112746
115430,112776
115463,112788
115588,112818
115489,112800
115446,112790
115421,112766
115489,112802
115541,112786
115502,112816
115436,112734
115406,112722
115487,112790
115563,112829
115482,112791
115434,112733
115450,112780
115536,112819
115556,112803
115550,112785
115508,112760
115452,112765
115526,112832
115570,112825
115561,112802
115478,112780
115514,112792
115594,112850
115599,112840
115595,112827
115496,112800
115493,112798
115620,112858
115644,112834
115578,112813
115559,112763
115556,112860
115685,112859
115713,112888
115660,112856
115566,112816
115603,112839
115696,112862
115736,112885
115700,112905
115602,112815
115656,112875
115715,112888
115799,112902
115741,112862
115676,112848
115692,112865
115775,112911
115760,112935
115742,112894
115646,112823
115722,112903
115779,112892
115827,112959
115805,112920
115681,112863
115764,112922
115842,112942
115808,112923
115741,112905
115685,112859
115749,112895
115867,112973
115824,112921
115756,112899
115697,112865
115756,112896
115855,112960
115804,112917
115750,112909
115711,112851
115746,112892
115820,112950
115837,112914
115780,112891
115677,112849
115762,112891
115838,112940
115820,112905
115794,112899
115697,112851
115756,112894
115857,112934
115808,112919
115802,112891
115693,112907
115779,112894
115880,112926
115805,112938
115780,112917
115732,112856
115762,112887
115854,112956
115866,112907
115813,112918
115701,112894
115808,112902
115885,112937
115878,112954
115803,112905
115724,112871
115829,112949
115855,112931
115879,112954
115818,112891
115756,112889
115855,112926
115863,112944
115898,112948
115823,112892
115748,112886
115861,112922
115941,112970
115857,112939
115842,112905
115803,112893
115871,112919
115961,112988
115864,112965
115826,112908
115829,112923
115865,112949
115939,112974
115857,112953
115826,112903
115812,112892
115897,112946
115951,112992
115875,112957
115835,112932
115825,112898
115894,112969
115960,112998
115908,112952
115856,112889
115792,112906
115910,112981
115935,112966
115929,112957
115863,112912
115864,112923
115897,112931
115978,112968
115876,112990
115841,112914
115862,112926
115958,112969
115957,113013
115933,112941
115874,112894
115836,112934
115927,112937
115971,112995
115978,112961
115871,112910
115887,112924
115979,113005
116016,112991
115986,112985
115874,112916
115905,112914
115981,113003
115969,112995
115957,112957
115859,112909
115888,112916
115940,112997
115888,112937
115826,112898
115682,112806
115601,112798
115662,112827
115580,112814
115514,112719
115371,112667
115295,112664
115310,112676
115259,112614
115154,112621
115008,112516
115020,112518
115031,112555
115030,112521
114945,112504
114876,112447
114868,112454
115009,112519
115007,112551
114973,112475
114897,112459
114948,112509
115111,112568
115096,112587
115088,112529
115008,112512
115070,112603
115166,112580
115229,112622
115164,112597
115104,112541
115203,112573
115291,112675
115244,112662
115269,112678
115148,112603
115256,112670
115341,112686
115325,112681
115275,112667
115178,112604
115300,112630
115354,112722
115326,112662
115301,112696
115222,112606
115280,112620
115389,112687
115327,112691
115254,112680
115188,112600
115300,112640
115351,112719
115286,112663
115274,112661
115184,112616
115274,112655
115360,112690
115309,112703
115296,112616
115241,112616
115282,112645
115374,112694
115340,112674
115326,112657
115269,112635
115339,112704
115362,112725
115382,112686
115333,112695
115275,112638
115345,112661
115410,112713
115385,112714
115323,112645
115275,112637
115313,112707
115383,112687
115371,112719
115315,112685
115253,112637
115339,112683
115362,112701
115358,112681
115304,112629
115252,112631
115310,112694
115377,112684
115340,112680
115277,112653
115254,112645
115329,112713
115379,112679
115349,112688
115254,112620
115256,112625
115349,112678
115394,112721
115336,112707
115299,112654
115244,112656
115335,112714
115407,112741
115391,112689
115307,112673
115311,112675
115411,112742
115412,112728
115399,112671
115331,112668
115340,112666
115393,112721
