11111,11111
0,0
82322,82404
111244,108845
111155,108774
111046,108709
110947,108700
110853,108648
110761,108577
110718,108574
110592,108534
110583,108508
110488,108450
110450,108419
110378,108434
110315,108387
110291,108374
110272,108347
110253,108378
110193,108287
110218,108342
110137,108308
110175,108302
110136,108329
110178,108270
110163,108337
110151,108306
110165,108321
110190,108345
110177,108307
110223,108299
110193,108337
110196,108329
110225,108308
110209,108345
110224,108328
110236,108369
110217,108327
110247,108305
110211,108357
110228,108317
110215,108360
110243,108305
110252,108363
110233,108293
110242,108290
110209,108295
110280,108306
110211,108337
110220,108271
110229,108317
110200,108308
110192,108309
110248,108306
110191,108312
110174,108270
110215,108291
110227,108285
110209,108304
110188,108266
110212,108282
110210,108330
110176,108308
110227,108275
110198,108282
110240,108288
110226,108326
110244,108296
110226,108300
110268,108311
110234,108296
110290,108355
110276,108321
110347,108343
110306,108336
110339,108327
110309,108347
110321,108347
110362,108312
110381,108339
110360,108367
110378,108390
110343,108359
110364,108335
110345,108378
110338,108340
110345,108347
110334,108342
110326,108322
110362,108348
110317,108339
110377,108344
110346,108340
110337,108342
110335,108303
110340,108335
110296,108324
110343,108334
110288,108326
110327,108337
110301,108306
110311,108360
110306,108307
110368,108354
110280,108320
110327,108294
110340,108320
110363,108351
110332,108292
110373,108340
110341,108331
110395,108380
110368,108351
110398,108350
110446,108341
110455,108394
110464,108374
110458,108389
110474,108389
110443,108377
110489,108386
110476,108446
110494,108419
110534,108433
110517,108402
110545,108454
110868,108672
111178,108804
111199,108804
111505,108954
111480,108915
111522,108950
110381,108362
110318,108294
110233,108293
110196,108265
109972,108192
110006,108155
110020,108175
110063,108168
110028,108190
110008,108158
110065,108205
110064,108171
110057,108213
110036,108174
110109,108178
110069,108187
110109,108196
110083,108182
110116,108160
110079,108184
110091,108199
110083,108174
110149,108181
110133,108169
110123,108196
110136,108204
110124,108197
110148,108178
110164,108207
110145,108231
110137,108214
110159,108176
110145,108233
110168,108195
110209,108261
110195,108216
110196,108218
110240,108256
110228,108260
110269,108258
110297,108288
110310,108273
110328,108310
110354,108291
110361,108309
110414,108318
110405,108362
110407,108327
110456,108349
110443,108394
110449,108373
110512,108356
110458,108397
110478,108382
110469,108391
110500,108356
110565,108425
110505,108352
110547,108385
110521,108398
110527,108413
110517,108352
110507,108380
110521,108329
110504,108353
110508,108342
110481,108345
110495,108313
110495,108317
110488,108344
110467,108281
110503,108296
110475,108280
110483,108318
110507,108313
110464,108305
110503,108271
110555,108315
110538,108300
110524,108273
110596,108316
110540,108335
110576,108282
110597,108309
110605,108311
110653,108327
110634,108366
110682,108327
110682,108343
110753,108400
110761,108395
110793,108411
110776,108408
110851,108432
110882,108430
110864,108445
110911,108503
110947,108437
110946,108495
110954,108507
110996,108500
111012,108500
111036,108533
111062,108525
111086,108515
111145,108571
111119,108572
111169,108536
111154,108580
111167,108606
111192,108567
111263,108626
111271,108573
111288,108611
111297,108635
111297,108631
111332,108630
111382,108625
111357,108670
111408,108712
111385,108665
111451,108678
111435,108719
111494,108746
111524,108762
111542,108750
111552,108790
111593,108762
111594,108807
111621,108828
111622,108817
111658,108829
111668,108804
111679,108863
111731,108900
111713,108893
111774,108887
111811,108921
111796,108913
111821,108913
111865,108954
111856,108991
111897,108961
111929,109002
111917,109009
111929,109005
112003,109048
111977,109011
112003,109022
112012,109052
112014,109047
112061,109078
112055,109053
112086,109073
112071,109083
112103,109089
112113,109133
112180,109104
112157,109177
112191,109129
112219,109178
112248,109145
112242,109148
112263,109178
112287,109210
112310,109216
112346,109211
112330,109246
112358,109250
112413,109273
112428,109314
112441,109257
112465,109306
112488,109344
112515,109346
112476,109352
112558,109334
112554,109371
112578,109366
112615,109394
112643,109415
112663,109409
112686,109421
112687,109412
112737,109484
112717,109453
112758,109450
112751,109436
112803,109469
112776,109486
112858,109515
112859,109495
112850,109513
112875,109547
112890,109534
112902,109543
112945,109573
112951,109597
112960,109598
113014,109638
112990,109635
113023,109617
113019,109657
113061,109635
113030,109676
113001,109618
112988,109662
112915,109572
112834,109558
112683,109501
112592,109461
112452,109425
112327,109319
112249,109325
112107,109260
112050,109295
112024,109254
111936,109230
111929,109257
111893,109304
111772,109273
111706,109254
111577,109195
111507,109154
111379,109094
111280,109016
111163,108998
111036,108909
110923,108831
110843,108769
110735,108737
110647,108619
110579,108608
110500,108512
110435,108532
110394,108481
110304,108504
110289,108438
110270,108453
110186,108367
110162,108393
110122,108349
110099,108365
110026,108300
110002,108304
109962,108289
109951,108225
109925,108214
109845,108207
109866,108209
109849,108210
109855,108232
109819,108216
109824,108219
109842,108219
109864,108283
109868,108261
109846,108293
109873,108337
109907,108326
109958,108402
109926,108400
109987,108459
109975,108449
110043,108483
110031,108503
110121,108577
110142,108573
110181,108628
110176,108623
110243,108638
110244,108670
110241,108697
110229,108653
110237,108687
110281,108658
110228,108643
110276,108623
110215,108641
110217,108574
110224,108576
110238,108584
110197,108565
110165,108560
110119,108502
110137,108489
110104,108482
110089,108478
110052,108490
110041,108461
110044,108464
109997,108438
109997,108456
110023,108474
109970,108465
110009,108507
109965,108451
109975,108495
109969,108490
109975,108480
109990,108507
110003,108530
109982,108562
110021,108538
110029,108592
110073,108583
110111,108611
110114,108653
110120,108641
110196,108697
110213,108683
110216,108668
110266,108749
110378,108794
110371,108859
110381,108804
110472,108889
110517,108933
110526,108954
110596,108988
110689,109038
110648,109015
110694,109092
110742,109142
110799,109133
110842,109173
110866,109197
110922,109245
110939,109299
110977,109322
111035,109331
111020,109299
111108,109340
111082,109422
111146,109410
111163,109415
111167,109425
111175,109415
111277,109466
111208,109449
111264,109470
111269,109449
111279,109465
111307,109477
111306,109476
111341,109407
111314,109412
111328,109417
111349,109424
111302,109382
111344,109348
111284,109341
111257,109338
111279,109313
111244,109272
111206,109276
111198,109174
111208,109226
111156,109175
111138,109150
111124,109124
111103,109068
111114,109117
111125,109096
111109,109091
111118,109076
111061,109007
111100,109051
111108,109061
111114,109099
111172,109066
111127,109071
111207,109101
111211,109143
111227,109172
111273,109179
111264,109170
111356,109240
111382,109223
111416,109262
111434,109274
111425,109271
111491,109311
111533,109328
111541,109331
111532,109350
111556,109305
111634,109394
111619,109418
111638,109377
111670,109382
111672,109372
111661,109413
111717,109443
111720,109420
111721,109449
111755,109397
111745,109452
111725,109442
111793,109457
111764,109458
111800,109450
111814,109474
111809,109473
111835,109504
111811,109508
111823,109486
111891,109573
111892,109582
111837,109554
111885,109514
111883,109541
111926,109591
111879,109557
111949,109566
111900,109619
111919,109576
111927,109597
111896,109638
111873,109596
111789,109543
111783,109553
111672,109519
111583,109464
111533,109404
111414,109396
111349,109324
111207,109294
111098,109246
111001,109200
110901,109151
110813,109045
110672,109042
110608,109002
110479,108982
110362,108867
110301,108822
110247,108815
110147,108777
110080,108762
110006,108668
109923,108664
109942,108686
109885,108655
109839,108623
109854,108634
109788,108570
109818,108635
109775,108625
109722,108597
109769,108565
109727,108564
109757,108601
109776,108575
109724,108606
109734,108564
109747,108530
109735,108604
109794,108608
109769,108621
109831,108626
109805,108593
109825,108682
109805,108661
109825,108658
109845,108741
109855,108699
109837,108724
109825,108736
109857,108748
109867,108746
109897,108800
109852,108826
109861,108843
109858,108848
109848,108855
109863,108912
109864,108903
109828,108913
109866,108905
109865,108905
109842,108892
109835,108921
109870,108957
109866,108959
109873,108976
109883,108953
109865,108983
109891,108976
109895,108973
109914,108976
109933,108979
109922,109012
109927,108998
109903,108996
109958,108977
109922,108936
109917,108993
109915,108973
109911,108949
109930,108943
109876,108915
109895,108936
109872,108884
109830,108890
109829,108872
109771,108797
109800,108819
109747,108803
109718,108767
109682,108699
109661,108681
109578,108688
109540,108598
109482,108568
109460,108488
109361,108447
109347,108418
109294,108393
109205,108333
109184,108258
109134,108225
109043,108203
109005,108142
109007,108136
108955,108072
108967,108063
108932,108057
108948,108059
108893,108064
108904,107991
108915,107985
108904,108034
108901,107991
108916,107983
108899,108003
108916,108011
108952,108034
108962,108035
109018,108087
109010,108005
109017,108051
109018,108090
109071,108085
109065,108088
109116,108079
109105,108098
109166,108139
109157,108128
109180,108135
109177,108117
109168,108118
109220,108144
109204,108140
109250,108143
109250,108124
109230,108128
109293,108169
109274,108128
109297,108149
109273,108097
109324,108122
109303,108164
109339,108149
109306,108103
109295,108076
109345,108118
109368,108111
109364,108100
109392,108076
109394,108073
109365,108093
109369,108053
109407,108098
109392,108091
109455,108042
109460,108093
109418,108079
109495,108100
109488,108117
109491,108049
109500,108084
109543,108108
109519,108133
109556,108082
109587,108125
109566,108120
109639,108164
109603,108169
109632,108118
109665,108167
109687,108139
109701,108181
109689,108213
109721,108198
109753,108212
109757,108205
109800,108237
109790,108226
109801,108223
109806,108182
109867,108259
109812,108201
109840,108253
109847,108217
109854,108178
109897,108216
109868,108281
109913,108204
109955,108259
109922,108191
109969,108247
109975,108278
109972,108252
109989,108286
110000,108248
110019,108272
110038,108266
110030,108261
110008,108259
110038,108194
110006,108219
110000,108214
109988,108151
109919,108132
109872,108073
109796,108047
109739,107994
109658,107941
109535,107896
109480,107848
109322,107800
109276,107729
109131,107710
109038,107642
108927,107577
108874,107544
108727,107560
108636,107456
108564,107468
108502,107381
108383,107386
108348,107370
108265,107348
108237,107353
108168,107288
108163,107321
108093,107323
108042,107275
108069,107245
108020,107281
107986,107263
107999,107285
108014,107281
107980,107291
107993,107249
108007,107324
108028,107302
108018,107298
108026,107308
108077,107293
108100,107362
108069,107329
108155,107385
108148,107363
108150,107343
108171,107404
108191,107434
108199,107410
108218,107404
108253,107389
108225,107406
108207,107385
108254,107381
108234,107409
108230,107338
108245,107355
108271,107383
108223,107393
108243,107325
108266,107362
108261,107385
108259,107389
108317,107373
108324,107410
108328,107371
108420,107469
108440,107474
108463,107484
108473,107473
108533,107516
108532,107527
108571,107564
108578,107562
108589,107549
108602,107500
108618,107571
108608,107539
108689,107546
108670,107525
108651,107500
108687,107531
108720,107524
108715,107547
108679,107506
108705,107474
108719,107500
108743,107504
108750,107526
108751,107463
108794,107523
108820,107521
108835,107557
108853,107593
108860,107521
108912,107607
108915,107606
108951,107644
109003,107655
108993,107671
109054,107698
109044,107732
109073,107803
109094,107780
109084,107731
109109,107776
109152,107785
109121,107783
109168,107811
109138,107823
109162,107805
109179,107840
109192,107826
109209,107842
109181,107783
109238,107795
109208,107817
109253,107847
109263,107841
109316,107805
109308,107842
109305,107867
109386,107883
109385,107880
109412,107850
109422,107882
109427,107897
109466,107934
109536,107956
109545,107983
109546,107948
109625,108002
109632,108055
109687,108009
109707,108049
109727,108054
109775,108138
109815,108110
109849,108155
109828,108104
109841,108137
109921,108190
109895,108211
109919,108156
109958,108190
109963,108191
109958,108202
109978,108202
110006,108182
109955,108205
110023,108174
109986,108199
110011,108225
109978,108216
110000,108168
110008,108166
110073,108222
110058,108204
110071,108190
110076,108177
110115,108255
110094,108242
110123,108288
110171,108230
110182,108262
110222,108280
110207,108347
110285,108322
110296,108388
110297,108350
110339,108368
110399,108457
110434,108444
110461,108461
110461,108495
110472,108487
110533,108561
110579,108578
110656,108604
110609,108630
110676,108622
110690,108694
110741,108701
110774,108702
110758,108697
110803,108719
110815,108773
110855,108770
110869,108772
110875,108773
110870,108781
110943,108792
110934,108835
110953,108803
110935,108813
110974,108826
110995,108859
111016,108867
111055,108866
111034,108839
111050,108851
111096,108929
111113,108908
111108,108885
111117,108907
111130,108911
111170,108952
111178,108938
111173,108964
111198,108918
111241,108965
111238,108997
111243,108973
111280,109004
111214,108951
111261,108980
111267,109018
111206,108982
111220,108947
111108,108972
111037,108914
111055,108931
110934,108853
110845,108788
110699,108741
110649,108716
110582,108671
110504,108667
110370,108588
110327,108518
110214,108500
110157,108442
110077,108428
110005,108380
109914,108315
109884,108325
109809,108270
109774,108264
109749,108239
109690,108147
109693,108217
109666,108170
109619,108177
109636,108181
109637,108101
109621,108192
109592,108167
109631,108217
109642,108182
109630,108160
109615,108186
109660,108238
109665,108193
109708,108221
109697,108189
109716,108226
109744,108278
109788,108279
109804,108252
109769,108248
109812,108264
109836,108339
109863,108311
109842,108312
109895,108280
109922,108345
109906,108307
109893,108326
109942,108368
109933,108288
109941,108351
110010,108365
109990,108358
109977,108346
109990,108312
110004,108333
109987,108389
110000,108357
109991,108357
109975,108319
110009,108324
110057,108381
110064,108344
110043,108360
110060,108327
110085,108392
110089,108372
110143,108385
110113,108407
110150,108390
110137,108425
110176,108406
110204,108444
110189,108409
110250,108437
110241,108455
110231,108467
110254,108449
110239,108430
110286,108464
110294,108470
110274,108441
110302,108466
110294,108472
110310,108411
110338,108465
110314,108485
110310,108495
110278,108462
110328,108446
110296,108499
110286,108451
110311,108484
110268,108457
110282,108455
110262,108500
110308,108484
110269,108500
110287,108447
110281,108444
110295,108491
110261,108493
110312,108482
110297,108444
110313,108469
110320,108518
110368,108538
110363,108539
110382,108476
110407,108527
110415,108548
110429,108564
110445,108538
110458,108582
110489,108515
110514,108578
110508,108579
110555,108589
110523,108562
110575,108563
110566,108638
110558,108586
110562,108598
110615,108584
110602,108559
110648,108619
110622,108595
110655,108585
110684,108569
110666,108580
110640,108606
110716,108659
110669,108616
110729,108601
110725,108584
110734,108632
110738,108620
110760,108636
110759,108621
110791,108624
110765,108664
110789,108671
110808,108652
110780,108665
110835,108620
110853,108720
110849,108685
110854,108677
110886,108686
110856,108656
110941,108707
110920,108762
110955,108752
110968,108702
110981,108703
110980,108776
110998,108748
111052,108784
111017,108785
111039,108771
111061,108812
111105,108836
111085,108816
111151,108798
111122,108836
111168,108866
111123,108865
111208,108862
111161,108873
111197,108862
111238,108899
111272,108922
111286,108919
111264,108955
111287,108913
111355,109000
111338,109004
111338,109016
111396,109001
111380,109005
111437,109068
111435,109057
111418,109075
111474,109084
111487,109069
111510,109129
111485,109126
111541,109128
111528,109115
111531,109123
111571,109164
111527,109161
111567,109136
111578,109154
111573,109168
111582,109179
111580,109166
111586,109145
111605,109171
111588,109144
111575,109192
111576,109162
111596,109151
111575,109124
111490,109117
111470,109090
111377,109059
111312,109033
111269,109008
111137,108944
111109,108924
110993,108898
110913,108839
110791,108795
110752,108732
110697,108759
110599,108661
110529,108653
110427,108570
110353,108562
110360,108582
110240,108505
110201,108496
110134,108408
110095,108391
110046,108433
110011,108376
110011,108352
109945,108340
109954,108330
109942,108344
109890,108310
109923,108339
109914,108285
109888,108309
109868,108282
109907,108284
109889,108285
109865,108292
109878,108271
109936,108335
109905,108276
109905,108286
109930,108305
109917,108318
109983,108296
109935,108344
109963,108318
109975,108327
110016,108349
109990,108362
110013,108360
110046,108369
110048,108355
110053,108350
110010,108390
110053,108380
110073,108416
110064,108358
110067,108399
110061,108403
110089,108401
110078,108420
110120,108395
110088,108426
110091,108393
110078,108420
110122,108422
110131,108382
110138,108442
110090,108402
110167,108447
110184,108443
110184,108431
110171,108416
110218,108457
110212,108433
110214,108447
110263,108455
110232,108480
110299,108507
110265,108479
110309,108476
110321,108478
110353,108516
110325,108555
110350,108517
110418,108523
110368,108543
110392,108551
110391,108562
110417,108555
110403,108565
110399,108492
110419,108586
110388,108552
110387,108546
110399,108532
110426,108523
110391,108573
110401,108529
110389,108534
110343,108534
110376,108513
110404,108531
110325,108558
110363,108538
110342,108528
110371,108488
110349,108539
110352,108507
110354,108484
110369,108551
110346,108470
110363,108523
110358,108549
110359,108501
110386,108522
110381,108492
110415,108551
110430,108558
110430,108559
110466,108594
110446,108528
110478,108596
110497,108575
110509,108576
110516,108601
110536,108593
110559,108647
110599,108613
110601,108674
110587,108641
110654,108676
110632,108679
110667,108717
110670,108704
110706,108730
110755,108692
110725,108743
110760,108753
110786,108766
110776,108794
110818,108748
110851,108825
110834,108818
110822,108800
110879,108801
110859,108793
110890,108817
110903,108874
110887,108822
110913,108816
110939,108800
110976,108869
110929,108841
110947,108858
110984,108871
110972,108801
110994,108863
110993,108868
111036,108857
111030,108863
111023,108840
111082,108901
111040,108935
111095,108891
111097,108890
111067,108926
111106,108917
111093,108926
111144,108921
111150,108962
111180,108938
111150,108961
111183,108966
111170,108993
111229,108983
111233,108988
111271,108998
111235,109018
111284,109004
111257,109029
111300,108988
111332,109059
111302,109037
111328,109043
111367,109013
111381,109066
111335,109070
111385,109063
111346,109048
111395,109084
111426,109065
111421,109130
111428,109073
111464,109128
111448,109111
111474,109097
111471,109115
111473,109140
111494,109134
111478,109116
111520,109111
111517,109138
111550,109166
111575,109150
111546,109168
111624,109178
111606,109210
111641,109235
111663,109225
111667,109246
111685,109242
111668,109285
111710,109264
111721,109295
111723,109286
111749,109303
111703,109317
111719,109319
111656,109327
111627,109272
111608,109277
111555,109268
111502,109235
111452,109192
111369,109174
111328,109132
111250,109137
111137,109066
111068,109071
111039,109008
110956,109011
110858,108970
110841,108989
110746,108928
110703,108919
110676,108857
110644,108915
110642,108868
110579,108856
110538,108834
110538,108822
110490,108869
110488,108841
110473,108827
110457,108797
110460,108813
110422,108863
110460,108836
110445,108834
110451,108828
110453,108835
110455,108862
110461,108895
110464,108861
110494,108868
110456,108866
110485,108900
110504,108905
110521,108913
110480,108868
110483,108870
110487,108937
110487,108922
110448,108893
110487,108875
110486,108858
110474,108862
110461,108893
110431,108853
110483,108858
110460,108820
110449,108851
110437,108881
110420,108836
110427,108799
110430,108828
110436,108823
110443,108819
110447,108817
110406,108811
110397,108812
110456,108825
110421,108799
110447,108803
110460,108802
110458,108816
110430,108845
110457,108805
110519,108819
110480,108833
110519,108846
110504,108840
110517,108906
110522,108820
110582,108865
110581,108852
110582,108898
110603,108878
110616,108886
110584,108897
110626,108880
110653,108940
110623,108907
110659,108915
110667,108900
110697,108934
110647,108947
110686,108934
110642,108948
110700,108953
110665,108933
110679,108955
110660,108956
110687,108931
110696,108932
110700,108956
110671,108973
110686,108926
110686,108950
110654,108904
110665,108938
110670,108944
110689,108941
110686,108939
110649,108920
110681,108904
110674,108939
110673,108933
110660,108904
110719,108936
110668,108926
110692,108925
110714,108936
110677,108911
110704,108911
110719,108914
110759,108961
110760,108925
110760,108935
110786,108938
110779,108965
110794,108934
110829,108986
110810,108948
110809,108976
110805,108973
110879,109000
110871,109002
110890,108987
110888,108979
110912,109027
110939,109030
110921,109034
110961,109002
110973,109043
111001,109039
110972,109074
111043,109063
111061,109085
111051,109037
111119,109089
111090,109143
111089,109143
111132,109108
111169,109095
111136,109143
111155,109131
111155,109128
111206,109121
111198,109113
111198,109142
111236,109109
111226,109175
111254,109166
111230,109109
111275,109163
111250,109178
111301,109188
111345,109152
111319,109175
111336,109185
111355,109217
111354,109204
111398,109201
111354,109190
111405,109226
111421,109244
111434,109229
111428,109231
111468,109259
111459,109235
111495,109295
111502,109280
111532,109278
111499,109275
111542,109263
111545,109319
111554,109312
111561,109280
111569,109275
111626,109299
111601,109297
111644,109334
111621,109309
111623,109281
111665,109354
111677,109360
111666,109322
111699,109322
111719,109293
111710,109332
111766,109321
111745,109365
111708,109280
111785,109300
111754,109287
111764,109294
111733,109274
111778,109269
111755,109197
111771,109239
111760,109225
111736,109216
111789,109210
111756,109177
111794,109160
111761,109153
111778,109151
111777,109150
111753,109066
111803,109112
111796,109099
111781,109118
111803,109045
111786,109003
111793,109038
111771,109041
111780,108978
111839,109003
111777,108984
111823,109012
111832,108981
111807,108977
111765,108914
111796,108935
111713,108899
111655,108856
111526,108753
111385,108687
111201,108578
110986,108484
110862,108398
110755,108313
110536,108231
110468,108153
110343,108109
110267,108013
110207,108021
110084,107951
110072,107907
109965,107916
109932,107858
109929,107859
109864,107812
109856,107776
109847,107769
109774,107729
109786,107748
109729,107684
109742,107691
109720,107716
109750,107725
109711,107677
109788,107677
109744,107593
109758,107627
109722,107643
109732,107622
109738,107614
109725,107569
109780,107598
109794,107582
109799,107598
109748,107579
109823,107556
109829,107625
109823,107570
109832,107577
109824,107552
109826,107554
109871,107558
109837,107568
109852,107509
109845,107507
109820,107494
109865,107530
109869,107515
109812,107490
109828,107430
109754,107397
109805,107415
109740,107419
109731,107386
109762,107353
109709,107365
109713,107369
109734,107352
109732,107317
109760,107331
109711,107312
109788,107346
109762,107342
109787,107355
109810,107333
109872,107376
109872,107445
109933,107431
109941,107462
109954,107465
109985,107484
110113,107571
110100,107545
110146,107607
110194,107580
110201,107613
110236,107690
110288,107712
110283,107734
110316,107773
110336,107797
110390,107837
110383,107845
110375,107840
110412,107902
110394,107886
110421,107909
110429,107946
110376,107916
110390,107906
110345,107928
110428,107944
110387,107931
110364,107927
110288,107892
110316,107869
110328,107906
110292,107839
110299,107849
110224,107820
110231,107814
110240,107833
110231,107756
110257,107800
110161,107744
110208,107756
110230,107730
110266,107755
110190,107750
110189,107698
110211,107702
110262,107740
110236,107694
110242,107719
110208,107670
110271,107706
110275,107714
110243,107724
110267,107667
110228,107709
110261,107670
110313,107730
110334,107694
110306,107702
110318,107670
110335,107733
110369,107734
110370,107727
110368,107743
110385,107688
110395,107732
110406,107756
110452,107749
110456,107782
110453,107772
110497,107795
110491,107838
110536,107804
110597,107862
110563,107862
110645,107899
110640,107945
110685,107916
110685,107972
110653,107906
110715,107975
110750,107993
110753,107981
110741,108022
110742,107919
110790,107979
110774,108036
110826,108020
110789,108028
110773,108030
110806,108042
110885,108059
110839,108072
110852,108062
110835,108077
110882,108077
110920,108125
110891,108075
110937,108124
110892,108134
110928,108137
110984,108116
110966,108200
110930,108151
110972,108154
110990,108218
111029,108219
111030,108208
111026,108222
110995,108211
111084,108263
111118,108281
111106,108286
111095,108283
111112,108294
111171,108335
111187,108358
111202,108374
111232,108391
111237,108362
111281,108420
111309,108455
111342,108452
111331,108465
111334,108442
111369,108489
111401,108519
111393,108522
111414,108514
111350,108479
111430,108518
111407,108508
111327,108495
111305,108434
111194,108407
111158,108372
111085,108373
111005,108324
110873,108291
110828,108252
110739,108245
110702,108234
110575,108194
110533,108127
110432,108123
110419,108113
110392,108077
110295,108059
110276,108032
110175,107975
110207,108012
110155,108014
110138,107974
110130,107978
110099,107908
110114,107958
110121,107964
110138,107973
110071,107943
110056,107975
110129,107979
110141,108012
110149,107986
110122,108015
110145,107937
110176,108014
110193,108050
110169,107991
110211,107981
110172,107968
110252,108015
110231,108027
110235,108017
110248,107983
110213,108023
110276,108026
110274,108068
110312,108025
110258,108058
110282,108007
110264,108027
110313,108055
110292,108035
110292,108001
110239,107961
110307,108023
110232,108003
110293,108000
110289,107979
110211,107960
110275,107994
110255,107992
110255,108003
110232,107929
110227,107964
110264,107992
110296,108044
110239,107998
110301,107986
110273,107993
110328,108065
110336,108054
110360,108041
110323,108073
110368,108045
110408,108073
110382,108096
110393,108060
110418,108080
110430,108048
110398,108056
110425,108048
110385,108045
110412,108063
110385,107974
110401,108025
110400,108025
110348,108003
110303,107919
110300,107941
110278,107940
110289,107925
110263,107882
110283,107885
110249,107859
110266,107872
110255,107854
110286,107879
110210,107864
110270,107848
110263,107906
110308,107931
110335,107911
110252,107957
110296,107947
110367,107979
110362,107964
110364,107974
110344,107952
110405,108017
110377,108033
110428,108027
110401,107987
110426,108015
110395,107986
110411,108032
110401,108023
110435,107997
110418,107972
110392,107965
110436,108005
110428,107981
110405,107961
110374,107935
110409,107920
110380,107923
110378,107902
110363,107924
110327,107838
110321,107871
110375,107887
110339,107874
110375,107906
110348,107829
110349,107895
110386,107874
110400,107873
110417,107903
110392,107888
110436,107886
110441,107960
110454,107913
110449,107926
110434,107910
110469,107968
110445,107945
110512,107951
110445,107974
110460,107924
110456,107928
110436,107930
110467,107915
110438,107911
110422,107845
110429,107841
110458,107867
110387,107835
110382,107822
110372,107789
110334,107779
110379,107763
110353,107778
110349,107766
110312,107708
110298,107715
110306,107692
110269,107656
110285,107671
110275,107630
110255,107641
110262,107573
110240,107610
110230,107567
110176,107549
110207,107524
110184,107560
110201,107502
110181,107511
110136,107459
110123,107459
110206,107483
110174,107477
110193,107448
110127,107409
110202,107463
110176,107457
110240,107449
110204,107450
110199,107430
110248,107436
110262,107496
110312,107476
110299,107485
110337,107506
110312,107521
110370,107527
110375,107545
110401,107535
110413,107522
110470,107599
110458,107554
110490,107622
110468,107555
110477,107581
110498,107594
110550,107612
110501,107618
110526,107600
110530,107564
110583,107598
110607,107626
110598,107635
110593,107608
110599,107614
110633,107629
110650,107653
110677,107623
110669,107657
110618,107572
110667,107646
110645,107636
110638,107624
110540,107591
110534,107535
110411,107540
110329,107471
110230,107407
110102,107352
109984,107311
109907,107271
109807,107235
109744,107208
109668,107162
109574,107108
109543,107137
109470,107054
109427,107069
109344,107017
109289,106978
109292,107010
109262,107012
109187,106982
109191,106965
109140,106937
109133,106967
109167,106999
109142,106948
109150,106940
109091,106957
109164,106980
109181,107004
109182,107012
109157,107021
109200,106997
109216,107054
109243,107042
109237,107088
109274,107050
109241,107067
109291,107101
109286,107054
109251,107095
109286,107068
109249,107008
109298,107075
109277,107081
109224,107042
109281,107042
109224,106982
109252,107039
109227,107052
109220,106990
109204,106987
109181,106946
109192,106986
109189,106989
109144,106970
109185,106943
109143,106949
109179,106965
109203,106963
109168,106945
109186,106941
109214,106923
109207,107011
109211,106967
109215,106978
109252,107001
109226,106952
109287,107031
109267,106999
109317,107036
109337,107011
109329,107005
109409,107077
109384,107030
109394,107069
109382,107022
109367,107060
109421,107059
109424,107059
109468,107086
109426,107086
109431,107054
109428,107074
109465,107082
109466,107072
109396,107018
109453,107038
109434,107047
109409,107008
109396,107013
109410,107006
109353,107007
109351,106977
109380,107001
109359,106989
109331,106983
109318,106988
109327,106992
109395,107029
109353,106983
109353,106992
109312,107020
109346,107043
109407,107083
109361,107008
109373,107007
109360,107034
109439,107074
109403,107073
109438,107096
109408,107071
109418,107069
109498,107136
109461,107115
109490,107103
109499,107136
109480,107103
109570,107153
109544,107170
109547,107149
109559,107130
109550,107172
109588,107146
109624,107163
109629,107192
109610,107145
109652,107166
109666,107209
109675,107180
109691,107166
109689,107182
109677,107174
109727,107196
109740,107171
109724,107221
109710,107180
109743,107195
109778,107231
109802,107215
109812,107229
109805,107256
109825,107220
109855,107258
109887,107269
109927,107307
109881,107250
109925,107311
109948,107307
109957,107326
109977,107347
109945,107296
110002,107345
110004,107335
110029,107337
110049,107350
109997,107348
110052,107319
110084,107375
110068,107370
110124,107376
110080,107348
110138,107369
110082,107385
110139,107377
110131,107397
110100,107342
110130,107381
110160,107386
110140,107396
110150,107364
110169,107385
110166,107373
110198,107386
110200,107370
110157,107375
110198,107355
110215,107366
110227,107387
110220,107393
110254,107418
110238,107392
110266,107395
110294,107418
110264,107405
110294,107420
110299,107418
110322,107419
110314,107440
110355,107463
110369,107472
110354,107450
110380,107449
110411,107514
110432,107506
110444,107495
110456,107475
110447,107515
110510,107531
110488,107553
110463,107518
110513,107532
110497,107555
110549,107564
110532,107522
110552,107527
110544,107537
110593,107541
110593,107576
110602,107580
110625,107556
110625,107543
110615,107566
110628,107604
110614,107521
110599,107508
110528,107512
110468,107479
110403,107438
110320,107390
110199,107332
110057,107282
109939,107237
109906,107204
109799,107138
109712,107093
109600,107030
109528,107000
109486,106985
109413,106926
109338,106907
109241,106804
109191,106838
109177,106811
109071,106781
109024,106716
108970,106675
108988,106686
108991,106690
108915,106640
108931,106694
108919,106623
108930,106671
108929,106681
108934,106686
108917,106677
108920,106642
109007,106708
108967,106764
109024,106730
109032,106717
109015,106703
109059,106765
109060,106788
109129,106796
109103,106774
109122,106774
109138,106813
109158,106853
109158,106808
109165,106827
109160,106835
109203,106810
109216,106870
109201,106833
109199,106849
109191,106863
109204,106833
109214,106876
109231,106855
109189,106831
109181,106841
109214,106839
109230,106877
109200,106825
109209,106837
109174,106791
109242,106857
109197,106820
109204,106857
109240,106825
109198,106802
109250,106830
109204,106863
109242,106858
109240,106845
109237,106839
109312,106878
109297,106866
109332,106897
109316,106885
109393,106922
109384,106939
109443,106935
109449,106970
109479,106995
109505,107004
109507,107017
109517,107067
109534,107058
109553,107068
109529,107032
109603,107092
109616,107115
109617,107110
109640,107118
109593,107106
109664,107166
109631,107167
109610,107152
109638,107175
109618,107146
109622,107190
109622,107161
109598,107201
109581,107125
109557,107151
109569,107157
109574,107128
109566,107137
109514,107075
109534,107085
109572,107094
109532,107099
109503,107061
109519,107037
109483,107021
109562,107082
109569,107092
109545,107093
109627,107120
109605,107143
109695,107166
109705,107215
109717,107257
109763,107235
109780,107270
109832,107274
109885,107335
109851,107286
109865,107275
109833,107319
109902,107340
109944,107325
109903,107345
109899,107337
109914,107309
109945,107346
109980,107344
109984,107382
109961,107343
109998,107359
110037,107366
110017,107399
110009,107370
110088,107392
110036,107423
110071,107426
110094,107445
110099,107414
110106,107394
110081,107373
110160,107434
110121,107427
110087,107389
110091,107381
110069,107334
110109,107391
110049,107342
110046,107330
110047,107299
110003,107296
110022,107334
110084,107334
110047,107355
110080,107315
110072,107308
110136,107377
110131,107411
110139,107405
110162,107380
110189,107398
110253,107477
110252,107498
110251,107458
110255,107498
110301,107470
110312,107535
110352,107561
110342,107566
110353,107524
110356,107569
110377,107545
110435,107588
110445,107592
110415,107565
110430,107600
110450,107580
110495,107640
110479,107573
110460,107570
110454,107582
110457,107569
110514,107599
110455,107558
110466,107543
110477,107553
110512,107604
110507,107594
110515,107518
110525,107564
110496,107533
110555,107569
110555,107570
110534,107549
110538,107506
110548,107564
110577,107596
110572,107543
110570,107533
110592,107531
110583,107544
110655,107546
110632,107546
110608,107539
110615,107539
110529,107507
110536,107474
110469,107488
110404,107391
110278,107336
110181,107307
110148,107275
110004,107248
109931,107188
109808,107123
109735,107074
109671,107035
109620,107049
109484,106960
109413,106908
109362,106884
109283,106853
109232,106813
109178,106804
109070,106729
109084,106730
109048,106741
108973,106703
108947,106687
108941,106605
108903,106652
108902,106627
108878,106653
108846,106616
108874,106589
108866,106628
108860,106571
108832,106622
108867,106598
108839,106546
108866,106561
108894,106601
108869,106546
108930,106576
108868,106534
108876,106575
108905,106615
108928,106569
108911,106595
108896,106507
108931,106549
108907,106564
108908,106560
108881,106499
108925,106536
108881,106487
108927,106531
108852,106504
108877,106463
108829,106442
108904,106467
108819,106465
108842,106378
108827,106428
108837,106380
108810,106420
108820,106394
108811,106406
108837,106407
108860,106346
108857,106405
108877,106437
108900,106409
108895,106434
108888,106405
108908,106441
108992,106498
109008,106454
109015,106488
109004,106467
109046,106459
109091,106549
109066,106529
109135,106541
109105,106547
109133,106533
109156,106580
109200,106584
109172,106577
109167,106541
109201,106602
109169,106566
109147,106592
109142,106577
109142,106578
109115,106618
109129,106564
109115,106603
109093,106575
109144,106564
109134,106619
109096,106569
109131,106635
109121,106585
109141,106607
109169,106650
109140,106651
109174,106674
109139,106667
109158,106651
109193,106657
109179,106693
109201,106691
109214,106682
109169,106673
109241,106706
109225,106691
109216,106714
109210,106683
109195,106706
109255,106703
109254,106728
109258,106716
109244,106706
109233,106701
109236,106681
109310,106722
109271,106695
109261,106690
109271,106678
109264,106693
109333,106718
109275,106707
109324,106687
109345,106674
109349,106733
109368,106740
109370,106728
109383,106735
109356,106723
109418,106765
109444,106781
109436,106813
109433,106784
109503,106799
109468,106831
109492,106833
109523,106835
109534,106834
109516,106836
109605,106876
109589,106904
109622,106892
109594,106885
109607,106910
109637,106886
109662,106955
109654,106893
109631,106892
109635,106849
109647,106901
109676,106866
109644,106889
109641,106880
109658,106830
109701,106865
109651,106879
109676,106828
109674,106853
109666,106821
109712,106853
109700,106887
109723,106861
109696,106835
109686,106842
109752,106851
109743,106845
109722,106855
109752,106847
109758,106834
109783,106883
109813,106838
109786,106869
109796,106826
109783,106841
109823,106861
109845,106870
109859,106869
109855,106870
109849,106881
109900,106914
109916,106899
109941,106938
109964,106933
109948,106929
109973,106959
110024,106966
110025,106982
110068,106984
110068,106978
110132,107030
110158,107044
110138,107044
110173,107043
110159,107059
110220,107095
110186,107038
110215,107068
110193,107059
110179,107053
110219,107054
110148,107044
110137,107020
110047,106965
109995,106924
109934,106921
109811,106878
109742,106819
109598,106728
109521,106734
109434,106680
109372,106598
109278,106607
109177,106551
109066,106496
109022,106511
108939,106480
108850,106452
108756,106343
108708,106372
108676,106346
108602,106345
108542,106308
108497,106215
108396,106242
108417,106246
108413,106203
108364,106191
108314,106180
108314,106175
108297,106170
108322,106198
108303,106176
108280,106160
108260,106160
108335,106181
108300,106221
108342,106196
108319,106176
108371,106200
108358,106257
108370,106199
108396,106232
108356,106176
108384,106197
108426,106273
108403,106200
108408,106226
108359,106222
108387,106227
108408,106218
108393,106228
108384,106197
108412,106198
108407,106213
108413,106208
108411,106220
108425,106205
108375,106204
108420,106191
108463,106252
108433,106216
108417,106215
108438,106174
108459,106197
108473,106258
108447,106209
108478,106239
108434,106201
108503,106217
108531,106245
108497,106186
108547,106226
108508,106235
108551,106213
108527,106244
108558,106259
108589,106261
108572,106199
108621,106239
108632,106275
108662,106241
108683,106270
108628,106218
108703,106274
108702,106274
108735,106279
108698,106260
108736,106287
108724,106317
108744,106300
108751,106304
108738,106310
108753,106296
108729,106283
108781,106330
108718,106318
108713,106318
108733,106321
108755,106311
108740,106368
108734,106318
108752,106358
108742,106315
108717,106364
108791,106394
108768,106390
108758,106376
108820,106420
108816,106429
108850,106432
108796,106475
108871,106457
108836,106487
108876,106469
108918,106539
108957,106531
108957,106578
108934,106504
109003,106595
108994,106572
109049,106611
109066,106623
109052,106581
109135,106643
109123,106694
109144,106624
109120,106656
109152,106649
109162,106672
109236,106688
109205,106694
109198,106677
109196,106673
109246,106733
109280,106710
109267,106748
109294,106715
109325,106738
109348,106762
109404,106785
109362,106793
109393,106776
109417,106814
109409,106821
109482,106849
109498,106845
109460,106841
109518,106851
109509,106918
109541,106873
109559,106892
109541,106885
109555,106880
109596,106952
109614,106883
109600,106936
109613,106921
109596,106881
109619,106920
109673,106957
109618,106929
109684,106924
109624,106942
109634,106967
109703,106996
109682,106946
109690,106939
109674,106958
109742,106967
109719,106978
109756,106996
109706,106969
109781,106967
109752,107012
109785,106974
109805,107024
109808,107014
109790,107049
109838,107034
109901,107087
109903,107052
109896,107057
109871,107109
109932,107089
109993,107131
109964,107124
109989,107136
109993,107147
110026,107159
110085,107222
110066,107162
110100,107193
110076,107185
110152,107241
110142,107249
110147,107257
110159,107221
110172,107283
110172,107277
110244,107291
110216,107301
110211,107291
110231,107267
110215,107283
110230,107295
110195,107282
110140,107220
110035,107234
110001,107169
109947,107174
109844,107142
109733,107044
109643,107024
109529,106969
109479,106930
109372,106884
109258,106830
109139,106770
109128,106765
109021,106748
108983,106686
108851,106658
108794,106585
108743,106592
108700,106563
108640,106558
108599,106486
108515,106484
108537,106509
108508,106501
108469,106444
108467,106449
108419,106413
108460,106464
108434,106469
108438,106458
108430,106426
108422,106403
108478,106454
108450,106478
108431,106462
108465,106467
108466,106432
108507,106485
108480,106487
108502,106498
108490,106474
108497,106457
108536,106509
108504,106484
108556,106497
108507,106491
108492,106483
108535,106474
108531,106499
108485,106452
108512,106476
108477,106430
108492,106446
108487,106470
108513,106455
108482,106432
108440,106409
108504,106441
108478,106456
108481,106453
108458,106389
108488,106448
108462,106435
108501,106435
108504,106416
108484,106407
108525,106412
108517,106468
108525,106415
108558,106430
108540,106444
108590,106421
108596,106475
108640,106494
108631,106443
108614,106462
108619,106485
108664,106497
108695,106508
108659,106481
108691,106462
108678,106485
108729,106543
108697,106549
108692,106522
108736,106527
108691,106501
108715,106554
108760,106578
108724,106520
108702,106541
108714,106527
108765,106561
108737,106543
108741,106548
108697,106532
108719,106552
108697,106586
108720,106553
108720,106586
108728,106540
108710,106599
108773,106614
108749,106587
108776,106592
108759,106609
108801,106605
108807,106643
108807,106624
108850,106627
108798,106665
108833,106667
108858,106678
108903,106671
108904,106719
108870,106669
108958,106716
108985,106768
108963,106745
108982,106795
109010,106746
109018,106769
109062,106822
109048,106781
109074,106812
109096,106796
109105,106823
109095,106826
109131,106853
109107,106818
109112,106820
109151,106841
109140,106857
109173,106801
109149,106858
109164,106812
109157,106829
109208,106865
109219,106852
109219,106872
109191,106828
109229,106896
109296,106905
109287,106900
109310,106947
109298,106887
109326,106954
109362,106968
109395,107000
109386,107003
109417,107018
109429,107025
109519,107067
109526,107048
109525,107086
109499,107063
109529,107089
109568,107099
109538,107125
109564,107127
109572,107106
109576,107104
109621,107118
109590,107120
109637,107117
109629,107112
109643,107114
109644,107128
109666,107144
109649,107131
109658,107134
109702,107143
109683,107177
109702,107145
109686,107145
109696,107148
109745,107164
109752,107181
109715,107169
109761,107153
109742,107174
109817,107153
109824,107195
109792,107190
109803,107157
109819,107158
109834,107203
109811,107159
109859,107199
109818,107155
109844,107128
109842,107174
109852,107160
109801,107147
109808,107134
109790,107087
109719,107085
109670,107072
109597,107046
109535,107030
109456,106943
109381,106953
109336,106905
109249,106909
109143,106866
109033,106791
108991,106795
108899,106749
108821,106716
108723,106678
108634,106617
108576,106598
108473,106599
108435,106550
108352,106495
108246,106473
108236,106461
108207,106448
108106,106397
108100,106357
108040,106343
108038,106355
107998,106350
107969,106303
107966,106308
107927,106270
107937,106291
107922,106275
107908,106281
107924,106261
107920,106242
107933,106281
107958,106285
107918,106271
107947,106290
107972,106302
107973,106301
107997,106299
108001,106334
107985,106323
108007,106338
108013,106338
108047,106375
108035,106358
108043,106388
108052,106372
108096,106410
108105,106408
108119,106400
108126,106421
108109,106392
108119,106438
108117,106460
108165,106462
108153,106501
108126,106440
108162,106510
108194,106543
108185,106492
108190,106508
108184,106513
108238,106556
108251,106550
108296,106598
108257,106570
108330,106600
108371,106621
108361,106660
108365,106609
108402,106628
108361,106611
108451,106662
108438,106677
108444,106675
108439,106646
108467,106678
108470,106675
108457,106666
108460,106660
108478,106649
108444,106621
108500,106651
108471,106666
108472,106665
108495,106640
108493,106616
108517,106660
108535,106673
108493,106696
108470,106623
108486,106660
108489,106696
108472,106689
108534,106671
108485,106686
108525,106646
108510,106714
108527,106702
108489,106684
108504,106697
108457,106675
108533,106684
108521,106667
108528,106688
108478,106627
108495,106676
108489,106641
108532,106642
108507,106641
108528,106636
108489,106593
108548,106636
108535,106671
108560,106629
108584,106611
108565,106668
108635,106672
108647,106645
108703,106679
108698,106714
108744,106721
108769,106739
108822,106741
108817,106756
108861,106761
108849,106732
108902,106796
108947,106802
108969,106800
108942,106796
108974,106804
109038,106854
109023,106834
109044,106862
109058,106824
109035,106826
109084,106821
109100,106861
109109,106814
109093,106814
109141,106832
109137,106877
109162,106835
109168,106823
109131,106796
109116,106834
109216,106872
109209,106847
109177,106863
109174,106806
109226,106837
109219,106867
109223,106882
109223,106825
109272,106868
109254,106827
109286,106880
109282,106908
109271,106875
109303,106869
109284,106907
109323,106914
109308,106919
109335,106885
109346,106931
109365,106915
109382,106967
109351,106952
109367,106936
109387,106962
109406,106938
109434,106998
109394,106985
109463,106989
109458,107012
109463,106977
109484,107030
109499,107035
109496,107022
109506,107021
109523,107028
109519,107078
109545,107083
109530,107064
109559,107054
109537,107055
109590,107110
109597,107113
109532,107089
109575,107029
109581,107074
109593,107050
109550,107084
109570,107042
109592,107052
109581,107039
109585,107041
109597,107020
109593,107002
109599,107026
109640,107037
109630,107057
109614,107065
109625,107039
109613,107064
109691,107085
109696,107118
109721,107104
109748,107120
109711,107073
109711,107110
109731,107107
109693,107072
109662,107109
109528,107003
109511,107040
109428,106995
109313,106940
109188,106903
109089,106806
108991,106803
108914,106773
108798,106704
108638,106655
108510,106602
108383,106559
108347,106483
108194,106480
108124,106407
108006,106336
107941,106342
107816,106272
107765,106304
107668,106210
107627,106194
107578,106158
107549,106170
107522,106170
107469,106137
107449,106132
107444,106140
107445,106142
107397,106095
107433,106114
107386,106118
107407,106151
107447,106138
107439,106142
107449,106166
107413,106097
107472,106169
107441,106179
107509,106188
107472,106166
107467,106145
107531,106189
107528,106235
107546,106190
107583,106220
107550,106221
107604,106257
107604,106284
107653,106291
107654,106297
107673,106291
107686,106320
107709,106335
107744,106372
107703,106354
107739,106345
107781,106392
107784,106420
107786,106412
107797,106420
107783,106403
107841,106465
107811,106461
107859,106466
107841,106460
107835,106415
107904,106480
107881,106505
107924,106514
107884,106486
107902,106514
107945,106491
108012,106565
107987,106532
107999,106539
108024,106600
108095,106585
108098,106647
108115,106608
108138,106656
108134,106621
108168,106685
108159,106659
108170,106668
108148,106643
108159,106664
108193,106665
108164,106681
108188,106662
108165,106681
108128,106599
108165,106677
108148,106668
108136,106627
108147,106676
108107,106575
108162,106654
108121,106663
108115,106673
108093,106619
108117,106616
108112,106647
108113,106595
108147,106644
108127,106605
108101,106579
108100,106617
108172,106634
108104,106591
108134,106563
108147,106540
108177,106592
108145,106588
108185,106568
108170,106588
108184,106540
108207,106581
108231,106602
108226,106598
108268,106562
108280,106621
108322,106600
108352,106633
108387,106658
108369,106682
108416,106631
108446,106713
108452,106679
108507,106713
108531,106703
108524,106714
108598,106759
108573,106757
108618,106775
108620,106752
108636,106767
108666,106771
108709,106788
108683,106781
108740,106773
108712,106733
108791,106836
108777,106824
108783,106769
108802,106808
108808,106782
108866,106815
108872,106859
108866,106844
108925,106827
108897,106891
108972,106888
108967,106902
108978,106918
109022,106924
109013,106926
109107,106976
109087,107001
109113,107032
109128,106993
109169,107005
109204,107068
109216,107016
109233,107062
109214,107051
109276,107071
109300,107080
109285,107081
109323,107086
109333,107106
109334,107109
109354,107150
109407,107160
109385,107125
109430,107129
109410,107138
109472,107189
109452,107228
109450,107177
109532,107197
109508,107218
109555,107246
109563,107259
109568,107248
109600,107242
109594,107251
109674,107312
109663,107315
109694,107333
109662,107330
109718,107335
109699,107384
109725,107349
109725,107393
109718,107341
109807,107376
109796,107421
109791,107382
109849,107425
109828,107433
109859,107437
109854,107456
109851,107435
109897,107452
109885,107463
109883,107466
109931,107465
109961,107492
109940,107472
109943,107473
109967,107495
109977,107512
109962,107502
109953,107501
109922,107501
109956,107486
109871,107478
109818,107459
109755,107390
109683,107370
109615,107343
109503,107324
109433,107253
109310,107238
109220,107174
109141,107132
109015,107106
108935,107056
108834,107027
108677,106949
108634,106927
108526,106882
108439,106865
108351,106784
108216,106740
108167,106720
108144,106684
108026,106669
107966,106629
107922,106587
107884,106564
107876,106572
107841,106522
107804,106536
107775,106525
107792,106501
107794,106549
107744,106521
107774,106498
107772,106487
107793,106570
107789,106518
107822,106569
107808,106557
107843,106560
107839,106580
107868,106606
107868,106564
107926,106594
107882,106595
107903,106573
107959,106617
107925,106618
107946,106625
107956,106613
107957,106629
107996,106668
107964,106614
107984,106656
107946,106629
107964,106642
108037,106659
107986,106668
107992,106673
108034,106646
108016,106718
108006,106678
108043,106704
108041,106680
108048,106676
108059,106722
108091,106729
108100,106714
108111,106727
108116,106714
108163,106772
108161,106776
108227,106781
108205,106789
108203,106779
108252,106780
108302,106834
108252,106790
108316,106827
108257,106808
108339,106821
108368,106881
108353,106818
108372,106858
108340,106842
108389,106887
108369,106865
108372,106874
108380,106861
108397,106892
108425,106896
108399,106900
108393,106870
108350,106873
108369,106871
108400,106873
108413,106889
108386,106878
108372,106883
108361,106865
108365,106884
108389,106890
108381,106882
108411,106891
108376,106868
108406,106900
108426,106903
108439,106921
108419,106920
108445,106900
108482,106926
108480,106960
108506,106946
108513,106970
108537,106986
108572,106987
108587,107016
108610,107016
108610,107019
108616,107018
108657,107035
108678,107048
108696,107037
108688,107059
108732,107067
108770,107090
108760,107084
108794,107097
108823,107092
108813,107105
108852,107112
108892,107149
108933,107129
108905,107137
108946,107162
108974,107180
108994,107214
109020,107205
109004,107181
109042,107172
109088,107206
109081,107220
109112,107217
109113,107212
109133,107235
109172,107227
109168,107244
109166,107238
109184,107239
109208,107257
109238,107271
109220,107250
109255,107245
109267,107251
109288,107272
109329,107292
109352,107309
109330,107305
109361,107313
109373,107312
109371,107328
109429,107340
109435,107361
109457,107346
109455,107355
109520,107396
109533,107380
109510,107390
109546,107388
109574,107405
109580,107415
109597,107418
109622,107440
109646,107457
109680,107464
109675,107481
109722,107489
109687,107496
109734,107487
109754,107493
109787,107526
109822,107516
109797,107533
109818,107507
109837,107555
109874,107572
109868,107575
109928,107571
109910,107562
109928,107575
109938,107593
109953,107599
109987,107589
109965,107578
109976,107601
110031,107625
110031,107613
110025,107604
110022,107583
110047,107591
110095,107629
110101,107599
110070,107595
110074,107600
110102,107580
110116,107624
110105,107588
110106,107585
110118,107560
110102,107556
110118,107565
110103,107529
110065,107494
110016,107473
109930,107429
109895,107410
109799,107355
109714,107312
109589,107254
109497,107232
109423,107199
109292,107144
109197,107089
109116,107026
109025,107003
108952,106995
108843,106935
108756,106913
108654,106834
108592,106840
108537,106813
108465,106780
108396,106757
108333,106726
108296,106714
108276,106712
108217,106698
108205,106672
108154,106661
108152,106676
108152,106656
108152,106678
108136,106664
108127,106640
108153,106669
108174,106700
108180,106706
108155,106689
108198,106689
108216,106701
108225,106739
108261,106713
108258,106725
108279,106750
108316,106762
108307,106764
108339,106750
108318,106762
108348,106768
108370,106788
108384,106809
108415,106786
108363,106799
108429,106777
108437,106830
108419,106821
108452,106817
108450,106843
108428,106816
108484,106832
108459,106861
108484,106864
108503,106878
108496,106850
108497,106884
108493,106882
108513,106855
108542,106887
108543,106887
108553,106928
108596,106926
108596,106936
108654,106944
108639,106918
108673,106966
108726,106992
108730,107016
108752,106987
108743,107017
108813,107032
108815,107047
108808,107058
108796,107026
108844,107049
108857,107065
108832,107040
108863,107072
108857,107070
108827,107010
108855,107039
108901,107085
108826,107031
108818,107037
108832,107010
108809,107092
108791,107020
108794,107045
108753,106991
108767,107000
108720,106987
108743,106980
108722,106996
108704,106983
108710,106967
108686,106957
108748,106973
108690,106984
108723,106967
108693,106950
108743,106964
108716,106973
108798,107009
108801,106988
108776,106976
108803,107038
108795,107010
108883,107036
108843,107057
108864,107022
108951,107087
108912,107105
108946,107098
108943,107093
108948,107064
109013,107116
109018,107100
109087,107153
109061,107144
109074,107151
109112,107142
109147,107179
109137,107172
109168,107168
109172,107158
109190,107178
109237,107189
109205,107210
109271,107192
109258,107198
109279,107236
109286,107183
109289,107253
109291,107235
109339,107207
109335,107269
109347,107211
109399,107267
109378,107239
109374,107219
109438,107275
109446,107270
109415,107283
109407,107250
109476,107290
109474,107277
109507,107300
109477,107298
109534,107309
109516,107305
109553,107345
109526,107335
109559,107346
109587,107309
109589,107318
109617,107381
109592,107346
109648,107404
109661,107364
109646,107418
109656,107415
109720,107401
109692,107448
109725,107435
109725,107430
109790,107472
109776,107510
109810,107478
109805,107497
109786,107481
109833,107520
109866,107531
109847,107518
109868,107557
109857,107520
109941,107546
109924,107551
109975,107596
109948,107575
109948,107560
110016,107588
109981,107618
110026,107591
110002,107577
109999,107612
110012,107610
110027,107571
109973,107611
109945,107547
109928,107534
109833,107520
109780,107458
109695,107435
109618,107378
109519,107334
109438,107328
109318,107270
109261,107244
109134,107170
109035,107144
108968,107115
108818,107028
108728,107041
108663,106955
108566,106880
108471,106911
108389,106892
108330,106806
108255,106778
108213,106795
108111,106738
108096,106704
108046,106733
108031,106684
107987,106646
107987,106705
107924,106657
107965,106657
107917,106660
107934,106679
107926,106661
107981,106683
107948,106638
107965,106649
107971,106673
107973,106710
107955,106670
108029,106703
108016,106649
108025,106666
108053,106708
108038,106700
108061,106710
108047,106693
108090,106688
108100,106738
108124,106755
108116,106699
108126,106716
108121,106689
108163,106735
108163,106714
108140,106690
108133,106704
108142,106760
108136,106709
108205,106724
108178,106697
108167,106691
108163,106717
108177,106693
108191,106728
108214,106735
108204,106735
108239,106715
108286,106767
108233,106730
108261,106768
108324,106752
108343,106760
108380,106808
108351,106776
108382,106816
108419,106803
108470,106813
108456,106844
108451,106817
108502,106847
108533,106839
108532,106832
108549,106887
108535,106850
108553,106862
108564,106871
108591,106859
108526,106885
108585,106891
108584,106879
108529,106838
108610,106856
108587,106903
108579,106848
108564,106870
108590,106870
108560,106831
108605,106877
108557,106880
108560,106858
108586,106851
108584,106878
108582,106896
108630,106875
108637,106888
108608,106866
108646,106916
108656,106905
108649,106922
108670,106936
108733,106935
108715,106960
108757,106967
108763,106962
108797,106983
108769,106946
108845,107037
108878,107006
108885,107010
108886,107027
108933,107005
108912,107047
108976,107063
108965,107032
109013,107096
109001,107064
109073,107124
109060,107147
109089,107112
109143,107163
109112,107169
109131,107189
109175,107194
109214,107227
109225,107219
109254,107240
109246,107255
109279,107276
109316,107289
109333,107283
109328,107288
109387,107309
109421,107364
109410,107362
109438,107342
109434,107371
109482,107367
109516,107413
109486,107368
109520,107406
109556,107398
109529,107416
109564,107411
109559,107447
109562,107427
109608,107428
109583,107454
109627,107439
109641,107477
109624,107474
109687,107448
109653,107463
109711,107485
109694,107450
109714,107491
109687,107449
109748,107491
109752,107490
109746,107470
109777,107475
109774,107492
109809,107482
109813,107509
109803,107505
109829,107498
109821,107518
109897,107506
109870,107529
109871,107514
109876,107553
109895,107475
109914,107548
109936,107567
109959,107567
109981,107549
109933,107579
109963,107596
110035,107611
109992,107571
110043,107612
110046,107600
110060,107619
110118,107622
110122,107658
110129,107650
110104,107649
110177,107651
110201,107676
110188,107682
110204,107690
110193,107674
110248,107703
110236,107687
110247,107701
110195,107668
110119,107646
110115,107654
110043,107612
109969,107565
109894,107509
109770,107459
109680,107424
109609,107396
109454,107347
109401,107307
109281,107237
109166,107231
109051,107139
108986,107155
108845,107082
108790,107043
108706,107035
108636,106966
108538,106925
108487,106914
108444,106891
108352,106874
108348,106846
108274,106867
108246,106798
108234,106800
108224,106805
108209,106839
108213,106841
108204,106801
108211,106785
108197,106847
108220,106853
108265,106852
108234,106839
108271,106896
108297,106895
108292,106922
108300,106938
108320,106910
108374,106967
108409,106975
108394,106989
108442,107017
108432,107040
108428,106977
108464,107037
108474,107028
108459,107023
108466,107020
108492,107069
108493,107082
108522,107058
108510,107089
108506,107074
108501,107062
108532,107104
108528,107080
108555,107092
108521,107104
108534,107076
108558,107108
108558,107110
108601,107108
108575,107102
108571,107079
108585,107142
108641,107135
108626,107135
108632,107102
108665,107173
108706,107197
108770,107186
108736,107169
108803,107206
108777,107244
108867,107266
108864,107261
108908,107246
108885,107219
108935,107272
108941,107277
108951,107269
108985,107289
108990,107267
108989,107263
109016,107297
109001,107282
109025,107310
109000,107277
109022,107257
109033,107301
109000,107290
109026,107270
108973,107249
108990,107273
109013,107252
109005,107237
108981,107223
108994,107222
108951,107235
108995,107210
109033,107268
109004,107215
109003,107204
109009,107191
109036,107259
109065,107222
109063,107257
109045,107252
109102,107229
109135,107254
109121,107266
109158,107288
109137,107268
109227,107294
109238,107316
109261,107309
109275,107340
109253,107295
109324,107357
109339,107356
109411,107365
109414,107397
109402,107385
109491,107422
109504,107409
109528,107447
109545,107410
109562,107440
109614,107476
109650,107482
109689,107481
109676,107486
109739,107466
109735,107522
109750,107531
109803,107534
109795,107545
109835,107493
109892,107589
109900,107595
109916,107564
109981,107574
109985,107622
110001,107596
110066,107630
110078,107656
110055,107669
110106,107611
110123,107724
110153,107712
110184,107702
110217,107735
110202,107712
110266,107761
110265,107775
110311,107760
110330,107814
110306,107789
110340,107813
110389,107848
110390,107827
110420,107833
110451,107851
110441,107856
110493,107893
110505,107897
110484,107920
110483,107845
110561,107945
110558,107958
110550,107949
110576,107903
110628,107961
110633,107943
110658,108018
110673,107994
110648,107994
110674,108001
110744,108025
110721,108044
110761,108022
110755,108069
110785,108041
110790,108090
110839,108080
110856,108088
110896,108115
110874,108094
110882,108151
110921,108154
110963,108169
110938,108172
110958,108128
110995,108175
111018,108190
110979,108157
111019,108161
110937,108192
110951,108126
110863,108118
110811,108093
110666,108012
110548,107972
110462,107927
110365,107886
110230,107807
110134,107771
109986,107712
109919,107677
109802,107620
109709,107613
109601,107521
109532,107526
109452,107441
109370,107447
109313,107426
109205,107358
109162,107330
109115,107290
109093,107305
109077,107315
109054,107298
108978,107268
108988,107253
108987,107287
108954,107267
108972,107228
108966,107264
108971,107231
109002,107254
109007,107253
108978,107240
109013,107289
109048,107280
109039,107294
109067,107277
109101,107298
109059,107301
109090,107342
109115,107319
109117,107348
109120,107339
109162,107303
109171,107339
109179,107373
109223,107383
109169,107370
109202,107330
109195,107382
109235,107394
109237,107367
109233,107393
109202,107353
109251,107393
109248,107381
109232,107403
109227,107373
109255,107394
109281,107383
109283,107407
109293,107428
109279,107421
109306,107407
109330,107445
109374,107449
109373,107438
109384,107479
109390,107418
109455,107500
109486,107517
109465,107481
109490,107532
109504,107489
109520,107548
109553,107553
109582,107561
109526,107540
109543,107522
109560,107554
109584,107546
109542,107561
109592,107556
109559,107519
109574,107581
109537,107549
109573,107546
109512,107517
109501,107494
109492,107506
109494,107519
109442,107506
109452,107470
109456,107503
109460,107495
109424,107471
109433,107480
109454,107489
109402,107438
109412,107491
109458,107512
109449,107476
109477,107484
109430,107490
109476,107512
109502,107488
109465,107507
109466,107528
109488,107483
109533,107521
109526,107547
109524,107510
109580,107519
109564,107565
109593,107573
109628,107605
109613,107567
109632,107556
109670,107631
109709,107638
109727,107618
109705,107615
109758,107611
109721,107672
109765,107675
109798,107668
109779,107662
109813,107647
109839,107681
109869,107691
109910,107687
109879,107700
109924,107714
109910,107666
109925,107698
109951,107727
109994,107702
109973,107728
110008,107740
110017,107755
110050,107745
110055,107787
110033,107745
110107,107770
110079,107764
110119,107802
110082,107816
110130,107775
110167,107839
110184,107854
110214,107841
110185,107825
110225,107824
110196,107868
110210,107863
110259,107881
110254,107867
110251,107862
110267,107821
110300,107865
110300,107889
110277,107882
110293,107843
110278,107913
110341,107928
110354,107906
110325,107910
110377,107882
110397,107946
110404,107946
110444,107944
110410,107989
110420,107914
110443,107974
110464,107970
110491,107990
110459,107986
110472,107960
110481,108018
110509,108039
110540,108028
110547,108017
110524,107997
110581,108047
110613,108043
110578,108043
110616,108032
110603,108026
110632,108074
110642,108068
110673,108065
110657,108078
110646,108055
110666,108082
110667,108066
110627,108063
110606,108040
110571,108009
110508,108006
110432,107964
110299,107909
110228,107857
110130,107820
110016,107801
109947,107772
109827,107702
109706,107659
109585,107621
109472,107538
109400,107526
109274,107468
109169,107440
109029,107358
109008,107361
108888,107325
108809,107284
108754,107240
108617,107234
108598,107190
108551,107167
108475,107136
108447,107111
108384,107086
108440,107120
108380,107094
108384,107113
108331,107069
108366,107062
108350,107060
108376,107106
108362,107090
108349,107089
108346,107061
108361,107106
108366,107092
108336,107120
108363,107059
108416,107092
108384,107064
108412,107103
108391,107109
108386,107075
108440,107109
108413,107072
108415,107108
108428,107084
108433,107087
108385,107101
108406,107084
108407,107101
108382,107103
108406,107088
108376,107041
108366,107111
108400,107078
108396,107088
108388,107089
108404,107071
108417,107122
108386,107093
108416,107084
108403,107098
108369,107057
108384,107099
108459,107128
108460,107141
108448,107105
108479,107094
108494,107126
108527,107155
108537,107157
108530,107151
108590,107109
108607,107196
108631,107185
108650,107181
108649,107167
108720,107208
108710,107181
108712,107197
108722,107192
108749,107202
108693,107187
108767,107222
108766,107250
108763,107188
108762,107203
108771,107221
108751,107196
108785,107211
108771,107236
108748,107217
108772,107181
108796,107227
108736,107255
108772,107216
108798,107207
108734,107190
108777,107228
108758,107223
108795,107227
108794,107214
108779,107220
108793,107267
108839,107245
108812,107248
108847,107244
108826,107294
108909,107267
108864,107306
108893,107300
108904,107300
108925,107245
108949,107338
108979,107316
108988,107356
108984,107295
109051,107316
109044,107369
109100,107376
109128,107380
109107,107392
109108,107336
109172,107408
109194,107415
109173,107400
109223,107414
109201,107443
109275,107465
109254,107453
109317,107492
109287,107480
109377,107494
109343,107512
109368,107499
109398,107489
109430,107505
109394,107534
109434,107515
109496,107562
109458,107530
109488,107525
109519,107549
109512,107582
109538,107536
109558,107611
109551,107548
109587,107568
109610,107573
109606,107601
109620,107627
109593,107587
109685,107587
109703,107632
109696,107640
109704,107639
109686,107587
109771,107673
109721,107658
109770,107664
109776,107662
109786,107668
109816,107669
109812,107711
109837,107674
109854,107729
109843,107693
109909,107705
109908,107746
109892,107719
109963,107753
109972,107722
109961,107734
110011,107801
109987,107732
110057,107782
110001,107757
110082,107774
110116,107807
110108,107788
110103,107790
110124,107793
110161,107820
110179,107817
110157,107823
110188,107831
110176,107823
110263,107819
110239,107858
110292,107876
110292,107885
110273,107897
110318,107845
110341,107908
110343,107882
110357,107904
110397,107928
110412,107946
110420,107905
110462,107941
110458,107932
110472,107923
110529,107949
110526,107980
110529,107961
110542,108001
110533,107967
110544,107987
110560,107998
110580,107978
110483,107952
110424,107877
110398,107913
110253,107858
110204,107842
110105,107771
110015,107710
109851,107663
109785,107640
109634,107566
109554,107526
109453,107470
109303,107402
109269,107384
109119,107359
108980,107315
108937,107238
108844,107238
108760,107195
108701,107166
108595,107093
108515,107065
108471,107070
108457,107025
108426,107056
108350,107003
108373,106991
108333,106996
108303,107005
108357,107010
108332,107017
108304,106956
108372,107001
108376,107025
108344,106998
108388,106994
108363,107013
108375,106978
108408,107054
108422,107045
108419,107058
108405,107004
108483,107047
108430,107054
108463,107026
108459,107020
108486,107026
108464,107055
108504,107089
108519,107055
108507,107060
108506,107019
108518,107098
108524,107082
108535,107057
108541,107070
108550,107067
108547,107075
108563,107085
108537,107062
108602,107047
108597,107077
108581,107063
108610,107087
108623,107078
108605,107077
108625,107063
108638,107132
108643,107082
108690,107094
108719,107140
108725,107116
108790,107136
108786,107180
108798,107163
108834,107153
108845,107167
108902,107218
108900,107227
108938,107199
108954,107260
108952,107237
108988,107286
108993,107246
109075,107295
109009,107270
109047,107225
109018,107222
109097,107244
109047,107274
109044,107235
109114,107249
109072,107291
109064,107281
109054,107272
109084,107257
109052,107225
109124,107272
109067,107257
109069,107294
109082,107259
109066,107222
109104,107284
109127,107319
109119,107282
109108,107291
109142,107277
109117,107298
109175,107295
109182,107346
109224,107301
109206,107327
109216,107373
109226,107351
109285,107353
109249,107331
109328,107351
109295,107391
109371,107411
109369,107396
109382,107392
109420,107398
109434,107438
109467,107412
109462,107409
109526,107427
109510,107448
109552,107452
109586,107482
109594,107475
109647,107487
109635,107503
109712,107516
109741,107563
109747,107521
109768,107569
109749,107527
109875,107606
109845,107610
109920,107615
109917,107642
109949,107618
