11111,11111
0,0
82328,82286
115295,110553
115287,110546
115281,110533
115317,110571
115294,110549
115301,110556
115340,110590
115288,110548
115313,110563
115289,110516
115342,110565
115277,110541
115256,110530
115259,110537
115229,110498
115253,110506
115199,110472
115213,110492
115196,110475
115153,110458
115182,110441
115116,110479
115112,110446
115139,110450
115140,110425
115108,110488
115079,110480
115130,110431
115130,110494
115140,110471
115162,110440
115126,110496
115182,110462
115159,110486
115207,110472
115240,110489
115223,110477
115289,110490
115258,110521
115329,110528
115309,110554
115337,110528
115408,110559
115399,110560
115440,110570
115439,110631
115501,110599
115518,110628
115515,110648
115549,110650
115583,110620
115639,110681
115622,110703
115633,110685
115632,110693
115659,110693
115711,110718
115710,110732
115747,110695
115781,110737
115776,110768
115799,110738
115804,110746
115829,110781
115832,110774
115850,110784
115902,110781
115866,110808
115943,110799
115905,110793
115929,110783
115986,110825
115945,110844
115975,110853
115996,110829
115983,110828
116028,110839
116055,110875
116019,110899
116041,110849
116128,110861
116076,110868
116092,110861
116123,110912
116098,110896
116129,110919
116124,110884
116193,110925
116141,110878
116161,110883
116156,110953
116206,110897
116183,110930
116186,110914
116219,110929
116234,110952
116234,110896
116198,110954
116261,110940
116209,110939
116254,110922
116275,110959
116236,110927
116274,110950
116271,110980
116244,110898
116321,110968
116306,110968
116303,110913
116335,110941
116359,110966
116318,110985
116322,110932
116373,110964
116369,110980
116384,110973
116340,110978
116387,110966
116366,111021
116375,110968
116395,111022
116426,111017
116386,110992
114483,110087
114668,110193
114702,110221
114895,110303
114881,110311
114967,110329
115078,110358
115094,110359
115079,110346
115039,110383
115104,110387
115144,110401
115142,110389
115117,110406
115163,110383
115199,110424
115204,110407
115228,110435
115256,110445
115299,110449
115251,110458
115316,110472
115333,110467
115362,110501
115337,110493
115378,110553
115431,110550
115418,110543
115441,110528
115491,110544
115518,110568
115500,110538
115550,110608
115589,110608
115567,110637
115569,110591
115600,110628
115628,110629
115630,110640
115652,110642
115693,110641
115690,110634
115719,110653
115727,110697
115737,110689
115736,110653
115729,110678
115798,110697
115757,110674
115790,110693
115791,110707
115828,110717
115825,110722
115870,110714
115850,110721
115867,110714
115835,110749
115893,110701
115903,110762
115902,110761
115900,110771
115953,110735
115964,110785
115970,110732
115965,110757
115955,110783
115953,110741
116035,110758
115972,110812
116011,110798
116060,110783
116061,110806
116084,110814
116047,110817
116094,110832
116140,110824
116119,110847
116107,110822
116128,110804
116152,110851
116176,110861
116140,110857
116177,110840
116180,110871
116207,110863
116184,110889
116253,110868
116228,110911
116222,110871
116241,110889
116250,110893
116292,110872
116267,110925
116340,110887
116271,110911
116322,110945
116314,110907
116314,110926
116346,110947
116336,110936
116387,110942
116364,110939
116412,110989
116386,110931
116417,110978
116399,110973
116419,110942
116410,110974
116473,110994
116429,110955
116443,110935
116462,110969
116377,110990
116361,110926
116348,110924
116272,110863
116215,110837
116109,110831
115999,110724
115916,110699
115701,110633
115563,110537
115386,110462
115233,110400
115146,110375
114998,110321
114898,110239
114785,110203
114736,110184
114636,110186
114593,110097
114533,110128
114463,110092
114458,110066
114421,110094
114375,110012
114386,110072
114340,110063
114316,110059
114318,110018
114351,110017
114310,110042
114310,110012
114333,110033
114337,110048
114379,110044
114354,110078
114356,110009
114344,110055
114388,110072
114387,110086
114390,110032
114456,110091
114406,110058
114434,110083
114456,110096
114478,110110
114458,110096
114515,110093
114475,110153
114503,110093
114513,110114
114510,110131
114529,110151
114476,110113
114522,110124
114525,110140
114524,110142
114555,110137
114525,110128
114525,110129
114541,110153
114513,110116
114548,110119
114563,110163
114538,110146
114585,110117
114562,110153
114591,110141
114556,110146
114608,110145
114588,110142
114636,110189
114615,110156
114655,110185
114676,110177
114712,110215
114710,110205
114749,110228
114763,110262
114757,110201
114787,110242
114830,110256
114827,110263
114786,110283
114839,110258
114841,110302
114830,110270
114853,110270
114819,110265
114860,110271
114827,110280
114846,110243
114866,110283
114809,110260
114804,110273
114826,110250
114858,110281
114816,110242
114838,110278
114817,110287
114828,110237
114786,110287
114792,110261
114819,110280
114824,110259
114811,110248
114802,110226
114857,110254
114805,110283
114834,110246
114827,110278
114841,110263
114862,110280
114848,110256
114909,110318
114888,110309
114902,110284
114926,110293
114960,110329
114929,110330
114994,110329
114998,110374
115029,110367
115051,110370
115062,110387
115094,110352
115097,110418
115151,110377
115161,110429
115187,110423
115197,110414
115212,110477
115245,110432
115256,110477
115272,110440
115306,110475
115311,110482
115368,110501
115345,110545
115395,110534
115407,110544
115480,110562
115476,110572
115471,110558
115523,110594
115530,110586
115536,110599
115557,110615
115586,110602
115583,110653
115608,110628
115680,110653
115638,110636
115699,110640
115717,110672
115708,110690
115766,110687
115748,110693
115793,110675
115774,110710
115821,110716
115821,110714
115868,110724
115842,110716
115861,110715
115905,110744
115905,110780
115884,110747
115963,110759
115937,110789
115931,110792
115976,110774
116011,110770
115982,110803
116065,110799
116037,110827
116051,110841
116057,110838
116061,110819
116096,110869
116101,110855
116143,110836
116143,110836
116156,110825
116171,110881
116140,110863
116199,110881
116213,110855
116240,110895
116204,110885
116225,110914
116233,110844
116275,110907
116258,110908
116277,110918
116259,110916
116290,110953
116316,110902
116346,110956
116320,110897
116377,110972
116360,110931
116416,110972
116375,110946
116418,110972
116406,110966
116409,110942
116461,110959
116471,110940
116481,111010
116433,110963
116461,110998
116487,110996
116475,111003
116510,111001
116462,110953
116487,111006
116444,110930
116443,110970
116344,110951
116310,110869
116189,110887
116091,110777
116036,110782
115903,110711
115738,110632
115573,110566
115377,110488
115241,110385
115098,110353
115013,110303
114837,110291
114768,110194
114730,110216
114641,110130
114571,110141
114565,110104
114498,110083
114466,110068
114469,110070
114391,110064
114415,110055
114392,110068
114428,110047
114396,110087
114379,110043
114434,110070
114411,110056
114421,110066
114426,110052
114472,110093
114457,110067
114509,110081
114496,110103
114517,110121
114558,110126
114554,110119
114615,110150
114599,110178
114607,110151
114639,110169
114679,110169
114705,110190
114697,110174
114739,110190
114728,110207
114731,110231
114736,110219
114779,110220
114748,110220
114809,110194
114815,110255
114807,110249
114801,110248
114830,110226
114830,110274
114835,110232
114874,110261
114840,110252
114863,110256
114864,110262
114876,110281
114909,110276
114913,110262
114927,110286
114919,110275
114965,110301
114975,110312
115003,110332
115049,110346
115039,110327
115087,110337
115072,110349
115115,110367
115143,110363
115112,110365
115173,110401
115201,110390
115208,110418
115214,110405
115196,110420
115233,110406
115201,110412
115227,110411
115210,110382
115196,110421
115216,110393
115172,110410
115143,110392
115160,110370
115150,110401
115148,110340
115093,110365
115075,110355
115115,110351
115050,110385
115056,110347
115015,110317
115025,110320
115026,110335
115034,110292
115035,110326
115070,110331
115029,110306
115083,110356
115025,110355
115070,110350
115048,110355
115102,110389
115099,110378
115140,110337
115136,110395
115165,110370
115183,110396
115198,110422
115202,110398
115263,110458
115251,110472
115284,110467
115323,110454
115327,110480
115354,110470
115346,110468
115382,110468
115430,110528
115418,110499
115456,110523
115448,110536
115494,110557
115526,110561
115492,110552
115530,110581
115554,110546
115574,110608
115565,110574
115632,110593
115638,110601
115662,110612
115642,110585
115688,110603
115702,110636
115708,110617
115741,110650
115747,110645
115749,110645
115767,110674
115782,110636
115789,110688
115830,110638
115819,110677
115825,110720
115837,110674
115898,110694
115876,110709
115895,110706
115893,110686
115928,110718
115905,110729
115969,110702
115948,110742
115927,110735
115973,110744
115954,110761
116007,110743
115990,110752
116004,110760
115982,110761
116011,110755
116050,110767
116033,110788
116005,110730
116009,110759
116055,110775
116024,110768
116062,110764
116052,110806
116063,110799
116104,110792
116076,110800
116102,110784
116096,110831
116145,110792
116120,110845
116122,110791
116155,110822
116191,110798
116194,110845
116150,110811
116212,110826
116217,110876
116210,110844
116208,110839
116247,110866
116188,110882
116200,110828
116189,110822
116136,110800
116075,110778
116057,110755
115920,110740
115807,110623
115674,110632
115570,110516
115373,110471
115215,110410
115135,110319
114983,110301
114879,110208
114799,110186
114693,110170
114614,110086
114557,110128
114474,110061
114432,110042
114402,110052
114342,110061
114307,110000
114305,109999
114219,109991
114270,110012
114216,109969
114220,109994
114177,109941
114232,109982
114185,109954
114221,109992
114222,109990
114192,109966
114236,109962
114274,110001
114223,109972
114296,110005
114277,109988
114327,110048
114292,110032
114340,110037
114334,110048
114383,110051
114353,110045
114401,110060
114378,110038
114404,110098
114420,110052
114415,110057
114434,110098
114445,110090
114428,110100
114462,110063
114455,110095
114427,110072
114487,110097
114465,110105
114476,110078
114478,110095
114462,110091
114491,110072
114487,110094
114458,110111
114508,110078
114502,110117
114476,110083
114513,110114
114532,110110
114556,110160
114545,110107
114608,110159
114590,110136
114630,110157
114630,110154
114688,110171
114649,110167
114667,110171
114700,110201
114716,110204
114711,110200
114742,110236
114707,110174
114771,110221
114728,110213
114740,110213
114735,110198
114750,110215
114705,110195
114760,110216
114716,110232
114696,110171
114718,110186
114717,110213
114670,110189
114685,110159
114651,110195
114615,110185
114678,110193
114616,110179
114629,110134
114645,110181
114644,110147
114609,110152
114608,110146
114651,110177
114616,110160
114654,110156
114665,110188
114671,110178
114684,110176
114661,110179
114711,110155
114713,110222
114719,110189
114728,110234
114736,110210
114780,110237
114784,110247
114845,110247
114827,110281
114843,110243
114872,110271
114891,110267
114911,110295
114936,110317
114956,110298
114978,110306
114948,110286
115024,110325
115018,110366
115047,110314
115076,110335
115087,110367
115060,110340
115087,110347
115130,110386
115108,110388
115152,110391
115152,110391
115176,110398
115178,110386
115234,110412
115214,110409
115225,110428
115222,110404
115213,110425
115247,110458
115252,110424
115316,110444
115330,110443
115307,110421
115340,110454
115346,110486
115338,110471
115395,110470
115406,110488
115415,110514
115416,110514
115411,110483
115464,110524
115432,110501
115507,110540
115483,110531
115539,110568
115489,110535
115557,110557
115538,110580
115566,110575
115603,110575
115583,110592
115630,110572
115608,110588
115657,110582
115656,110609
115667,110630
115684,110618
115641,110612
115730,110614
115704,110671
115738,110646
115753,110627
115749,110639
115773,110611
115779,110650
115775,110690
115816,110646
115784,110665
115766,110686
115810,110652
115875,110718
115852,110655
115839,110682
115890,110704
115906,110723
115869,110673
115911,110726
115887,110698
115958,110724
115925,110732
115948,110732
115967,110731
115994,110719
115978,110774
115981,110752
116009,110722
115997,110764
116011,110764
115978,110721
115973,110724
115970,110737
115906,110676
115855,110660
115770,110650
115601,110568
115505,110501
115321,110430
115196,110382
115058,110306
114949,110267
114786,110199
114702,110148
114588,110107
114491,110070
114417,110029
114380,110017
114279,110014
114212,109926
114209,109946
114156,109904
114092,109927
114072,109882
114056,109881
113992,109864
113992,109854
113949,109869
113967,109857
113932,109863
113958,109831
113938,109860
113935,109814
113937,109829
113980,109818
113952,109866
113950,109849
113988,109855
114004,109844
113972,109873
114060,109882
114023,109859
114044,109891
114051,109876
114070,109910
114073,109863
114102,109908
114107,109916
114090,109896
114137,109901
114103,109910
114132,109911
114151,109949
114096,109906
114161,109914
114149,109922
114151,109934
114153,109913
114161,109928
114173,109905
114172,109961
114170,109919
114222,109930
114206,109941
114207,109927
114231,109948
114209,109959
114242,109967
114242,109972
114253,109974
114288,109972
114258,109967
114304,109990
114345,109982
114354,109998
114382,110009
114428,110012
114437,110025
114450,110042
114471,110041
114481,110055
114494,110063
114512,110071
114535,110081
114562,110072
114527,110068
114557,110057
114565,110083
114581,110085
114580,110112
114567,110097
114567,110076
114590,110073
114525,110064
114538,110098
114569,110077
114537,110072
114558,110058
114507,110089
114515,110028
114508,110078
114515,110036
114494,110026
114539,110050
114532,110024
114501,110080
114521,110042
114525,110032
114564,110065
114552,110076
114573,110056
114629,110074
114627,110095
114634,110117
114665,110124
114685,110115
114685,110134
114709,110167
114708,110141
114795,110143
114759,110125
114815,110178
114866,110186
114865,110226
114856,110187
114943,110238
114949,110228
114948,110242
114991,110248
115024,110268
115032,110268
115055,110282
115071,110294
115127,110322
115133,110306
115182,110347
115218,110344
115205,110325
115226,110358
115279,110356
115299,110366
115300,110387
115348,110394
115321,110400
115382,110406
115415,110430
115397,110439
115449,110442
115459,110445
115468,110456
115524,110487
115535,110476
115516,110457
115552,110468
115552,110512
115590,110508
115579,110501
115612,110535
115632,110485
115669,110550
115672,110522
115675,110546
115708,110550
115689,110571
115706,110527
115708,110558
115764,110585
115775,110581
115771,110609
115774,110564
115790,110615
115833,110610
115801,110579
115862,110614
115832,110634
115867,110618
115879,110621
115948,110632
115933,110656
115914,110605
115921,110613
115954,110657
115959,110624
115979,110656
115968,110658
116000,110675
116026,110656
116026,110679
116053,110721
116067,110674
116065,110673
116060,110707
116065,110695
116114,110709
116094,110719
116121,110727
116151,110701
116154,110749
116148,110742
116161,110756
116191,110754
116167,110736
116211,110753
116205,110724
116267,110782
116241,110758
116308,110764
116248,110746
116290,110742
116227,110771
116199,110782
116187,110741
116163,110726
116068,110696
116000,110636
115896,110592
115782,110560
115663,110514
115523,110431
115306,110314
115143,110264
115009,110212
114892,110154
114782,110104
114668,110029
114568,110004
114533,110003
114461,109937
114385,109936
114332,109894
114294,109877
114287,109907
114237,109868
114285,109868
114211,109908
114209,109866
114266,109898
114233,109868
114263,109864
114238,109874
114253,109900
114278,109895
114342,109920
114350,109913
114354,109954
114356,109944
114410,109933
114422,109947
114430,110010
114477,109955
114497,109999
114490,109994
114535,110017
114539,110013
114572,110037
114576,110060
114563,110039
114599,110074
114587,110041
114620,110079
114607,110049
114646,110084
114649,110042
114666,110090
114628,110042
114678,110083
114706,110102
114673,110091
114719,110090
114686,110061
114715,110058
114711,110126
114708,110091
114772,110098
114734,110153
114731,110133
114813,110136
114831,110140
114808,110165
114868,110180
114873,110172
114876,110168
114920,110197
114932,110227
114953,110180
114965,110207
114995,110225
114974,110218
114983,110176
115020,110202
115020,110237
114987,110217
115014,110240
114972,110244
114998,110190
114959,110215
114971,110209
114937,110189
114930,110222
114903,110157
114907,110190
114854,110152
114847,110183
114856,110132
114772,110152
114810,110108
114782,110136
114745,110132
114718,110110
114746,110137
114719,110091
114775,110135
114739,110095
114731,110134
114742,110112
114768,110134
114768,110137
114742,110149
114781,110113
114774,110111
114830,110127
114807,110172
114822,110166
114868,110138
114857,110200
114875,110193
114899,110179
114905,110195
114932,110175
114932,110231
114950,110193
114984,110205
114995,110250
115024,110274
115028,110278
115067,110276
115063,110243
115095,110265
115091,110297
115119,110293
115146,110275
115160,110340
115149,110290
115210,110315
115154,110322
115221,110322
115201,110335
115226,110383
115247,110327
115258,110340
115293,110370
115251,110391
115299,110353
115341,110400
115325,110355
115339,110368
115327,110417
115348,110380
115378,110408
115348,110387
115394,110422
115410,110430
115430,110422
115395,110440
115396,110418
115432,110459
115433,110429
115444,110458
115447,110437
115452,110492
115434,110438
115493,110462
115466,110470
115493,110473
115489,110462
115462,110485
115506,110473
115507,110491
115531,110469
115508,110483
115568,110494
115517,110483
115557,110476
115533,110531
115581,110480
115584,110510
115587,110507
115573,110511
115600,110479
115587,110534
115626,110537
115632,110510
115611,110510
115643,110540
115631,110509
115681,110528
115658,110559
115673,110546
115652,110587
115668,110550
115694,110552
115668,110544
115708,110559
115704,110565
115634,110525
115654,110539
115546,110467
115510,110488
115387,110419
115275,110376
115153,110308
115055,110238
114948,110215
114819,110162
114735,110100
114576,110047
114526,110030
114418,110021
114317,109914
114235,109932
114154,109873
114147,109835
114093,109842
114046,109824
113961,109849
113902,109748
113886,109773
113885,109750
113810,109761
113789,109715
113834,109761
113781,109682
113761,109734
113741,109715
113765,109711
113725,109698
113787,109709
113737,109739
113746,109715
113750,109725
113771,109686
113792,109709
113756,109731
113819,109704
113782,109739
113808,109711
113772,109747
113760,109709
113833,109731
113799,109762
113809,109715
113793,109746
113799,109727
113822,109697
113803,109735
113796,109703
113781,109725
113817,109723
113766,109693
113802,109712
113780,109747
113810,109694
113769,109726
113813,109697
113764,109724
113811,109723
113754,109716
113777,109715
113820,109740
113806,109718
113803,109735
113802,109764
113788,109713
113870,109755
113838,109746
113881,109735
113885,109763
113899,109750
113935,109808
113917,109766
113975,109786
113993,109830
113972,109802
113968,109821
113949,109777
114000,109796
113977,109824
114021,109802
114015,109798
113969,109771
114003,109789
113948,109805
113942,109794
113947,109788
113966,109764
113948,109811
113950,109764
113958,109779
113923,109752
113926,109751
113925,109774
113915,109731
113903,109767
113879,109750
113893,109765
113932,109768
113898,109748
113935,109765
113891,109730
113912,109775
113917,109749
113893,109793
113933,109773
113964,109800
113983,109804
113969,109790
113986,109764
114013,109789
113997,109832
114000,109804
114040,109798
114044,109836
114065,109808
114073,109849
114096,109831
114166,109878
114125,109846
114178,109869
114185,109856
114221,109866
114189,109890
114211,109937
114237,109884
114267,109951
114279,109910
114313,109956
114325,109950
114303,109992
114354,109931
114329,109956
114364,109958
114355,109953
114371,109981
114396,109962
114415,109944
114413,109999
114418,109965
114452,109988
114441,109984
114450,110004
114459,110007
114453,110002
114488,110016
114499,110013
114474,110017
114516,110024
114528,110025
114546,110026
114543,110045
114545,110022
114566,110031
114591,110068
114599,110071
114596,110069
114606,110068
114613,110064
114644,110083
114633,110071
114661,110075
114646,110096
114686,110108
114705,110100
114681,110103
114722,110092
114740,110141
114737,110087
114774,110115
114765,110142
114794,110163
114758,110153
114823,110119
114795,110132
114833,110147
114829,110147
114862,110156
114850,110196
114888,110197
114902,110197
114908,110202
114891,110188
114901,110187
114956,110196
114920,110201
114958,110201
114942,110192
114980,110243
114998,110195
114994,110217
114992,110215
115037,110207
114993,110242
115051,110246
115038,110243
115070,110267
115055,110247
115071,110251
115076,110283
115088,110278
115081,110250
115107,110260
115113,110288
115130,110279
115151,110282
115132,110260
115108,110273
115099,110275
115058,110243
115026,110228
114927,110175
114843,110106
114764,110097
114666,110054
114554,109975
114452,109963
114337,109916
114188,109809
114072,109774
114017,109751
113911,109715
113819,109704
113726,109646
113649,109597
113643,109607
113560,109542
113510,109553
113415,109510
113390,109480
113366,109508
113302,109443
113261,109479
113265,109427
113264,109427
113229,109473
113174,109393
113203,109438
113207,109420
113178,109422
113142,109389
113128,109417
113151,109417
113187,109399
113152,109433
113154,109379
113163,109442
113180,109411
113159,109390
113181,109432
113149,109392
113208,109443
113162,109406
113189,109438
113171,109420
113176,109402
113185,109414
113181,109393
113163,109428
113185,109420
113155,109408
113196,109405
113147,109418
113168,109377
113140,109404
113183,109412
113115,109399
113169,109417
113136,109375
113180,109385
113136,109398
113154,109399
113158,109388
113172,109426
113135,109390
113166,109389
113165,109373
113180,109390
113210,109407
113223,109439
113225,109387
113254,109455
113259,109419
113297,109421
113296,109461
113301,109464
113349,109461
113363,109479
113338,109467
113387,109474
113359,109500
113365,109476
113393,109459
113373,109519
113388,109459
113380,109483
113377,109478
113389,109488
113356,109448
113415,109483
113355,109481
113346,109479
113371,109511
113398,109489
113355,109486
113368,109464
113371,109517
113340,109479
113344,109475
113388,109475
113355,109459
113391,109477
113376,109491
113350,109473
113376,109499
113381,109471
113424,109476
113403,109522
113434,109472
113431,109514
113450,109501
113482,109523
113458,109558
113503,109522
113493,109538
113534,109532
113564,109558
113564,109576
113617,109562
113599,109628
113640,109578
113644,109566
113697,109621
113678,109621
113736,109617
113718,109669
113753,109647
113742,109631
113826,109691
113803,109680
113831,109657
113895,109697
113873,109712
113866,109691
113934,109718
113960,109753
113917,109737
113977,109725
113986,109774
114011,109760
114038,109767
114048,109781
114096,109766
114056,109804
114098,109793
114144,109810
114168,109817
114163,109819
114172,109833
114222,109839
114203,109840
114228,109865
114243,109855
114292,109890
114266,109899
114310,109854
114307,109884
114352,109910
114329,109930
114325,109912
114408,109947
114383,109924
114415,109927
114418,109976
114465,109945
114465,109940
114534,109967
114504,110005
114524,109999
114536,109981
114588,109988
114605,110024
114622,110010
114628,110016
114623,110039
114673,110071
114694,110064
114653,110057
114706,110083
114704,110091
114737,110073
114755,110088
114756,110127
114762,110073
114814,110084
114804,110120
114850,110107
114873,110116
114886,110124
114927,110156
114912,110142
114960,110176
114979,110164
114982,110117
115007,110184
115018,110210
115027,110202
115036,110208
115101,110201
115106,110238
115157,110257
115163,110287
115151,110233
115219,110290
115223,110288
115230,110278
115243,110317
115234,110267
115285,110341
115258,110313
115292,110319
115328,110323
115334,110331
115384,110330
115359,110376
115388,110340
115404,110379
115386,110349
115435,110362
115466,110367
115452,110405
115500,110363
115509,110395
115543,110416
115536,110414
115540,110417
115564,110420
115566,110442
115573,110457
115605,110438
115613,110429
115612,110454
115641,110488
115633,110427
115641,110438
115611,110445
115568,110418
115472,110385
115421,110358
115281,110323
115208,110235
115022,110172
114837,110078
114710,110033
114512,109971
114396,109880
114285,109843
114146,109775
114045,109724
113963,109674
113844,109665
113795,109611
113759,109632
113708,109612
113637,109585
113625,109583
113559,109560
113602,109528
113568,109546
113537,109537
113558,109539
113539,109540
113490,109494
113554,109545
113563,109526
113535,109537
113546,109572
113552,109534
113617,109566
113568,109551
113632,109572
113643,109578
113636,109574
113683,109611
113692,109566
113687,109636
113713,109627
113707,109602
113730,109620
113767,109617
113741,109612
113780,109672
113802,109661
113800,109645
113770,109622
113832,109675
113790,109671
113830,109639
113824,109674
113813,109650
113824,109683
113801,109664
113877,109679
113831,109685
113846,109677
113856,109661
113848,109666
113927,109688
113909,109675
113908,109698
113911,109691
113952,109720
113961,109755
113946,109702
114011,109742
113997,109717
114041,109774
114022,109762
114077,109745
114133,109793
114144,109755
114165,109800
114175,109796
114186,109800
114170,109821
114192,109818
114190,109820
114232,109823
114233,109848
114204,109818
114222,109839
114171,109814
114196,109814
114189,109795
114132,109776
114171,109795
114161,109815
114121,109741
114125,109804
114086,109743
114092,109777
114070,109752
114060,109712
114091,109753
114039,109765
114079,109754
114035,109754
114058,109744
114073,109767
114063,109760
114098,109747
114076,109787
114100,109734
114110,109754
114086,109797
114129,109768
114176,109818
114162,109776
114211,109807
114186,109814
114237,109833
114262,109822
114251,109846
114296,109831
114305,109851
114353,109863
114333,109911
114354,109859
114405,109909
114411,109897
114421,109922
114446,109926
114483,109960
114446,109955
114509,109942
114533,109960
114532,109950
114538,109941
114589,109978
114560,110007
114588,109995
114598,110027
114627,110030
114639,110024
114665,110031
114650,110027
114686,110044
114706,110049
114721,110055
114724,110053
114739,110069
114739,110073
114783,110086
114790,110077
114778,110090
114805,110106
114831,110099
114818,110091
114853,110123
114835,110111
114861,110109
114844,110117
114868,110135
114893,110124
114911,110151
114911,110147
114916,110128
114916,110142
114962,110143
114921,110133
114972,110151
114972,110158
114943,110174
114957,110168
114986,110149
114989,110151
114972,110177
114975,110165
115026,110174
115014,110170
115018,110196
115059,110182
115000,110174
115065,110185
115020,110205
115060,110209
115073,110202
115036,110199
115109,110204
115073,110221
115090,110221
115135,110201
115135,110200
115102,110231
115141,110214
115169,110221
115151,110262
115207,110235
115192,110250
115211,110244
115200,110255
115219,110255
115221,110285
115242,110267
115265,110280
115259,110286
115239,110268
115282,110300
115260,110276
115260,110285
115178,110259
115173,110207
115061,110176
114998,110169
114869,110121
114772,110029
114642,109993
114511,109907
114417,109889
114274,109796
114173,109799
114067,109738
113944,109653
113868,109652
113811,109598
113721,109573
113629,109589
113598,109535
113513,109508
113460,109532
113416,109464
113446,109471
113378,109437
113354,109434
113327,109419
113320,109391
113272,109441
113270,109380
113260,109415
113260,109414
113251,109378
113259,109424
113270,109383
113243,109387
113261,109430
113259,109376
113305,109441
113265,109373
113294,109398
113291,109433
113275,109410
113308,109383
113304,109439
113265,109412
113318,109426
113329,109440
113296,109427
113300,109459
113263,109402
113315,109419
113278,109406
113287,109392
113287,109419
113287,109411
113312,109441
113245,109417
113297,109392
113273,109427
113278,109403
113300,109412
113262,109404
113310,109427
113262,109406
113308,109414
113271,109394
113301,109431
113302,109440
113340,109408
113362,109440
113364,109455
113348,109434
113416,109446
113436,109474
113420,109494
113441,109460
113495,109486
113457,109487
113490,109523
113463,109482
113523,109515
113465,109492
113522,109505
113511,109483
113484,109493
113502,109490
113454,109495
113492,109481
113464,109490
113473,109502
113421,109458
113455,109467
113424,109487
113455,109454
113436,109479
113396,109470
113420,109501
113375,109414
113401,109465
113354,109465
113394,109417
113378,109430
113364,109448
113394,109420
113406,109470
113404,109435
113435,109449
113386,109456
113403,109455
113441,109471
113432,109453
113478,109459
113464,109462
113466,109485
113508,109491
113568,109504
113539,109533
113540,109492
113553,109520
113590,109531
113586,109552
113613,109568
113627,109536
113670,109590
113685,109567
113694,109590
113692,109562
113701,109602
113725,109560
113777,109628
113771,109596
113783,109615
113778,109612
113798,109622
113819,109622
113841,109665
113829,109625
113857,109643
113819,109639
113872,109624
113853,109653
113883,109637
113888,109675
113896,109654
113903,109663
113908,109721
113929,109655
113977,109708
113968,109701
113974,109687
113974,109715
113975,109708
114014,109720
114018,109727
114028,109743
114010,109736
114058,109712
114041,109761
114032,109710
114097,109763
114054,109753
114105,109742
114107,109765
114114,109746
114136,109744
114101,109770
114136,109798
114144,109742
114155,109765
114199,109791
114151,109793
114184,109775
114195,109821
114220,109789
114237,109816
114240,109781
114268,109808
114250,109822
114285,109831
114293,109832
114330,109832
114285,109867
114346,109828
114315,109818
114351,109852
114336,109871
114377,109868
114387,109889
114363,109863
114401,109874
114417,109867
114423,109867
114444,109908
114414,109903
114482,109867
114474,109922
114499,109898
114495,109894
114541,109930
114524,109929
114533,109941
114564,109923
114547,109958
114539,109946
114560,109928
114603,109972
114591,109974
114627,109972
114639,109970
114624,109978
114683,110000
114664,109960
114678,110019
114665,109985
114654,109983
114687,110024
114743,110006
114712,109998
114763,110001
114741,110027
114747,110038
114788,110036
114802,110059
114760,110045
114816,110034
114818,110071
114816,110073
114825,110050
114875,110063
114823,110085
114844,110028
114832,110064
114827,110015
114736,110022
114678,109959
114561,109912
114446,109911
114352,109821
114222,109776
114098,109708
114004,109623
113890,109624
113758,109523
113655,109531
113560,109475
113462,109420
113414,109370
113303,109387
113249,109328
113218,109337
113125,109315
113082,109268
112997,109222
112999,109225
112916,109182
112918,109174
112854,109154
112838,109156
112795,109154
112814,109139
112760,109089
112771,109143
112745,109097
112749,109101
112750,109124
112702,109060
112799,109112
112750,109096
112751,109116
112748,109100
112753,109098
112734,109119
112791,109084
112774,109137
112769,109093
112774,109106
112795,109115
112752,109099
112778,109114
112767,109099
112770,109104
112761,109107
112754,109116
112765,109114
112765,109106
112756,109095
112739,109116
112745,109084
112782,109094
112706,109140
112739,109085
112751,109089
112740,109128
112705,109093
112718,109092
112773,109090
112746,109116
112737,109097
112778,109101
112769,109097
112799,109130
112767,109081
112808,109136
112828,109119
112807,109124
112855,109172
112856,109131
112916,109170
112888,109162
112891,109159
112925,109184
112993,109213
112985,109191
112981,109190
113057,109236
113014,109221
113064,109211
113046,109228
113064,109220
113059,109226
113104,109240
113116,109258
113085,109218
113100,109248
113121,109258
113092,109252
113125,109236
113120,109273
113108,109244
113122,109271
113108,109232
113164,109289
113133,109246
113142,109255
113159,109265
113140,109278
113172,109236
113194,109281
113122,109280
113156,109216
113186,109259
113225,109257
113222,109299
113228,109269
113260,109306
113281,109291
113276,109306
113302,109325
113314,109336
113404,109351
113363,109349
113413,109314
113452,109392
113486,109381
113480,109367
113572,109412
113536,109450
113570,109422
113623,109455
113633,109443
113666,109486
113687,109471
113709,109505
113752,109536
113748,109489
113791,109552
113786,109539
113838,109511
113873,109561
113873,109542
113895,109567
113914,109578
113952,109582
113943,109600
113983,109594
114004,109612
114003,109607
114042,109625
114044,109623
114075,109664
114093,109664
114108,109674
114101,109669
114131,109654
114168,109669
114168,109681
114197,109706
114220,109702
114232,109701
114256,109707
114259,109725
114303,109746
114356,109732
114319,109749
114389,109780
114386,109771
114402,109779
114399,109803
114425,109793
114412,109831
114470,109817
114507,109823
114504,109861
114514,109819
114558,109888
114564,109847
114593,109853
114629,109906
114641,109883
114658,109934
114680,109906
114675,109909
114714,109939
114706,109945
114772,109942
114735,109939
114743,109950
114795,109951
114822,109996
114811,109959
114829,109976
114830,110011
114855,109977
114915,110031
114881,110000
114941,110031
114932,110036
114915,110015
114978,110047
115030,110044
114995,110079
115013,110083
115026,110047
115025,110079
115101,110105
115115,110076
115129,110113
115094,110106
115151,110117
115146,110121
115190,110112
115198,110103
115207,110149
115171,110121
115247,110178
115240,110144
115243,110143
115232,110148
115304,110190
115278,110148
115323,110216
115325,110226
115305,110194
115343,110226
115356,110194
115357,110239
115350,110214
115418,110222
115362,110272
115433,110248
115418,110255
115401,110277
115454,110257
115425,110282
115473,110273
115472,110275
115523,110291
115496,110319
115500,110251
115500,110303
115536,110316
115512,110294
115544,110303
115538,110321
115526,110303
115465,110279
115460,110271
115449,110256
115336,110211
115275,110190
115176,110152
115055,110057
114940,110042
114741,109902
114558,109853
114404,109750
114191,109715
114078,109652
113958,109577
113845,109507
113726,109490
113650,109476
113552,109407
113543,109387
113467,109378
113440,109351
113379,109317
113377,109357
113334,109314
113343,109337
113336,109338
113337,109307
113340,109327
113317,109296
113358,109317
113302,109353
113337,109346
113325,109338
113376,109342
113388,109382
113409,109412
113450,109356
113431,109398
113470,109392
113476,109371
113502,109408
113511,109395
113542,109429
113548,109456
113573,109440
113558,109436
113570,109464
113570,109456
113656,109435
113622,109445
113636,109463
113630,109483
113616,109469
113668,109487
113638,109463
113664,109471
113638,109498
113655,109481
113700,109499
113653,109467
113692,109482
113683,109497
113699,109519
113685,109498
113721,109482
113730,109522
113721,109478
113766,109510
113800,109531
113796,109560
113797,109523
113862,109568
113816,109569
113860,109577
113831,109563
113893,109602
113906,109561
113915,109600
113911,109547
113905,109588
113944,109616
113950,109593
113889,109618
113918,109564
113914,109566
113853,109557
113878,109570
113864,109590
113821,109515
113792,109539
113748,109507
113785,109524
113739,109518
113719,109508
113710,109491
113698,109510
113672,109465
113687,109493
113673,109472
113671,109482
113633,109490
113682,109472
113641,109502
113654,109474
113672,109477
113639,109458
113660,109509
113651,109476
113714,109521
113690,109505
113721,109484
113690,109520
113739,109534
113734,109485
113775,109565
113759,109563
113803,109543
113778,109549
113815,109549
113835,109542
113865,109591
113880,109599
113873,109586
113919,109593
113918,109608
113916,109586
113955,109646
113977,109616
113977,109629
113963,109630
114027,109631
113997,109679
114026,109633
114045,109688
114070,109668
114067,109688
114076,109691
114096,109717
114120,109672
114111,109664
114133,109728
114163,109690
114155,109741
114148,109698
114198,109718
114188,109713
114158,109731
114198,109732
114210,109743
114167,109736
114229,109718
114221,109717
114202,109758
114221,109777
114212,109745
114288,109747
114234,109746
114261,109750
114287,109769
114285,109757
114301,109738
114314,109796
114281,109780
114337,109763
114349,109789
114285,109806
114339,109773
114362,109803
114334,109758
114343,109770
114379,109803
114395,109801
114382,109845
114365,109791
114414,109840
114369,109803
114372,109827
114416,109835
114379,109800
114416,109823
114376,109836
114441,109840
114421,109837
114447,109826
114426,109829
114445,109830
114439,109854
114451,109874
114457,109812
114464,109851
114447,109828
114496,109849
114478,109867
114472,109839
114501,109840
114478,109860
114464,109854
114513,109845
114441,109883
114452,109857
114406,109804
114372,109796
114286,109772
114267,109717
114153,109721
114055,109620
113938,109574
113817,109562
113696,109496
113625,109445
113505,109417
113427,109362
113320,109342
113283,109287
113181,109294
113116,109197
113042,109216
112976,109198
112910,109173
112845,109100
112811,109133
112729,109067
112750,109078
112682,109034
112684,109041
112623,109016
112583,109002
112614,109019
112574,108993
112559,108986
112586,108994
112540,108969
112564,109023
112564,109002
112558,108995
112533,109004
112571,109007
112547,108967
112559,108999
112549,108991
112573,108986
112578,108986
112564,108972
112569,109008
112537,108953
112559,109016
112536,108955
112587,108985
112529,108964
112559,109000
112531,108960
112570,108989
112517,109001
112503,108990
112529,108975
112530,108986
112503,108957
112523,108957
112490,108959
112524,108978
112515,108975
112487,108962
112483,108943
112524,108965
112512,108974
112484,108959
112524,108965
112561,108971
112532,108985
112573,108955
112562,109017
112570,108998
112586,109003
112611,109055
112598,108983
112654,109041
112639,109011
112629,109040
112680,109016
112678,109045
112669,109020
112738,109053
112683,109069
112698,109055
112691,109046
112676,109050
112708,109017
112663,109036
112706,109055
112640,109049
112683,109025
112668,109024
112664,109063
112638,109016
112665,109026
112662,108994
112656,109035
112635,109055
112620,108983
112635,109006
112614,108990
112632,109021
112585,108992
112617,108999
112612,109034
112638,108992
112609,109018
112594,109000
112669,109028
112647,109037
112686,109032
112687,109039
112691,109035
112679,109041
112711,109055
112718,109030
112767,109083
112742,109059
112786,109114
112792,109092
112838,109122
112815,109115
112856,109076
112884,109140
112867,109122
112921,109147
112906,109161
112927,109176
112943,109162
113002,109162
112974,109208
112986,109186
113023,109219
113038,109233
113065,109201
113066,109246
113049,109221
113084,109237
113089,109227
113117,109219
113123,109267
113131,109216
113163,109253
113184,109261
113172,109242
113192,109320
113180,109267
113247,109302
113240,109283
113239,109330
113285,109301
113252,109317
113276,109326
113276,109317
113297,109334
113317,109332
113322,109341
113362,109354
113366,109370
113379,109372
113385,109347
113383,109360
113445,109387
113457,109393
113424,109401
113465,109394
113464,109416
113479,109403
113479,109415
113496,109422
113545,109434
113544,109435
113570,109445
113568,109465
113607,109431
113608,109455
113623,109510
113610,109441
113639,109495
113644,109494
113678,109492
113690,109519
113694,109463
113695,109502
113761,109529
113710,109532
113784,109548
113730,109551
113809,109550
113780,109579
113796,109574
113803,109556
113849,109557
113850,109585
113843,109572
113909,109615
113888,109588
113869,109620
113878,109589
113928,109622
113933,109603
113937,109642
113935,109636
113975,109633
113980,109677
114010,109635
113984,109671
114012,109673
114007,109665
114028,109674
113979,109662
114015,109677
113968,109638
113928,109589
113914,109616
113831,109563
113734,109538
113659,109460
113520,109423
113433,109363
113338,109313
113223,109296
113146,109264
112990,109206
112941,109128
112815,109117
112749,109082
112685,109070
112589,109015
112557,108982
112470,108939
112411,108940
112351,108902
112310,108903
112265,108875
112186,108838
112182,108821
112135,108826
112121,108821
112036,108779
112049,108776
111994,108770
112031,108780
111998,108762
112007,108731
111987,108748
112037,108745
111978,108745
112006,108737
111996,108774
112011,108756
112020,108727
111989,108730
112032,108741
111993,108785
112019,108715
112043,108733
112043,108749
112030,108762
112010,108747
112036,108751
112050,108788
112033,108737
112038,108746
112044,108723
112062,108741
112029,108773
112010,108724
112044,108735
112014,108759
112059,108773
111994,108745
112051,108756
112033,108759
112043,108718
112048,108746
112012,108764
112000,108722
112075,108742
112047,108795
112067,108783
112097,108781
112121,108778
112100,108772
112156,108807
112190,108807
112201,108831
112200,108827
112264,108856
112215,108824
112274,108833
112311,108869
112315,108836
112357,108902
112366,108890
112342,108913
112333,108883
112409,108942
112410,108933
112421,108895
112453,108938
112380,108945
112426,108936
112426,108929
112440,108891
112430,108911
112431,108933
112400,108909
112420,108934
112418,108896
112434,108940
112446,108932
112392,108935
112441,108900
112450,108942
112433,108911
112465,108921
112448,108945
112465,108959
112441,108950
112485,108955
112463,108976
112468,108959
112534,108961
112530,108934
112587,109004
112546,109025
112596,109007
112594,109000
112645,109031
112645,109018
112703,109043
112655,109046
112738,109055
112702,109104
112736,109061
112813,109106
112793,109122
112796,109123
112855,109118
112850,109127
112881,109131
112896,109166
112878,109141
112983,109175
112948,109182
112952,109187
113024,109183
113038,109231
113063,109190
113067,109230
113094,109246
113124,109250
113141,109252
113139,109235
113219,109256
113167,109305
113239,109293
113230,109319
113280,109297
113302,109302
113304,109333
113325,109306
113349,109359
113390,109334
113391,109373
113407,109354
113434,109386
113424,109359
113466,109412
113487,109402
113501,109413
113553,109438
113547,109455
113579,109398
113596,109439
113599,109454
113627,109472
113605,109448
113671,109495
113632,109469
113686,109503
113721,109489
113677,109492
113752,109527
113745,109504
113793,109567
113789,109516
113788,109572
113835,109538
113862,109548
113833,109586
113884,109557
113908,109594
113960,109628
113940,109611
113945,109592
114021,109638
113988,109658
114031,109645
114038,109671
114050,109639
114104,109673
114108,109695
114116,109646
114189,109716
114172,109733
114173,109720
114185,109727
114253,109726
114251,109761
114255,109745
114281,109763
114329,109793
114341,109756
114372,109815
114344,109768
114403,109789
114446,109801
114422,109813
114477,109851
114463,109816
114506,109845
114499,109867
114554,109893
114539,109874
114573,109859
114576,109911
114571,109894
114577,109904
114618,109893
114629,109892
114619,109894
114587,109899
114532,109864
114457,109869
114374,109783
114287,109727
114158,109687
113988,109593
113870,109540
113723,109499
113593,109398
113473,109362
113346,109282
113273,109281
113136,109210
113062,109210
112970,109120
112948,109116
112865,109133
112811,109033
112773,109078
112741,109010
112683,109017
112678,109026
112662,108981
112645,109005
112619,108957
112586,108971
112624,108998
112628,108975
112614,108987
112589,108955
112665,108994
112669,109009
112657,109035
112726,108999
112675,109056
112714,108998
112754,109062
112766,109058
112765,109039
112806,109040
112812,109081
112824,109066
112839,109107
112884,109095
112853,109092
112875,109107
112904,109080
112907,109120
112953,109123
112941,109125
112936,109130
112963,109145
112928,109121
112947,109103
112984,109148
112982,109127
112962,109170
112981,109117
112993,109113
112986,109173
112990,109123
113009,109152
113060,109167
113048,109168
113063,109166
113080,109190
113049,109165
113088,109190
113154,109213
113151,109204
113226,109240
113200,109263
113246,109230
113240,109265
113288,109285
113305,109288
113336,109274
113335,109318
113388,109281
113391,109342
113419,109317
113365,109313
113395,109340
113399,109298
113437,109342
113400,109321
113388,109323
113404,109314
113354,109319
113316,109266
113346,109297
113333,109277
113303,109279
113256,109247
113246,109268
113274,109228
113258,109257
113226,109241
113249,109232
113189,109237
113235,109240
113238,109240
113188,109225
113183,109224
113242,109261
113249,109241
113219,109240
113286,109244
113265,109275
113268,109242
113276,109267
113313,109263
113297,109254
113359,109275
113326,109316
113376,109308
113438,109305
113427,109333
113437,109304
113447,109386
113477,109338
113506,109363
113544,109344
113559,109418
113569,109374
113608,109409
113616,109440
113654,109454
113646,109435
113691,109469
113681,109444
113720,109461
113720,109456
113708,109483
113770,109466
113807,109516
113765,109512
113828,109494
113815,109536
113863,109496
113855,109528
113873,109536
113919,109555
113892,109565
113919,109535
113910,109568
113962,109586
113965,109553
113978,109568
113936,109556
113979,109583
113965,109585
114021,109588
113988,109598
114047,109626
113987,109595
114055,109605
114045,109585
114037,109597
114045,109629
114022,109632
114096,109598
114059,109656
114108,109645
114082,109645
114123,109637
114086,109661
114107,109615
114138,109668
114142,109641
114145,109648
114132,109657
114143,109643
114139,109665
114162,109675
114148,109674
114155,109678
114192,109682
114197,109703
114233,109694
114199,109693
114221,109702
114250,109687
114250,109700
114258,109705
114237,109715
114281,109719
114296,109725
114259,109728
114259,109709
114217,109687
114188,109697
114153,109636
114063,109642
113988,109572
113871,109501
113800,109479
113642,109420
113550,109387
113449,109320
113313,109267
113230,109219
113145,109186
113055,109145
112977,109121
112888,109093
112825,109024
112767,109041
112667,108976
112654,108993
112575,108978
112522,108976
112496,108883
112492,108912
112410,108868
112421,108896
112409,108882
112381,108874
112357,108835
112363,108891
112308,108847
112387,108851
112350,108868
112358,108863
112339,108827
112343,108854
112353,108864
112368,108880
112373,108861
112390,108855
112391,108875
112370,108864
112372,108879
112431,108905
112407,108872
112414,108904
112395,108922
112385,108874
112419,108888
112373,108894
112426,108892
112382,108884
112412,108873
112410,108920
112388,108869
112414,108906
112392,108892
112371,108896
112397,108859
112332,108912
112373,108901
112366,108896
112401,108863
112385,108876
112368,108910
112404,108898
112401,108898
112419,108888
112466,108923
112436,108916
112490,108908
112499,108925
112500,108958
112532,108927
112544,108965
112567,108989
112576,109007
112552,108983
112584,108973
112579,108967
112604,108998
112571,109020
112599,108969
112652,108997
112621,108971
112609,108963
112611,109016
112574,109004
112590,109016
112565,108960
112584,109003
112546,109003
112532,108976
112582,108981
112554,108969
112533,108987
112511,108999
112491,108981
112542,108992
112537,108988
112494,109003
112547,108971
112549,109021
112519,109004
112582,109013
112550,109041
112543,109065
112544,109027
112585,109072
112566,109022
112570,109064
112540,109031
112578,109038
112505,109017
112558,109054
112512,109041
112500,109019
112494,109022
112469,108976
112440,109016
112429,108944
112405,108969
112375,108912
112405,108959
112396,108932
112364,108945
112352,108890
112387,108922
112396,108938
112341,108900
112379,108924
112372,108964
112342,108935
112386,108903
112363,108954
112362,108949
112401,108963
112389,108934
112372,108954
112414,108933
112402,108948
112424,108942
112375,108958
112408,108944
112380,108978
112400,108925
112403,108961
112386,108951
112435,108959
112431,108995
112418,108948
112449,108994
112435,108982
112453,108967
112482,109003
112467,108972
112539,109026
112501,108992
112532,109016
112579,109005
112549,109016
112615,109029
112590,109016
112655,109052
112639,109019
112669,109047
112659,109003
112692,109030
112721,109059
112734,109010
112743,109023
112809,109048
112803,109012
112877,109075
112847,109030
112922,109070
112951,109074
112983,109085
112995,109107
113035,109073
113086,109143
113102,109105
113128,109167
113231,109168
113241,109182
113241,109186
113305,109216
113359,109233
113365,109236
113420,109268
113464,109262
113490,109278
113512,109298
113567,109332
113567,109317
113622,109348
113662,109344
113656,109357
113674,109340
113666,109374
113681,109349
113683,109346
113665,109340
113601,109319
113507,109261
113423,109222
113284,109134
113169,109059
113038,108994
112869,108898
112745,108814
112565,108763
112451,108674
112316,108622
112229,108601
112164,108548
112043,108492
112009,108461
111938,108420
111857,108414
111839,108382
111772,108414
111717,108339
111729,108357
111673,108337
111637,108328
111640,108330
111642,108339
111645,108279
111619,108293
111609,108307
111596,108281
111632,108303
111567,108278
111604,108286
111636,108327
111638,108307
111703,108331
111653,108333
111708,108341
111689,108353
111715,108347
111731,108342
111780,108342
111773,108398
111762,108315
111811,108391
111827,108376
111800,108393
111813,108381
111886,108383
111859,108380
111892,108407
111884,108386
111899,108417
111914,108379
111898,108442
111946,108415
111932,108425
111962,108426
111979,108405
111979,108447
111985,108441
112011,108480
111996,108432
112068,108485
112060,108457
112067,108496
112085,108497
112091,108500
112176,108511
112157,108513
112204,108535
112267,108562
112302,108606
112302,108603
112386,108622
112374,108669
112423,108634
112469,108655
112463,108662
112517,108711
112514,108753
112598,108712
112569,108738
112613,108746
112610,108749
112653,108745
112639,108777
112659,108754
112700,108795
112693,108782
112683,108805
112705,108773
112755,108825
112709,108789
112727,108785
112726,108786
112729,108823
112746,108781
112762,108848
112774,108799
112775,108846
112742,108813
112781,108810
112789,108876
112853,108839
112827,108868
112823,108898
112844,108841
112927,108893
112908,108897
112930,108925
112962,108929
112949,108927
113040,108965
113022,108987
113055,108940
113139,109023
113133,109002
113198,109019
113218,109032
113214,109076
113308,109077
113304,109104
113365,109085
113395,109115
113405,109120
113454,109174
113486,109143
113556,109204
113562,109196
113627,109176
113655,109222
113683,109219
113674,109263
113716,109240
113777,109307
113795,109318
113832,109313
113860,109311
113941,109358
113906,109383
113948,109362
113973,109409
114012,109434
114052,109395
114087,109445
114079,109404
114144,109473
114144,109486
114160,109494
114227,109488
114220,109500
114265,109526
114276,109525
114321,109556
114299,109566
114389,109564
114375,109581
114393,109602
114416,109580
114427,109607
114448,109617
114432,109679
114477,109607
114490,109662
114470,109637
114545,109692
114531,109686
114544,109683
114588,109658
114581,109699
114579,109686
114619,109696
114629,109693
114664,109712
114698,109756
114693,109722
114721,109761
114708,109750
114744,109732
114797,109788
114764,109755
114794,109792
114802,109779
114800,109809
114823,109811
114858,109790
114821,109825
114879,109825
114856,109855
114920,109822
114899,109832
114910,109865
114953,109808
114954,109887
114964,109859
114960,109843
114969,109879
115024,109906
115036,109861
115020,109880
115025,109885
115013,109876
115046,109879
115035,109880
114980,109870
114923,109821
114842,109793
114790,109781
114712,109725
114563,109656
114436,109609
114254,109538
114108,109439
113889,109338
113712,109254
113563,109175
113442,109154
113348,109076
113237,109035
113131,108997
113061,108952
112970,108932
112951,108917
112895,108923
112891,108885
112835,108891
112834,108866
112825,108860
112825,108869
112832,108859
112844,108894
112852,108865
112817,108878
112850,108878
112872,108881
112921,108900
112897,108908
112950,108919
112964,108927
112981,108964
113028,108976
113015,108961
113060,108977
113059,108987
113060,108995
113144,109019
113136,109030
113135,109027
113152,109006
113167,109033
113199,109050
113201,109051
113216,109043
113231,109068
113225,109047
113236,109058
113226,109068
113255,109057
113215,109057
113249,109052
113299,109099
113269,109074
113245,109060
113255,109080
113261,109064
113285,109097
113277,109079
113307,109113
113303,109087
113353,109112
113363,109106
113381,109143
113388,109116
113456,109157
113445,109124
113481,109166
113564,109199
113519,109198
113566,109194
113582,109232
113603,109223
113620,109241
113634,109235
113681,109226
113697,109233
113667,109222
113712,109237
113681,109240
113702,109257
113646,109276
113669,109231
113669,109207
113645,109260
113638,109235
113640,109200
113611,109253
113571,109211
113599,109220
113567,109195
113556,109213
113532,109164
113551,109191
113552,109169
113520,109181
113501,109181
113508,109157
113518,109158
113539,109155
113546,109178
113538,109190
113549,109166
113582,109244
113608,109181
113613,109229
113635,109218
113653,109219
113643,109259
113710,109230
113688,109275
113750,109282
113736,109257
113802,109316
113814,109298
113838,109309
113845,109344
113889,109312
113882,109323
113900,109358
113969,109356
113988,109357
114013,109406
114034,109374
114064,109451
114104,109441
114124,109454
114160,109452
114176,109509
114199,109477
114203,109470
114217,109495
114272,109480
114298,109533
114299,109508
114326,109545
114340,109547
114391,109572
114401,109592
114424,109573
114422,109587
114457,109609
114455,109605
114510,109593
114513,109614
114522,109642
114578,109646
114549,109668
114546,109678
114586,109655
114562,109651
114595,109669
114627,109666
114600,109664
114616,109669
114637,109684
114641,109692
114651,109695
114673,109685
114651,109696
114690,109687
114703,109698
114693,109693
114676,109697
114707,109697
114731,109681
114740,109719
114749,109702
114754,109724
114776,109740
114758,109724
114773,109718
114771,109734
114799,109736
114796,109735
114826,109755
114832,109740
114823,109742
114853,109753
114840,109741
114859,109764
114882,109754
114833,109738
114831,109771
114808,109733
114790,109709
114743,109674
114630,109665
114582,109600
114430,109541
114303,109453
114098,109392
113930,109283
113756,109199
113630,109182
113475,109105
113338,109017
113232,108981
113132,108920
113017,108872
112965,108853
112881,108828
112830,108789
112772,108760
112734,108733
112721,108738
112692,108740
112665,108702
112634,108720
112625,108697
112630,108713
112599,108699
112607,108684
112591,108696
112614,108689
112607,108679
112629,108697
112634,108698
112636,108716
112666,108723
112643,108705
112675,108726
112698,108745
112714,108739
112722,108732
112737,108748
112721,108757
112778,108773
112778,108764
112766,108778
112771,108772
112784,108767
112798,108792
112825,108807
112771,108780
112832,108785
112814,108769
112782,108791
112817,108768
112791,108768
112804,108786
112822,108773
112834,108758
112822,108775
112809,108754
112826,108777
112833,108789
112844,108815
112821,108784
112852,108792
112862,108805
112884,108817
112928,108804
112941,108861
112986,108864
112958,108847
113020,108872
113002,108868
113043,108893
113070,108877
113065,108916
113099,108895
113072,108920
113112,108913
113104,108903
113112,108930
113101,108897
113127,108913
113085,108919
113097,108879
113101,108926
113102,108879
113083,108877
113055,108893
113040,108889
113044,108864
113032,108851
113005,108866
113014,108839
113004,108854
112976,108799
112950,108834
112996,108852
113006,108834
112954,108859
112982,108858
112987,108806
112989,108848
112989,108839
112985,108821
113052,108855
113033,108851
113051,108867
113053,108879
113075,108881
113117,108901
113122,108892
113119,108907
113188,108940
113171,108927
113210,108941
113199,108912
113264,108957
113261,108926
113299,108955
113309,109005
113295,108981
113371,108969
113355,109050
113410,109025
113425,109041
113398,109040
113431,109026
113465,109095
113489,109088
113512,109096
113514,109067
113600,109088
113561,109126
113604,109104
113587,109121
113630,109094
113643,109166
113665,109111
113651,109128
113668,109161
113648,109138
113688,109174
113711,109133
113705,109165
113699,109166
113732,109158
113785,109196
113797,109165
113795,109186
113813,109171
113822,109184
113796,109252
113849,109182
113826,109211
113842,109193
113874,109233
113884,109258
113916,109235
113915,109254
113926,109268
113926,109286
113967,109238
113935,109295
113975,109269
114002,109302
113996,109293
113995,109302
114051,109318
114039,109311
114065,109334
114040,109317
114068,109291
114093,109347
114108,109338
114172,109338
114131,109357
114166,109332
114172,109316
114192,109377
114175,109379
114217,109386
114253,109391
114236,109402
114283,109395
114267,109416
114288,109422
114307,109425
114323,109434
114326,109420
114341,109445
114374,109461
114370,109452
114344,109445
114341,109440
114347,109448
114319,109456
114264,109398
114168,109358
114121,109330
113997,109283
113841,109193
113690,109129
113556,109066
113434,109017
113294,108940
113121,108852
113040,108818
112923,108759
112791,108728
112727,108687
112651,108650
112594,108649
112521,108600
112429,108556
112418,108563
112397,108522
112299,108514
112282,108499
112261,108477
112195,108465
112216,108492
112165,108446
112164,108436
112179,108473
112138,108439
112163,108424
112170,108475
112190,108444
112175,108443
112167,108451
112166,108463
112195,108452
112177,108440
112234,108442
112214,108469
112240,108468
112242,108490
112228,108467
112246,108482
112220,108493
112236,108498
112259,108487
112232,108482
112261,108480
112221,108470
112253,108491
112244,108472
112251,108464
112240,108488
112204,108457
112235,108450
112198,108453
112241,108453
112210,108460
112208,108448
112205,108455
112183,108440
112187,108459
112207,108431
112212,108462
112216,108451
112190,108446
112214,108463
112219,108453
112244,108466
112265,108456
112259,108477
112296,108505
112315,108504
112306,108502
112346,108536
112346,108503
112393,108527
112397,108527
112437,108545
112431,108566
112447,108566
112454,108556
112451,108546
112485,108558
112476,108568
112496,108578
112492,108572
112475,108603
112488,108562
112477,108576
112494,108569
112481,108562
112480,108587
112490,108570
112460,108578
112482,108569
112472,108562
112492,108596
112492,108556
112482,108565
112482,108581
112482,108571
112496,108584
112495,108569
112487,108585
112544,108591
112514,108594
112548,108568
112529,108615
112548,108582
112574,108625
112588,108615
112610,108610
112627,108608
112660,108650
112668,108621
112703,108659
112707,108674
112762,108684
112742,108682
112791,108681
112791,108702
112828,108746
112841,108729
112847,108735
112886,108752
112934,108772
112942,108783
112972,108785
112962,108810
113001,108800
113020,108787
113057,108839
113094,108840
113090,108863
113109,108860
113133,108863
113176,108885
113200,108875
113221,108907
113244,108917
113228,108899
113263,108906
113281,108935
113311,108941
113331,108953
113341,108956
113391,108981
113372,108973
113410,108969
113416,108977
113450,108995
113452,108992
113489,109012
113500,109035
113493,109015
113500,108998
113526,109013
113551,109058
113572,109047
113590,109064
113582,109067
113627,109070
113625,109088
113659,109093
113674,109105
113711,109098
113714,109132
113749,109120
113770,109139
113771,109132
113812,109169
113823,109178
113821,109151
113864,109157
113872,109194
113923,109225
113902,109213
113911,109195
113983,109236
113931,109236
113967,109234
114039,109251
114001,109249
114047,109231
114059,109323
114045,109277
114157,109308
114146,109322
114110,109322
114189,109327
114160,109322
114231,109342
114224,109348
114231,109341
114270,109347
114287,109398
114275,109368
114292,109396
114331,109401
114361,109384
114372,109419
114381,109408
114397,109429
114438,109429
114420,109418
114440,109464
114515,109462
114491,109466
114483,109481
114525,109452
114525,109473
114510,109441
114507,109458
114510,109462
114459,109417
114420,109407
114316,109375
114233,109326
114130,109238
113973,109215
113759,109131
113624,109019
113448,108940
113270,108894
113174,108815
113052,108784
112910,108667
112832,108646
112762,108636
112703,108633
112615,108576
112595,108590
112542,108523
112476,108548
112472,108511
112433,108484
112423,108490
112369,108459
112411,108474
112367,108460
112387,108488
112392,108459
112351,108471
112390,108454
112380,108489
112440,108470
112380,108504
112422,108476
112417,108513
112485,108510
112491,108577
112515,108522
112524,108516
112543,108526
112554,108588
112533,108523
112606,108605
112601,108572
112595,108574
112594,108564
112633,108561
112625,108611
112630,108588
112650,108601
112641,108579
112677,108573
112665,108601
112649,108599
112659,108585
112684,108617
112652,108618
112666,108629
112701,108610
112693,108607
112662,108582
112726,108597
112691,108639
112702,108620
112748,108606
112764,108643
112735,108616
112807,108644
112826,108659
112822,108642
112837,108725
112862,108666
112912,108718
112935,108720
112945,108719
112954,108717
113002,108744
112984,108741
113039,108770
113060,108767
113043,108798
113051,108740
113063,108779
113065,108766
113076,108769
113041,108764
113071,108739
113023,108731
113042,108759
113016,108764
113044,108744
113055,108769
112994,108717
113017,108746
112996,108714
113011,108736
112933,108731
112982,108715
112975,108704
113004,108734
112927,108731
112931,108733
112982,108735
112965,108734
113016,108707
112985,108732
113022,108719
113007,108781
113046,108763
113089,108750
113104,108790
113075,108771
113154,108820
113150,108822
113175,108826
113182,108801
113221,108826
113223,108878
113236,108851
113318,108870
113294,108915
113307,108874
113399,108916
113378,108922
113379,108932
113435,108938
113458,108935
113501,108963
113510,108974
113548,108966
113584,109029
113565,109002
113665,109049
113648,109034
113677,109045
113698,109028
113757,109088
113745,109039
113785,109094
113789,109070
113831,109105
113806,109065
113902,109130
113861,109131
113931,109138
113900,109155
113934,109119
113945,109178
113954,109138
113972,109156
114017,109154
114034,109174
114012,109201
114044,109216
114072,109191
114099,109206
114075,109179
114089,109252
114109,109260
114130,109243
114150,109202
114171,109225
114161,109246
114199,109244
114199,109263
114223,109250
114214,109305
114251,109254
114245,109268
114223,109272
114268,109295
114286,109305
114242,109247
114299,109290
114297,109327
114283,109283
114304,109308
114354,109313
114325,109328
114339,109295
114363,109325
114336,109322
114380,109319
114356,109315
114393,109330
114441,109355
114435,109378
114442,109329
114447,109324
114470,109351
114491,109394
114455,109359
114489,109406
114500,109379
114524,109392
114513,109414
114562,109375
114516,109403
114550,109407
114517,109380
114474,109348
114386,109347
114357,109309
114194,109231
114097,109157
113949,109134
113806,109025
113598,108917
113472,108901
113318,108818
113146,108740
113059,108660
112949,108648
112908,108606
112811,108570
112735,108549
112720,108492
112623,108521
112593,108517
112573,108455
112522,108465
112471,108410
112489,108459
112489,108419
112421,108427
112430,108381
112447,108453
112455,108411
112443,108429
112467,108400
112451,108443
112483,108429
112491,108403
112493,108443
112522,108435
112558,108476
112547,108452
112564,108462
112581,108473
112592,108512
112561,108489
112620,108495
112632,108470
112612,108498
112650,108535
112635,108492
112690,108495
112634,108499
112655,108538
112654,108496
112704,108503
112656,108515
112656,108513
112680,108515
112671,108488
112661,108494
112719,108524
112680,108518
112640,108478
112711,108532
112718,108504
112673,108502
112736,108528
112703,108546
112790,108543
112763,108532
112766,108573
112774,108570
112830,108539
112814,108621
112814,108595
112902,108616
112896,108599
112894,108636
112914,108605
112916,108608
112948,108636
112936,108625
112916,108621
112916,108627
112947,108612
112933,108619
112964,108646
112937,108604
112895,108579
112948,108609
112865,108630
112873,108609
112872,108613
112881,108608
112825,108579
112845,108590
112829,108596
112819,108587
112808,108576
112797,108585
112795,108567
112811,108574
112786,108576
112781,108570
112775,108563
112783,108587
112790,108558
112767,108567
112824,108581
112802,108570
112836,108597
112856,108579
112823,108594
112841,108594
112856,108604
112857,108598
112916,108628
112912,108630
112929,108642
112970,108655
112942,108610
112971,108637
112982,108678
113042,108671
113059,108695
113026,108710
113060,108728
113118,108733
113096,108704
113114,108741
113187,108756
113189,108747
113180,108764
113199,108765
113197,108813
113233,108782
113258,108778
113260,108805
113324,108834
113296,108858
113313,108777
113331,108817
113338,108794
113373,108873
113352,108854
113406,108866
113423,108872
113418,108869
113433,108906
113442,108842
113466,108895
113514,108904
113514,108893
113525,108865
113523,108915
113581,108946
113568,108936
113601,108932
113578,108935
113594,108954
113596,108936
113621,108956
113654,108972
113665,108955
113713,108983
113687,108960
113722,108972
113721,108987
113698,108970
113747,108968
113739,109027
113762,109001
113846,109042
113779,109010
113810,109021
113824,109054
113849,109035
113884,109054
113883,109047
113915,109080
113909,109035
113934,109092
113939,109093
113966,109071
113957,109149
114009,109079
114049,109105
114022,109115
114100,109138
114080,109157
114104,109121
114141,109176
114138,109185
114145,109145
114199,109179
114206,109188
114208,109229
114235,109209
114291,109246
114274,109242
114342,109256
114327,109239
114360,109267
114341,109249
114429,109285
114409,109284
114461,109317
114492,109327
114474,109341
114503,109372
114541,109355
114562,109351
114590,109346
114605,109401
114597,109369
114645,109401
114639,109413
114678,109412
114720,109428
114708,109434
114746,109414
114776,109435
114729,109470
114768,109413
114837,109483
114798,109460
114855,109493
114859,109472
114881,109518
114881,109477
114881,109508
114897,109513
114952,109507
114920,109525
114961,109560
114959,109498
115012,109543
114990,109562
114984,109549
115045,109554
115009,109564
115026,109559
115061,109547
115061,109591
115080,109583
115073,109557
115108,109589
115097,109573
115146,109618
115121,109565
115107,109611
115164,109616
115156,109627
115116,109626
115131,109594
115113,109575
115019,109573
115024,109550
114926,109520
114791,109408
114671,109397
114474,109272
114296,109173
114053,109100
113790,108978
113696,108934
113494,108816
113340,108755
113280,108713
113138,108683
113101,108660
113004,108624
112964,108588
112896,108546
112870,108547
112822,108484
112786,108510
112740,108480
112673,108456
112685,108432
112651,108394
112623,108408
112661,108385
112596,108355
112599,108371
112588,108389
112561,108337
112595,108331
112596,108341
112583,108325
112617,108335
112585,108326
112612,108327
112590,108318
112604,108310
112596,108355
112576,108301
112609,108309
112579,108288
112598,108319
112607,108294
112587,108298
112543,108259
112551,108287
112545,108279
112542,108257
112518,108254
112519,108242
112491,108242
112495,108245
112468,108242
112453,108215
112441,108193
112458,108181
112461,108225
112445,108191
112410,108164
112436,108212
112408,108162
112458,108185
112439,108141
112452,108201
112437,108159
112497,108202
112460,108209
112493,108226
112528,108220
112514,108198
112591,108226
112564,108258
112584,108266
112618,108244
112631,108264
112694,108270
112638,108256
112723,108293
112683,108285
112723,108311
112677,108305
112719,108287
112690,108258
112721,108301
112725,108265
112706,108300
112675,108226
112679,108257
112680,108266
112667,108257
112632,108270
112647,108210
112587,108209
112594,108206
112588,108249
112561,108188
112616,108204
112587,108195
112553,108197
112556,108216
112574,108204
112550,108177
112561,108214
112633,108223
112589,108184
112602,108213
112643,108247
112623,108256
112650,108239
112639,108273
112651,108239
112707,108255
112739,108255
112686,108294
112746,108287
112741,108288
112775,108285
112821,108319
112785,108317
112871,108342
112850,108378
112876,108348
112882,108361
112948,108365
112928,108387
112948,108385
112993,108448
113019,108446
113056,108430
113074,108443
113114,108479
113118,108498
113162,108519
113188,108502
113215,108537
113249,108545
113247,108572
113271,108552
113329,108590
113336,108584
113386,108602
113350,108633
113409,108641
113439,108622
113449,108644
113452,108648
113485,108690
113486,108675
113515,108694
113550,108682
113504,108708
113542,108699
113566,108712
113570,108695
113611,108741
113601,108718
113631,108700
113655,108749
113606,108710
113609,108742
113653,108755
113703,108761
113680,108782
113678,108741
113709,108784
113724,108746
113719,108748
113796,108812
113740,108836
113779,108829
113781,108833
113820,108819
113844,108830
113828,108828
113880,108862
113856,108842
113902,108865
113905,108867
113917,108841
113905,108899
113936,108845
113973,108903
113974,108895
113940,108881
113995,108876
114057,108923
113997,108885
114020,108915
114050,108939
114064,108919
114093,108934
114058,108924
114127,108944
114092,108945
114142,108951
114163,108975
