11111,11111
0,0
82455,82609
132918,107609
136038,107607
135995,107588
136020,107554
136057,107602
136067,107599
136084,107561
136106,107587
136032,107558
136154,107593
136162,107644
136162,107599
136193,107594
136153,107600
136200,107604
136287,107641
136227,107655
136213,107622
136240,107595
136258,107644
136301,107672
136258,107605
136232,107581
136201,107601
136189,107583
136102,107585
136074,107527
136021,107498
135897,107466
135844,107440
135819,107420
135681,107399
135599,107327
135525,107329
135464,107301
135443,107294
135400,107230
135311,107206
135192,107182
135217,107172
135186,107205
135109,107174
135059,107118
135023,107105
135024,107137
134996,107123
135003,107082
134969,107108
134937,107102
134976,107110
134959,107108
134939,107069
134924,107056
134952,107050
134952,107069
134946,107105
134961,107061
134940,107077
134902,107053
134985,107111
134959,107105
134977,107099
134932,107078
134970,107073
135045,107111
135054,107150
135054,107083
135058,107089
135042,107125
135074,107108
135151,107135
135144,107108
135133,107132
135114,107133
135204,107166
135190,107175
135202,107151
135224,107180
135244,107188
135251,107187
135274,107182
135306,107199
135250,107164
135277,107174
135322,107194
135343,107227
135327,107180
135321,107151
135348,107213
135358,107220
135399,107186
135357,107178
135366,107173
135378,107213
135372,107212
135380,107188
135346,107203
135314,107170
135352,107159
135346,107198
135349,107149
135312,107155
135292,107129
135304,107167
135317,107187
135320,107138
135293,107154
135252,107150
135303,107115
135334,107164
135291,107137
135341,107140
135285,107135
135310,107159
135336,107143
135344,107180
135313,107137
135337,107113
135363,107179
135403,107149
135344,107161
135356,107156
135353,107150
135775,107312
136243,107435
136263,107454
135647,107166
135575,107138
135465,107086
135454,107099
135124,106951
135158,106946
135145,106946
135131,106923
135181,106994
135413,107035
135464,107100
135491,107102
135530,107045
135528,107085
135538,107054
135581,107111
135573,107108
135631,107117
135603,107102
135573,107090
135652,107137
135617,107111
135661,107110
135617,107088
135606,107085
135625,107121
135672,107112
135588,107102
135545,107111
135577,107104
135576,107068
135625,107049
135589,107113
135576,107071
135515,107065
135540,107055
135613,107058
135528,107080
135513,107053
135468,107021
135534,107039
135539,107060
135503,107014
135487,107006
135493,106992
135533,107055
135502,107065
135478,107020
135480,107027
135507,107003
135530,107042
135510,107037
135562,107051
135518,107018
135569,107039
135603,107104
135585,107080
135672,107054
135625,107079
135601,107075
135677,107068
135730,107101
135675,107109
135649,107103
135693,107095
135731,107113
135765,107126
135792,107129
135796,107110
135812,107124
135867,107160
135849,107139
135875,107186
135849,107138
135923,107159
135960,107213
135966,107155
135994,107208
135956,107170
136006,107185
136052,107195
136093,107237
136058,107203
136024,107211
136080,107221
136103,107243
136113,107210
136131,107251
136089,107227
136139,107246
136190,107262
136177,107266
136203,107232
136169,107217
136206,107245
136222,107277
136218,107253
136214,107284
136183,107230
136272,107280
136286,107283
136299,107294
136288,107269
136293,107269
136335,107273
136389,107318
136380,107315
136390,107312
136356,107298
136439,107345
136439,107348
136461,107316
136490,107311
136455,107323
136513,107341
136539,107367
136512,107357
136551,107371
136506,107327
136566,107368
136559,107355
136600,107357
136567,107354
136586,107378
136630,107383
136600,107369
136627,107352
136588,107363
136569,107350
136566,107338
136514,107334
136479,107278
136364,107263
136301,107214
136243,107227
136161,107174
136075,107139
135996,107103
135883,107063
135893,107066
135808,107052
135692,106988
135666,106940
135550,106938
135556,106973
135496,106935
135494,106878
135416,106897
135366,106875
135409,106875
135396,106869
135356,106837
135368,106887
135308,106870
135337,106849
135345,106872
135328,106883
135310,106871
135316,106811
135375,106879
135361,106857
135396,106858
135325,106855
135349,106833
135388,106916
135431,106896
135417,106869
135431,106878
135461,106878
135475,106934
135497,106900
135521,106904
135473,106889
135554,106904
135555,106934
135619,106985
135610,106931
135638,106951
135644,106961
135688,106965
135747,106978
135732,106986
135765,106991
135760,106998
135843,107010
135842,107030
135840,107027
135802,107017
135850,106996
135883,107048
135931,107037
135900,107053
135839,106998
135889,107017
135891,107043
135917,107016
135882,107069
135813,107002
135898,107031
135923,107026
135913,107055
135874,106980
135850,107020
135846,106972
135854,106995
135859,106992
135807,106965
135767,106952
135797,106991
135825,106980
135790,106986
135765,106945
135798,106949
135787,106970
135830,106993
135808,106959
135825,106981
135739,106957
135823,106959
135839,106987
135869,106959
135832,106964
135798,106987
135851,106963
135918,106990
135940,106996
135887,106966
135898,106988
135930,107009
135967,107012
135996,106988
136005,107027
136009,107010
136061,107052
136060,107077
136074,107036
136129,107089
136094,107060
136141,107080
136211,107118
136171,107100
136164,107071
136173,107111
136192,107105
136208,107128
136215,107106
136188,107072
136225,107067
136298,107084
136303,107110
136330,107100
136274,107098
136305,107085
136357,107172
136365,107133
136389,107159
136374,107099
136368,107142
136472,107180
136435,107177
136402,107145
136420,107146
136438,107147
136473,107179
136477,107175
136493,107166
136502,107195
136513,107155
136563,107206
136566,107225
136530,107207
136535,107174
136549,107205
136584,107218
136596,107218
136637,107207
136623,107220
136573,107220
136659,107210
136658,107229
136705,107236
136640,107205
136665,107199
136733,107251
136723,107282
136719,107250
136696,107196
136723,107261
136720,107236
136776,107240
136771,107266
136732,107249
136782,107269
136753,107232
136743,107234
136733,107257
136649,107181
136647,107197
136575,107176
136553,107162
136394,107100
136324,107074
136282,107023
136210,107015
136125,106989
136044,106945
135961,106915
135907,106892
135849,106902
135821,106869
135755,106830
135648,106801
135646,106791
135641,106792
135583,106779
135559,106766
135534,106750
135470,106747
135527,106763
135517,106763
135460,106748
135433,106718
135484,106718
135474,106755
135464,106727
135507,106764
135468,106719
135443,106714
135516,106752
135503,106746
135508,106753
135468,106739
135535,106745
135548,106767
135575,106765
135587,106790
135526,106777
135602,106748
135631,106807
135637,106790
135672,106815
135611,106794
135695,106784
135736,106850
135758,106834
135757,106820
135754,106818
135812,106872
135847,106900
135843,106873
135864,106844
135866,106892
135884,106869
135955,106900
135952,106889
135954,106899
135930,106903
135959,106861
135972,106934
135968,106882
135948,106925
135917,106870
135992,106907
135987,106896
135987,106893
135898,106881
135874,106826
135945,106893
135938,106853
135908,106872
135856,106807
135857,106811
135860,106841
135872,106855
135854,106821
135796,106806
135771,106779
135841,106817
135839,106830
135799,106809
135773,106794
135761,106778
135802,106817
135826,106824
135765,106796
135780,106794
135779,106801
135804,106793
135815,106805
135829,106805
135739,106783
135774,106791
135838,106806
135815,106821
135834,106813
135819,106792
135807,106799
135887,106826
135885,106820
135899,106821
135824,106803
135928,106828
135951,106869
135965,106856
135962,106853
135924,106837
135973,106825
136029,106887
136037,106896
136025,106880
136002,106879
136042,106844
136083,106925
136097,106920
136049,106921
136068,106863
136120,106881
136165,106944
136140,106918
136158,106944
136143,106887
136214,106892
136212,106963
136240,106961
136261,106935
136200,106928
136285,106943
136282,106976
136282,106970
136286,106953
136249,106935
136287,106925
136344,106977
136341,106979
136373,106972
136286,106976
136322,106937
136423,107015
136392,106997
136396,106963
136371,106957
136423,106962
136438,107023
136444,107023
136472,107000
136411,106999
136465,106994
136483,106986
136512,107017
136468,106989
136430,106975
136513,106978
136543,107021
136517,107019
136497,106993
136523,107002
136542,107044
136574,107019
136559,107032
136585,107010
136569,107024
136588,107065
136632,107026
136633,107054
136559,107012
136537,106986
136572,107013
136509,106969
136466,106959
136384,106937
136280,106883
136269,106905
136191,106854
136101,106818
135992,106761
135876,106742
135889,106718
135805,106724
135683,106686
135661,106611
135595,106631
135537,106621
135459,106606
135424,106549
135380,106553
135315,106522
135267,106534
135287,106511
135233,106484
135233,106488
135190,106487
135186,106493
135198,106468
135144,106476
135145,106458
135125,106450
135165,106453
135151,106450
135153,106470
135103,106437
135128,106440
135168,106467
135217,106500
135156,106494
135159,106434
135195,106452
135204,106509
135233,106482
135274,106480
135181,106481
135263,106489
135296,106477
135325,106534
135308,106542
135310,106490
135347,106532
135363,106551
135373,106530
135411,106576
135380,106517
135443,106566
135470,106581
135512,106568
135496,106565
135490,106575
135526,106613
135540,106576
135608,106601
135542,106616
135525,106555
135582,106599
135578,106562
135624,106588
135579,106645
135537,106563
135566,106586
135577,106568
135553,106582
135574,106562
135498,106587
135497,106532
135549,106554
135554,106574
135465,106575
135443,106509
135486,106528
135454,106565
135454,106539
135444,106509
135392,106493
135421,106506
135449,106529
135426,106512
135385,106540
135377,106487
135395,106523
135385,106505
135434,106504
135386,106531
135353,106487
135421,106509
135382,106513
135415,106497
135438,106541
135358,106512
135460,106521
135435,106529
135465,106517
135416,106547
135417,106476
135499,106532
135504,106536
135492,106523
135514,106522
135458,106538
135541,106532
135542,106556
135533,106522
135565,106575
135545,106532
135572,106571
135626,106561
135632,106592
135604,106557
135611,106564
135698,106578
135687,106616
135696,106596
135708,106606
135687,106628
135766,106622
135773,106627
135770,106622
135806,106632
135757,106638
135844,106635
135881,106634
135852,106643
135855,106662
135835,106663
135878,106642
135893,106673
135909,106684
135870,106660
135920,106614
135969,106680
135935,106669
135943,106687
135984,106686
135984,106716
136012,106681
136074,106711
136024,106738
136006,106675
136040,106696
136080,106741
136076,106700
136062,106688
136075,106735
136044,106721
136094,106733
136109,106712
136100,106734
136128,106693
136101,106716
136147,106745
136153,106730
136178,106723
136112,106752
136152,106732
136230,106749
136226,106750
136241,106751
136207,106758
136221,106746
136273,106750
136279,106788
136268,106771
136206,106763
136191,106756
136254,106732
136195,106762
136107,106702
136060,106671
135975,106649
135942,106620
135854,106610
135743,106529
135645,106475
135593,106468
135552,106450
135476,106437
135349,106389
135292,106344
135245,106359
135164,106342
135127,106325
135040,106321
134992,106239
134963,106249
134949,106253
134893,106222
134867,106221
134754,106148
134794,106175
134765,106185
134754,106179
134701,106161
134633,106148
134636,106122
134673,106151
134649,106154
134652,106111
134609,106144
134664,106121
134673,106156
134663,106181
134659,106130
134657,106147
134726,106178
134746,106152
134747,106177
134729,106202
134710,106131
134799,106202
134786,106210
134794,106184
134839,106212
134791,106197
134853,106199
134886,106234
134862,106228
134896,106226
134902,106235
134956,106292
134979,106251
134990,106299
135004,106263
135008,106289
135059,106300
135123,106279
135126,106305
135092,106273
135080,106287
135134,106299
135110,106296
135151,106298
135106,106333
135101,106282
135153,106343
135117,106304
135104,106275
135118,106318
135051,106284
135118,106268
135113,106290
135079,106293
135005,106231
135085,106260
135053,106287
135055,106264
135021,106243
134991,106234
134960,106244
134982,106257
135003,106252
134980,106236
134916,106192
134904,106220
134962,106228
134980,106229
134911,106230
134909,106189
134910,106189
134987,106233
134943,106241
134928,106178
134963,106215
134959,106240
134977,106230
135003,106232
135003,106236
134945,106224
135016,106237
135043,106267
135023,106272
135053,106228
135000,106255
135042,106268
135060,106270
135121,106277
135086,106250
135072,106243
135133,106263
135130,106305
135158,106290
135159,106280
135140,106291
135206,106272
135252,106334
135235,106326
135256,106300
135251,106315
135299,106334
135340,106366
135298,106340
135317,106331
135305,106334
135390,106353
135359,106358
135417,106352
135424,106399
135348,106314
135398,106373
135423,106393
135454,106369
135424,106353
135452,106364
135493,106392
135487,106371
135473,106392
135499,106423
135492,106369
135547,106409
135574,106416
135583,106421
135587,106411
135556,106387
135619,106432
135638,106483
135641,106425
135636,106425
135601,106468
135657,106456
135702,106467
135679,106454
135638,106449
135669,106432
135729,106465
135701,106481
135719,106462
135694,106495
135702,106440
135802,106507
135743,106479
135809,106495
135750,106474
135779,106491
135822,106501
135856,106505
135839,106505
135816,106494
135800,106498
135856,106496
135824,106503
135786,106462
135753,106483
135705,106435
135666,106417
135623,106429
135548,106365
135402,106341
135345,106297
135305,106291
135249,106244
135114,106199
135033,106187
134953,106122
134929,106125
134878,106102
134801,106081
134674,106076
134642,106020
134639,106042
134574,106005
134504,105978
134477,105958
134429,105914
134406,105960
134375,105924
134352,105898
134239,105916
134265,105911
134233,105905
134274,105918
134210,105856
134216,105903
134220,105861
134237,105896
134233,105894
134239,105873
134181,105915
134214,105899
134229,105908
134261,105906
134294,105894
134226,105914
134277,105926
134329,105932
134356,105964
134329,105917
134362,105922
134395,105913
134423,105977
134424,105949
134443,105949
134414,105976
134500,106002
134526,106003
134565,105991
134580,106001
134548,106026
134614,106044
134651,106048
134687,106057
134703,106047
134637,106041
134724,106056
134773,106104
134755,106044
134790,106094
134742,106069
134755,106062
134828,106090
134795,106060
134782,106086
134755,106075
134770,106081
134767,106106
134782,106064
134748,106075
134697,106018
134731,106074
134744,106047
134722,106034
134686,106030
134633,106046
134683,106024
134686,106030
134652,106028
134645,106015
134578,106009
134596,105999
134633,105989
134609,106022
134602,105994
134582,106009
134552,106013
134604,105971
134623,106016
134592,106018
134547,105967
134637,106005
134649,106022
134592,106013
134582,105995
134612,105995
134672,106025
134672,106008
134700,106040
134653,106026
134667,106000
134697,106040
134724,106040
134709,106029
134756,106016
134713,106044
134740,106060
134811,106049
134754,106059
134795,106023
134819,106078
134839,106105
134859,106070
134884,106112
134830,106093
134879,106103
134926,106091
134953,106170
134940,106120
134934,106101
134966,106142
135010,106166
135044,106163
135032,106182
135045,106142
135069,106175
135102,106164
135148,106197
135119,106197
135136,106194
135121,106194
135209,106174
135246,106243
135240,106210
135234,106212
135231,106212
135242,106208
135292,106260
135257,106253
135307,106219
135328,106257
135319,106278
135357,106234
135367,106239
135325,106252
135342,106277
135375,106228
135439,106290
135385,106259
135394,106272
135446,106287
135467,106305
135496,106313
135516,106297
135463,106297
135525,106303
135552,106359
135590,106305
135588,106330
135582,106332
135564,106335
135637,106344
135634,106365
135640,106337
135600,106318
135651,106333
135690,106351
135674,106367
135667,106321
135609,106330
135596,106332
135527,106265
135471,106279
135373,106238
135215,106178
135211,106155
135135,106113
135040,106060
134966,106074
134847,106034
134813,105984
134762,105984
134660,105985
134577,105910
134517,105879
134510,105883
134460,105881
134425,105869
134349,105869
134287,105777
134283,105833
134221,105781
134207,105802
134172,105786
134072,105765
134078,105730
134101,105783
134055,105745
134052,105735
134009,105703
134091,105732
134031,105780
134059,105726
134018,105725
134029,105688
134102,105743
134074,105749
134124,105735
134089,105763
134090,105781
134163,105794
134146,105773
134169,105780
134185,105785
134157,105788
134222,105807
134275,105803
134263,105829
134241,105802
134294,105828
134360,105851
134373,105882
134390,105854
134421,105884
134416,105881
134504,105885
134522,105928
134543,105957
134539,105919
134593,105928
134655,105953
134655,105992
134663,105951
134694,105963
134672,105994
134707,105957
134761,105974
134708,105975
134702,105947
134681,105922
134737,105992
134746,105971
134678,105985
134633,105935
134644,105945
134659,105929
134628,105934
134624,105917
134579,105919
134556,105898
134594,105892
134609,105946
134569,105911
134511,105883
134546,105886
134546,105907
134542,105888
134494,105893
134516,105891
134481,105883
134517,105877
134555,105916
134504,105884
134530,105874
134532,105875
134557,105932
134547,105888
134567,105872
134547,105904
134533,105867
134600,105925
134577,105893
134605,105883
134579,105906
134613,105925
134613,105930
134644,105931
134663,105942
134642,105910
134652,105975
134704,105964
134749,105971
134751,105948
134712,105964
134768,105985
134803,105975
134846,106039
134826,106020
134864,105976
134921,106019
134968,106059
134974,106027
134969,106057
135011,106055
135064,106077
135110,106107
135092,106073
135142,106102
135113,106087
135163,106134
135246,106158
135225,106177
135226,106134
135228,106171
135297,106188
135274,106176
135327,106166
135319,106174
135279,106187
135325,106168
135366,106213
135396,106171
135398,106165
135346,106157
135437,106189
135480,106231
135473,106203
135460,106200
135441,106205
135470,106198
135518,106223
135499,106261
135504,106205
135518,106255
135615,106266
135595,106295
135604,106235
135604,106235
135603,106263
135661,106291
135643,106262
135683,106303
135654,106284
135667,106250
135686,106296
135719,106268
135719,106329
135689,106299
135701,106281
135739,106277
135745,106328
135695,106269
135641,106246
135569,106221
135569,106201
135444,106192
135344,106163
135216,106091
135114,106060
135053,106018
135038,105985
134907,105982
134788,105911
134732,105902
134673,105908
134633,105859
134555,105852
134472,105787
134457,105787
134440,105806
134400,105828
134354,105804
134244,105719
134279,105764
134256,105740
134201,105746
134204,105698
134150,105714
134108,105675
134192,105697
134160,105709
134082,105710
134072,105650
134146,105726
134129,105665
134153,105703
134108,105682
134114,105699
134132,105704
134188,105705
134189,105743
134203,105709
134222,105717
134221,105766
134259,105753
134275,105768
134293,105759
134319,105769
134359,105781
134431,105822
134445,105813
134502,105842
134429,105841
134522,105816
134600,105875
134629,105875
134678,105892
134694,105913
134771,105937
134825,105966
134874,105981
134867,105987
134920,106009
134993,106040
134998,106036
135053,106064
135059,106039
135003,106028
135089,106055
135121,106046
135093,106037
135084,106051
135054,106030
135077,106031
135085,106045
135066,106037
134999,106014
134984,106004
135012,106003
134993,106009
134990,106001
134902,105966
134881,105942
134927,105954
134893,105966
134862,105939
134816,105957
134863,105952
134845,105930
134868,105940
134889,105948
134856,105936
134809,105967
134876,105925
134893,105952
134860,105920
134848,105925
134853,105928
134906,105964
134868,105973
134884,105941
134888,105926
134862,105917
134952,105959
134958,105987
134936,105939
134931,105932
134944,105947
134988,105980
135000,106033
134995,105957
135005,105995
135018,105996
135014,106015
135050,105994
135085,106019
135067,106020
135080,106008
135130,106054
135171,106065
135140,106016
135184,106022
135188,106075
135240,106078
135239,106087
135257,106095
135252,106081
135337,106087
135353,106141
135388,106166
135349,106108
135368,106116
135437,106134
135492,106162
135446,106170
135504,106150
135481,106153
135480,106176
135581,106197
135614,106192
135619,106197
135642,106206
135630,106219
135673,106201
135721,106225
135668,106228
135703,106214
135710,106283
135768,106249
135763,106260
135809,106257
135781,106253
135806,106308
135846,106281
135862,106287
135848,106294
135879,106296
135926,106297
135960,106316
135939,106354
135971,106323
135909,106315
136005,106340
136029,106371
136026,106379
136023,106361
135987,106332
136089,106386
136106,106381
136082,106350
136077,106349
136050,106343
136025,106342
135958,106313
135900,106310
135775,106227
135697,106180
135579,106190
135505,106134
135350,106105
135231,106056
135114,105965
135115,105990
134988,105956
134934,105899
134837,105858
134765,105849
134714,105869
134680,105798
134651,105830
134585,105790
134498,105743
134539,105795
134494,105760
134442,105764
134386,105731
134347,105690
134397,105757
134357,105721
134344,105711
134347,105702
134352,105709
134352,105700
134372,105712
134351,105731
134324,105727
134362,105704
134410,105754
134436,105742
134419,105738
134436,105774
134459,105716
134502,105776
134516,105808
134542,105792
134542,105752
134554,105817
134612,105790
134664,105816
134685,105859
134671,105836
134750,105825
134790,105874
134848,105888
134869,105901
134877,105898
134948,105944
134997,105976
135054,105977
135084,106013
135071,105961
135184,105994
135192,105982
135253,106020
135202,106037
135246,106033
135231,106011
135325,106074
135303,106063
135293,106081
135262,106045
135326,106049
135331,106082
135305,106048
135295,106055
135264,106053
135283,106029
135297,106053
135225,106031
135224,106029
135147,105999
135163,105991
135193,106036
135137,106007
135170,105988
135105,105997
135135,105977
135150,105977
135085,105956
135079,105987
135020,105925
135088,105934
135072,105972
135089,105961
135060,105958
135049,105982
135050,105928
135120,105971
135126,105996
135088,105984
135086,105940
135104,106005
135080,105971
135145,105976
135132,105960
135120,105979
135154,106007
135187,106027
135149,106010
135189,106000
135129,105986
135225,106036
135225,106018
135277,106011
135256,106045
135265,106014
135359,106030
135381,106054
135397,106094
135404,106101
135425,106089
135441,106081
135500,106128
135515,106144
135519,106126
135500,106105
135579,106168
135606,106132
135650,106162
135653,106172
135612,106172
135694,106171
135780,106227
135750,106213
135772,106188
135776,106189
135855,106245
135893,106279
135861,106242
135900,106260
135907,106261
135983,106281
136022,106299
135986,106286
136017,106280
136007,106296
136034,106346
136078,106330
136111,106316
136105,106306
136127,106335
136166,106347
136197,106364
136180,106387
136153,106361
136208,106335
136284,106406
136269,106385
136286,106399
136257,106385
136243,106387
136363,106399
136350,106440
136341,106407
136344,106409
136344,106416
136405,106417
136324,106431
136306,106383
136229,106373
136153,106319
136092,106298
135966,106273
135806,106148
135702,106126
135570,106086
135442,106046
135360,106033
135237,105987
135095,105952
135034,105874
135007,105892
134883,105875
134840,105863
134748,105803
134722,105737
134710,105790
134675,105792
134583,105762
134588,105737
134552,105756
134604,105730
134563,105735
134541,105724
134431,105703
134495,105720
134492,105742
134452,105709
134515,105712
134477,105718
134484,105732
134497,105708
134543,105716
134488,105750
134470,105700
134534,105745
134574,105748
134555,105744
134608,105772
134569,105742
134652,105739
134665,105759
134728,105778
134719,105811
134717,105763
134807,105825
134848,105828
134879,105852
134940,105881
134931,105862
134959,105928
135030,105902
135094,105936
135060,105936
135064,105944
135203,105952
135233,106001
135243,106014
135290,105991
135243,106030
135303,106035
135385,106024
135428,106073
135376,106038
135379,106033
135453,106035
135468,106085
135490,106071
135420,106059
135435,106026
135464,106080
135412,106084
135471,106069
135399,106052
135354,106017
135407,106075
135370,106026
135342,106022
135288,106008
135293,105977
135266,105997
135249,105977
135246,105984
135185,105953
135208,105950
135230,105972
135201,105983
135154,105946
135179,105960
135162,105937
135228,105966
135214,105972
135207,105931
135185,105968
135178,105936
135225,105982
135221,106004
135203,105968
135229,105988
135238,105996
135266,105991
135278,105979
135303,105989
135275,105970
135297,105985
135307,106009
135396,106004
135415,106056
135387,106016
135383,106050
135477,106054
135499,106083
135475,106065
135463,106047
135507,106072
135563,106089
135586,106105
135557,106104
135567,106085
135596,106116
135671,106132
135703,106139
135690,106133
135708,106142
135710,106125
135804,106172
135767,106155
135836,106185
135818,106154
135810,106176
135885,106210
135936,106209
135910,106198
135875,106209
135941,106236
135954,106249
135978,106225
136005,106227
135973,106229
136041,106246
136090,106270
136120,106292
136129,106282
136108,106262
136207,106321
136218,106323
136263,106329
136274,106328
136253,106337
136306,106365
136375,106382
136404,106401
136366,106368
136372,106369
136460,106387
136463,106427
136466,106438
136484,106399
136466,106396
136469,106421
136453,106431
136452,106366
136468,106409
136368,106350
136299,106333
136227,106273
136129,106246
135924,106188
135765,106098
135722,106093
135584,106032
135447,106029
135363,105961
135270,105948
135181,105907
135169,105880
135076,105873
134973,105830
134893,105778
134846,105785
134842,105761
134795,105748
134731,105772
134674,105720
134695,105719
134701,105759
134611,105711
134627,105678
134560,105683
134584,105704
134570,105685
134580,105723
134528,105642
134514,105654
134559,105715
134551,105686
134527,105665
134559,105652
134573,105673
134555,105693
134627,105729
134601,105671
134624,105691
134614,105713
134692,105717
134767,105747
134760,105776
134745,105724
134798,105790
134893,105815
134957,105845
134929,105818
134992,105849
135020,105852
135109,105905
135148,105916
135232,105922
135227,105939
135278,105927
135336,105959
135379,106004
135406,106015
135430,105977
135441,106014
135519,106026
135535,106054
135534,106018
135517,106056
135555,106035
135584,106074
135578,106037
135607,106089
135579,106041
135558,106062
135594,106062
135531,106079
135499,106006
135480,106013
135471,105992
135427,106022
135384,106001
135398,105957
135315,105961
135280,105938
135321,105966
135265,105947
135292,105955
135203,105928
135213,105946
135258,105915
135230,105925
135235,105916
135210,105909
135241,105942
135240,105913
135275,105954
135223,105943
135190,105936
135222,105910
135275,105977
135249,105948
135246,105922
135244,105905
135238,105942
135251,105924
135319,105964
135258,105942
135258,105917
135315,105945
135362,105947
135392,105988
135351,105968
135362,105979
135445,106012
135422,106008
135463,106011
135506,106000
135443,106005
135500,105996
135508,106068
135547,106062
135553,106068
135536,106025
135639,106056
135636,106106
135614,106056
135681,106078
135634,106064
135662,106077
135757,106116
135726,106133
135774,106111
135730,106112
135795,106122
135817,106138
135841,106123
135892,106167
135882,106128
135918,106196
135937,106181
135976,106191
135972,106221
135957,106183
136030,106226
136073,106183
136094,106267
136066,106222
136079,106210
136134,106259
136177,106257
136120,106246
136148,106279
136149,106263
136234,106272
136254,106306
136274,106272
136251,106284
136233,106249
136291,106308
136245,106244
136187,106221
136088,106179
136026,106140
135907,106150
135835,106096
135672,106085
135558,105995
135482,105954
135421,105985
135343,105926
135220,105889
135161,105859
135084,105841
135040,105803
134965,105755
134912,105775
134801,105710
134816,105708
134783,105728
134734,105707
134707,105688
134622,105665
134581,105659
134636,105651
134583,105667
134560,105643
134515,105615
134539,105618
134522,105612
134545,105626
134508,105657
134445,105633
134473,105623
134511,105650
134546,105627
134573,105655
134527,105637
134531,105657
134598,105656
134638,105694
134588,105715
134614,105657
134676,105694
134729,105693
134742,105724
134760,105745
134734,105719
134806,105708
134903,105791
134919,105801
134936,105783
134963,105779
135061,105839
135147,105849
135165,105895
135155,105876
135195,105863
135242,105917
135268,105887
135340,105902
135303,105935
135315,105888
135345,105937
135390,105922
135409,105953
135339,105965
135339,105905
135368,105932
135397,105907
135377,105933
135340,105947
135303,105880
135325,105920
135326,105887
135331,105908
135258,105894
135222,105869
135201,105858
135225,105878
135209,105864
135178,105872
135129,105880
135112,105836
135166,105842
135100,105845
135097,105819
135019,105798
135098,105810
135080,105842
135046,105794
135074,105827
135026,105803
135047,105815
135104,105825
135053,105846
135054,105783
135036,105806
135108,105811
135105,105831
135111,105846
135081,105802
135087,105818
135124,105816
135106,105860
135114,105847
135119,105855
135129,105838
135163,105820
135208,105871
135155,105870
135175,105827
135178,105829
135200,105887
135236,105863
135251,105888
135278,105868
135281,105907
135303,105898
135328,105883
135356,105906
135336,105898
135331,105901
135407,105951
135429,105908
135426,105938
135398,105941
135436,105939
135492,105963
135528,105986
135500,106004
135475,105943
135507,105946
135567,105999
135613,106001
135583,106006
135577,105965
135596,105962
135661,106046
135651,106032
135641,106009
135629,106025
135644,106017
135766,106067
135760,106082
135779,106062
135741,106059
135819,106071
135796,106107
135848,106064
135853,106077
135813,106071
135817,106069
135866,106056
135764,106059
135733,106086
135640,105978
135613,105998
135558,105942
135440,105925
135375,105888
135211,105865
135113,105805
135105,105796
135023,105725
134912,105706
134790,105641
134759,105649
134673,105666
134626,105622
134551,105570
134447,105544
134363,105539
134333,105485
134293,105510
134219,105449
134090,105436
134095,105413
134030,105405
134011,105406
133966,105372
133925,105350
133905,105353
133889,105351
133902,105353
133895,105325
133808,105333
133901,105355
133867,105366
133926,105351
133920,105372
133864,105332
133935,105363
133958,105362
133970,105368
133921,105400
133924,105327
134040,105402
134016,105418
134061,105413
134074,105398
134045,105429
134161,105432
134187,105461
134197,105482
134183,105460
134237,105489
134289,105523
134319,105503
134407,105544
134395,105583
134410,105565
134504,105614
134561,105623
134536,105632
134525,105587
134566,105624
134635,105653
134667,105653
134643,105662
134604,105637
134638,105629
134671,105675
134662,105639
134632,105647
134638,105616
134610,105622
134659,105630
134630,105656
134611,105629
134550,105612
134550,105621
134560,105627
134555,105604
134542,105626
134474,105596
134462,105579
134506,105586
134456,105598
134432,105571
134410,105572
134387,105545
134423,105559
134419,105564
134387,105554
134388,105536
134400,105547
134400,105558
134424,105566
134388,105526
134356,105532
134378,105524
134419,105568
134469,105555
134450,105572
134400,105557
134470,105538
134479,105621
134494,105572
134489,105594
134475,105561
134517,105570
134566,105625
134567,105604
134532,105602
134555,105614
134566,105611
134642,105627
134635,105652
134671,105637
134637,105647
134704,105661
134765,105648
134736,105725
134776,105670
134759,105701
134804,105712
134850,105727
134884,105744
134895,105719
134866,105712
134940,105758
134966,105753
134955,105764
134987,105778
134928,105755
134990,105768
135062,105784
135059,105792
135084,105779
135052,105786
135081,105823
135151,105816
135142,105828
135149,105829
135152,105819
135250,105850
135220,105889
135277,105867
135250,105853
135230,105855
135265,105881
135356,105892
135347,105890
135322,105887
135308,105872
135401,105929
135369,105879
135399,105904
135398,105899
135310,105863
135392,105884
135348,105862
135279,105851
135245,105822
135122,105799
135053,105756
134999,105733
134883,105695
134809,105660
134640,105612
134597,105590
134548,105577
134448,105526
134376,105512
134212,105468
134166,105429
134148,105459
134050,105412
133920,105361
133833,105320
133841,105317
133737,105309
133649,105281
133617,105238
133567,105227
133509,105201
133538,105189
133475,105199
133427,105182
133380,105162
133419,105167
133412,105176
133413,105167
133360,105171
133326,105141
133412,105156
133380,105192
133409,105190
133405,105179
133361,105174
133411,105169
133471,105240
133477,105222
133417,105220
133470,105208
133517,105281
133553,105198
133598,105240
133573,105256
133634,105228
133675,105280
133730,105287
133685,105300
133728,105284
133741,105315
133826,105356
133853,105338
133876,105341
133823,105378
133864,105353
133983,105382
133968,105418
134012,105393
134009,105381
134056,105405
134034,105453
134071,105454
134083,105442
134030,105408
134103,105416
134110,105416
134119,105470
134108,105454
134035,105397
134095,105403
134088,105423
134065,105404
134044,105384
133983,105387
133970,105366
134023,105399
133978,105382
133954,105339
133967,105365
133930,105375
133943,105358
133921,105370
133892,105331
133892,105338
133904,105375
133881,105357
133906,105382
133872,105347
133876,105326
133854,105335
133925,105384
133879,105365
133922,105391
133880,105341
133905,105358
133894,105380
133955,105382
133926,105372
133937,105390
133947,105375
133997,105427
133974,105399
134021,105380
133994,105410
134037,105454
134088,105446
134134,105448
134147,105479
134079,105416
134212,105468
134255,105508
134238,105531
134239,105537
134218,105497
134296,105523
134346,105515
134368,105551
134396,105547
134350,105527
134435,105552
134494,105606
134479,105600
134539,105595
134497,105604
134563,105618
134649,105631
134641,105675
134662,105658
134673,105673
134748,105672
134760,105710
134750,105684
134807,105668
134766,105652
134866,105701
134868,105711
134865,105716
134916,105714
134867,105733
134960,105760
134944,105779
134969,105744
135006,105743
134990,105799
135022,105779
135107,105789
135081,105791
135091,105806
135078,105771
135178,105826
135158,105855
135156,105845
135174,105838
135129,105811
135183,105815
135215,105820
135133,105816
135019,105767
134995,105729
134981,105721
134852,105725
134762,105627
134674,105606
134587,105596
134516,105574
134467,105519
134313,105491
134237,105474
134143,105398
134118,105427
134012,105361
133890,105335
133854,105302
133751,105299
133726,105247
133615,105218
133585,105212
133459,105183
133445,105167
133447,105180
133403,105140
133361,105137
133271,105153
133261,105118
133282,105115
133254,105132
133237,105099
133180,105105
133195,105084
133263,105109
133229,105124
133202,105107
133220,105079
133260,105122
133245,105115
133287,105132
133241,105112
133276,105093
133268,105161
133332,105145
133298,105135
133351,105116
133309,105159
133348,105163
133396,105196
133427,105170
133437,105195
133427,105222
133463,105193
133521,105217
133519,105219
133572,105230
133534,105232
133625,105246
133621,105273
133700,105296
133660,105304
133662,105281
133739,105304
133752,105327
133764,105277
133795,105314
133766,105305
133771,105332
133773,105341
133771,105318
133807,105297
133750,105311
133784,105286
133771,105317
133774,105302
133753,105321
133672,105248
133729,105280
133741,105268
133666,105296
133678,105255
133587,105249
133677,105252
133608,105251
133643,105258
133562,105213
133558,105229
133587,105249
133577,105211
133594,105249
133553,105224
133548,105204
133572,105239
133572,105209
133591,105206
133566,105247
133525,105196
133607,105230
133599,105241
133559,105219
133573,105206
133561,105232
133622,105225
133601,105258
133637,105267
133621,105217
133595,105252
133705,105257
133723,105251
133683,105252
133712,105240
133734,105283
133727,105306
133765,105299
133775,105284
133778,105300
133786,105284
133829,105307
133897,105356
133836,105333
133846,105292
133900,105334
133892,105348
133999,105361
133927,105373
133949,105335
133954,105379
134010,105384
134041,105374
134060,105385
134013,105406
134082,105380
134078,105411
134123,105413
134147,105421
134153,105434
134138,105415
134217,105421
134236,105485
134223,105474
134186,105456
134245,105441
134269,105485
134244,105452
134239,105439
134239,105438
134245,105464
134268,105454
134296,105477
134255,105465
134235,105437
134282,105490
134283,105490
134328,105473
134279,105510
134260,105437
134281,105485
134313,105469
134313,105452
134271,105480
134208,105404
134228,105453
134212,105438
134126,105408
134058,105381
133979,105341
133937,105318
133882,105289
133802,105311
133678,105248
133562,105189
133530,105189
133469,105132
133324,105108
133255,105061
133111,105016
133051,105004
132996,105002
132855,104961
132791,104914
132661,104841
132624,104858
132575,104813
132508,104805
132399,104775
132333,104727
132311,104738
132282,104715
132219,104718
132196,104707
132113,104655
132104,104628
132140,104645
132060,104673
132027,104637
132008,104617
132051,104630
132046,104623
132041,104619
132016,104603
131967,104579
132044,104607
132022,104638
132054,104633
132006,104634
132035,104620
132107,104651
132103,104670
132148,104629
132136,104689
132111,104637
132220,104698
132258,104670
132293,104706
132285,104750
132309,104744
132381,104768
132444,104768
132467,104791
132432,104802
132450,104753
132508,104808
132563,104827
132563,104839
132501,104833
132581,104813
132603,104851
132639,104842
132610,104866
132583,104851
132656,104835
132674,104866
132682,104878
132625,104874
132601,104817
132644,104875
132638,104860
132635,104846
132628,104817
132589,104866
132588,104801
132628,104801
132607,104812
132598,104832
132545,104820
132584,104843
132578,104839
132572,104850
132495,104826
132499,104777
132539,104824
132554,104813
132560,104804
132554,104813
132481,104804
132531,104791
132531,104814
132564,104827
132573,104821
132559,104792
132569,104825
132650,104831
132629,104850
132629,104870
132625,104795
132672,104881
132713,104861
132735,104903
132727,104883
132710,104892
132780,104875
132807,104924
132849,104962
132825,104954
132823,104903
132843,104943
132923,104938
132957,104954
132967,104962
132923,104968
133009,104973
133045,105028
133036,105010
133068,105005
133048,105017
133087,105043
133152,105043
133202,105043
133203,105066
133163,105067
133218,105045
133257,105064
133269,105091
133287,105087
133277,105065
133338,105104
133376,105153
133366,105086
133378,105143
133369,105130
133443,105102
133498,105154
133456,105178
133472,105136
133488,105177
133537,105166
133550,105195
133566,105197
133563,105181
133580,105173
133590,105237
133606,105187
133563,105210
133550,105200
133506,105166
133510,105132
133464,105151
133377,105102
133305,105087
133202,105023
133201,105020
133099,105024
133016,104951
132889,104922
132741,104882
132697,104851
132666,104818
132528,104816
132440,104725
132348,104725
132249,104682
132183,104661
132094,104605
132043,104598
131958,104561
131913,104542
131898,104546
131814,104532
131718,104503
131642,104440
131646,104489
131614,104481
131578,104446
131500,104408
131505,104400
131537,104421
131499,104397
131489,104429
131450,104393
131421,104370
131495,104388
131499,104392
131519,104385
131482,104389
131498,104423
131581,104407
131592,104440
131574,104453
131605,104403
131629,104443
131633,104477
131713,104468
131761,104512
131726,104511
131799,104486
131882,104537
131887,104596
131908,104550
131931,104524
131965,104613
132007,104618
132030,104628
132075,104630
132034,104614
132103,104627
132161,104672
132155,104635
132152,104656
132173,104652
132142,104674
132194,104672
132177,104667
132221,104644
132180,104664
132220,104639
132213,104654
132191,104692
132168,104655
132151,104642
132143,104645
132166,104628
132152,104657
132079,104625
132082,104570
132062,104615
132081,104626
132055,104590
132026,104582
132047,104582
132020,104623
132060,104624
132029,104601
132045,104614
131975,104613
132042,104577
132072,104632
132045,104598
132034,104601
132058,104625
132077,104619
132086,104657
132093,104588
132054,104613
132077,104605
132127,104630
132123,104631
132156,104669
132130,104621
132134,104589
132148,104631
132200,104668
132219,104660
132183,104659
132201,104673
132245,104677
132278,104693
132269,104696
132250,104669
132273,104683
132301,104718
132321,104722
132326,104710
132310,104711
132365,104710
132373,104713
132416,104753
132447,104770
132426,104756
132409,104774
132466,104762
132550,104770
132508,104795
132545,104791
132523,104805
132588,104793
132677,104830
132614,104843
132627,104820
132664,104813
132750,104868
132712,104874
132766,104878
132747,104867
132783,104882
132832,104957
132852,104906
132862,104913
132899,104911
132859,104942
132921,104934
132962,104922
132933,104965
132890,104947
132912,104941
132942,104941
132939,104939
132927,104942
132854,104894
132809,104876
132819,104883
132707,104873
132636,104785
132573,104807
132464,104733
132446,104713
132389,104749
132270,104657
132184,104646
132100,104624
132021,104596
131997,104550
131884,104542
131811,104472
131711,104490
131673,104452
131613,104460
131550,104426
131446,104365
131407,104388
131389,104378
131347,104338
131284,104330
131261,104284
131229,104319
131212,104300
131193,104292
131208,104309
131158,104274
131170,104283
131162,104282
131160,104255
131149,104282
131163,104263
131168,104253
131224,104284
131243,104342
131261,104314
131217,104276
131274,104319
131334,104326
131376,104356
131363,104327
131372,104345
131415,104380
131464,104374
131535,104425
131547,104418
131553,104421
131634,104476
131674,104446
131722,104513
131739,104481
131700,104502
131817,104533
131875,104567
131861,104539
131871,104577
131857,104540
131963,104573
131952,104608
131952,104568
131967,104585
131887,104563
132002,104601
131997,104606
132020,104588
132009,104621
131945,104610
132018,104595
132016,104606
131987,104623
131966,104575
131983,104551
132021,104611
132063,104627
132023,104582
132008,104594
131999,104613
132021,104566
132039,104594
132029,104613
132031,104614
131986,104620
132064,104598
132086,104642
132050,104629
132055,104665
132055,104610
132112,104635
132087,104653
132140,104641
132160,104652
132118,104650
132159,104657
132233,104650
132229,104707
132206,104672
132244,104685
132293,104692
132356,104739
132321,104739
132333,104699
132357,104765
132431,104777
132470,104764
132448,104776
132432,104750
132484,104787
132516,104772
132559,104805
132544,104814
132581,104818
132583,104776
132647,104846
132653,104874
132679,104822
132682,104831
132686,104839
132784,104893
132792,104887
132761,104889
132770,104877
132779,104880
132861,104923
132875,104914
132869,104921
132886,104921
132874,104924
132925,104940
132956,104949
132923,104934
132946,104961
132997,104951
132996,104975
133039,104988
133035,104974
133021,104967
133040,104985
133125,105013
133093,104987
133126,104994
133089,105002
133145,105039
133171,105040
133190,105020
133208,105059
133193,105019
133182,105028
133271,105042
133283,105058
133284,105042
133263,105053
133275,105052
133296,105069
133247,105035
133237,105044
133154,104999
133144,104997
133101,104988
133049,104925
132967,104917
132911,104892
132824,104855
132802,104830
132727,104838
132669,104800
132551,104777
132557,104778
132521,104722
132459,104739
132411,104695
132285,104654
132306,104686
132266,104667
132244,104634
132191,104623
132158,104581
132111,104597
132121,104576
132172,104585
132106,104549
132075,104556
132097,104540
132136,104581
132099,104599
132090,104588
132090,104574
132114,104576
132144,104577
132157,104628
132161,104596
132108,104597
132154,104586
132232,104617
132181,104654
132230,104649
132173,104626
132233,104621
132263,104663
132262,104625
132272,104647
132282,104619
132319,104689
132362,104667
132341,104673
132330,104691
132356,104667
132389,104710
132406,104692
132453,104722
132416,104690
132410,104703
132521,104742
132546,104750
132541,104727
132498,104746
132534,104725
132594,104768
132551,104762
132615,104751
132620,104773
132569,104765
132592,104767
132632,104748
132616,104756
132618,104741
132597,104793
132621,104744
132645,104764
132605,104783
132600,104724
132625,104742
132616,104784
132625,104753
132620,104774
132588,104749
132610,104751
132618,104760
132629,104750
132604,104760
132604,104746
132590,104725
132621,104784
132643,104782
132637,104802
132635,104725
132651,104798
132689,104751
132729,104772
132694,104758
132696,104773
132688,104796
132759,104805
132759,104817
132779,104835
132710,104800
132762,104780
132818,104836
132842,104834
132801,104844
132825,104827
132810,104840
132902,104864
132928,104885
132927,104867
132944,104850
132958,104853
133024,104905
133033,104902
133022,104889
132991,104894
133030,104924
133070,104936
133094,104918
133103,104930
133114,104930
133094,104933
133146,104964
133157,104918
133195,104986
133140,104970
133222,104954
133253,104993
133245,105012
133231,104974
133244,104969
133282,104997
133317,105006
133331,105000
133326,105022
133300,104958
133386,105058
133371,105027
133426,105028
133394,105036
133415,105044
133455,105035
133476,105060
133450,105068
133450,105050
133452,105033
133494,105062
133531,105064
133565,105085
133524,105077
133528,105078
133613,105108
133634,105091
133590,105129
133614,105065
133647,105104
133657,105104
133690,105141
133710,105124
133690,105120
133666,105134
133681,105137
133724,105127
133762,105145
133733,105130
133735,105119
133704,105143
133675,105128
133714,105125
133655,105091
133577,105056
133606,105069
133507,105057
133455,105010
133431,104987
133311,104967
133350,104967
133268,104941
133234,104910
133174,104912
133120,104844
133128,104886
133071,104882
133023,104876
132971,104825
132957,104794
132984,104809
132994,104832
132962,104807
132932,104803
132871,104809
132947,104796
132971,104828
132906,104811
132939,104796
132910,104837
132963,104798
133003,104839
132982,104832
132981,104846
132951,104805
133042,104859
133038,104875
133054,104835
133028,104829
133084,104871
133109,104857
133172,104884
133117,104912
133101,104857
133140,104909
133192,104903
133215,104933
133210,104906
133213,104913
133217,104924
133252,104951
133312,104938
133287,104915
133331,104937
133278,104976
133337,104957
133337,104974
133355,104960
133369,104945
133366,104999
133430,104970
133419,105002
133434,104983
133414,104961
133450,105005
133485,105016
133482,104994
133464,105000
133463,104991
133461,105016
133461,104989
133469,104992
133495,105028
133418,104978
133463,104967
133482,104984
133515,105005
133451,105011
133433,104976
133490,104984
133502,105000
133465,105005
133477,104977
133480,105001
133464,105006
133483,105024
133481,104990
133497,105023
133434,104953
133536,105031
133533,104986
133558,105024
133557,105006
133509,105022
133531,104985
133608,105023
133600,105052
133601,105038
133549,105044
133621,105018
133651,105049
133673,105077
133631,105084
133661,105040
133673,105049
133687,105074
133768,105113
133739,105118
133679,105053
133796,105129
133806,105115
133787,105122
133790,105082
133802,105094
133827,105149
133910,105134
133881,105162
133891,105136
133846,105141
133936,105131
133976,105183
133972,105176
133935,105140
133969,105177
134027,105181
134051,105210
134029,105210
134050,105194
134036,105195
134112,105232
134084,105231
134123,105211
134151,105239
134099,105234
134147,105237
134214,105275
134159,105242
134216,105259
134178,105269
134252,105250
134262,105294
134248,105273
134246,105261
134224,105249
134285,105307
134336,105297
134318,105299
134302,105264
134307,105274
134317,105295
134372,105303
134376,105276
134329,105297
134386,105299
134412,105377
134403,105326
134455,105348
134443,105347
134378,105346
134436,105344
134495,105363
134452,105378
134425,105320
134488,105336
134464,105345
134497,105353
134477,105316
134394,105329
134371,105287
134381,105278
134333,105285
134275,105255
134221,105213
134200,105211
134154,105200
134138,105197
134079,105148
134015,105167
133950,105113
133986,105143
133978,105149
133899,105081
133839,105087
133862,105053
133879,105090
133896,105108
133835,105057
133768,105063
133842,105053
133836,105077
133858,105068
133843,105087
133816,105084
133834,105080
133887,105104
133923,105090
133900,105136
133875,105093
133945,105117
133990,105119
133998,105158
134028,105148
133948,105138
134009,105152
134079,105146
134099,105200
134078,105177
134058,105161
134109,105209
134149,105190
134142,105219
134147,105187
134107,105178
134204,105242
134219,105221
134216,105226
134240,105224
134228,105236
134278,105238
134289,105258
134320,105276
134321,105240
134281,105234
134351,105281
134367,105284
134394,105274
134332,105241
134353,105239
134380,105282
134405,105270
134456,105308
134392,105272
134370,105234
134422,105301
134450,105293
134423,105275
134454,105285
134385,105279
134409,105251
134431,105277
134423,105262
134437,105269
134381,105252
134422,105270
134385,105281
134429,105246
134409,105283
134375,105267
134421,105249
134412,105285
134427,105308
134439,105280
134389,105266
134435,105281
134442,105278
134457,105274
134429,105272
134429,105260
134494,105281
134522,105329
134483,105285
134520,105337
134499,105314
134572,105305
134567,105342
134557,105338
134540,105317
134556,105314
134604,105380
134600,105362
134616,105345
134618,105299
134629,105368
134678,105356
134713,105395
134662,105349
134700,105383
134691,105357
134772,105410
134753,105436
134736,105383
134746,105417
134786,105395
134786,105417
134806,105400
134851,105432
134817,105409
134795,105411
134866,105444
134877,105465
134879,105462
134854,105433
134867,105447
134916,105457
134966,105464
134900,105460
134912,105470
134931,105462
134996,105500
135002,105477
134997,105486
134999,105469
135023,105490
135050,105500
135067,105488
135031,105517
135033,105464
135020,105489
135081,105521
135115,105500
135102,105508
135045,105508
135095,105528
135125,105554
135171,105533
135126,105508
135108,105516
135154,105527
135170,105534
135201,105553
135203,105564
135202,105529
135184,105529
135235,105563
135214,105557
135214,105556
135237,105546
135241,105543
135259,105551
135287,105587
135282,105568
135214,105551
135287,105586
135331,105562
135300,105617
135313,105596
135292,105571
135320,105600
135349,105571
135313,105577
135280,105571
135244,105528
135245,105537
135208,105538
135162,105505
135109,105478
135007,105445
135023,105452
135015,105446
134928,105412
134879,105386
134810,105372
134835,105354
134785,105384
134756,105363
134702,105327
134646,105313
134702,105325
134694,105321
134639,105309
134636,105300
134606,105292
134675,105293
134633,105298
134641,105291
134635,105282
134605,105282
134671,105297
134680,105311
134667,105322
134678,105320
134673,105323
134695,105348
134764,105359
134790,105341
134753,105353
134758,105352
134795,105390
134834,105381
134823,105372
134828,105386
134818,105358
134893,105410
134896,105418
134886,105428
134905,105401
134855,105377
134925,105405
134959,105411
134935,105407
134925,105407
134932,105417
134969,105419
134994,105415
135021,105429
134992,105415
135010,105429
135034,105438
135056,105448
135060,105442
135037,105436
135046,105442
135071,105437
135088,105468
135114,105476
135099,105472
135072,105451
135143,105464
135103,105479
135110,105471
135080,105457
135118,105479
135150,105490
135155,105478
135141,105463
135081,105465
135096,105452
135125,105463
135163,105471
135127,105483
135086,105446
135112,105458
135116,105463
135122,105440
135141,105456
135100,105411
135099,105467
135161,105464
135181,105475
135119,105474
135139,105457
135145,105474
135190,105500
135224,105481
135177,105511
135173,105477
135181,105488
135244,105487
135242,105504
135202,105524
135183,105476
135273,105495
135303,105503
135273,105547
135278,105489
135290,105491
135284,105545
135338,105509
135387,105559
135357,105522
135334,105535
135366,105537
135428,105553
135444,105584
135390,105551
135348,105525
135418,105562
135468,105563
135496,105607
135439,105565
135420,105563
135498,105582
135511,105625
135494,105598
135561,105610
135511,105615
135559,105624
135579,105650
135583,105639
135632,105634
135595,105620
135626,105671
135667,105634
135628,105637
135655,105635
135605,105622
135664,105681
135673,105645
135729,105640
135723,105688
135660,105650
135723,105659
135767,105649
135764,105685
135753,105661
135712,105651
135762,105677
135791,105661
135801,105678
135759,105666
135777,105669
135842,105710
135833,105678
135833,105700
135831,105691
135809,105704
135860,105704
135869,105731
135860,105704
135880,105717
135854,105723
135905,105747
135936,105713
135967,105756
135907,105691
135914,105726
135990,105759
135984,105784
135984,105727
135946,105755
135977,105748
136023,105777
136021,105776
136023,105735
136018,105763
135972,105782
135987,105760
136002,105749
135993,105710
135884,105715
135892,105713
135876,105683
135834,105672
135725,105660
135708,105608
135620,105586
135608,105590
135626,105584
135506,105574
135466,105526
135427,105522
135403,105504
135405,105501
135412,105494
135311,105477
135346,105464
135336,105461
135352,105490
135282,105509
135293,105448
135262,105470
135321,105475
135346,105501
135313,105432
135277,105470
135302,105492
135330,105463
135345,105494
135364,105531
135350,105480
135371,105460
135409,105534
135391,105538
135411,105481
135372,105500
135438,105516
135467,105529
135480,105518
135473,105562
135457,105530
135485,105537
135529,105575
135525,105531
135559,105590
135525,105526
135553,105568
135586,105585
135601,105613
135587,105584
135578,105583
135600,105576
135635,105601
135637,105617
135635,105590
135657,105588
135657,105636
135709,105603
135724,105606
135687,105641
135675,105608
135706,105630
135742,105612
135762,105646
135720,105631
135682,105597
135733,105624
135721,105637
135736,105604
135733,105641
135689,105608
135698,105615
135763,105646
135709,105628
135665,105584
135653,105590
135717,105619
135726,105584
135733,105601
135687,105579
135676,105566
135688,105616
135715,105583
135694,105624
135687,105593
135677,105585
135726,105628
135752,105583
135714,105608
135710,105579
135664,105578
135757,105597
135733,105613
135772,105608
135769,105593
135739,105580
135780,105614
135786,105602
135811,105605
135798,105633
135792,105639
135799,105635
135849,105674
135843,105644
135833,105647
135813,105634
135879,105632
135871,105670
135901,105695
135871,105631
135887,105635
135935,105696
135998,105688
135958,105701
135960,105677
135967,105674
135975,105710
135975,105695
135981,105685
135998,105717
136008,105687
136046,105709
136045,105736
136030,105742
136022,105721
136005,105685
136109,105769
136089,105750
136056,105729
136099,105739
136097,105777
136100,105754
136133,105742
136148,105743
136094,105748
136100,105752
136174,105768
136198,105751
136146,105768
136175,105748
136198,105774
136198,105766
136232,105772
136216,105786
136195,105742
136197,105770
136267,105779
136256,105799
136243,105804
136251,105782
136238,105816
136303,105809
136332,105802
136277,105849
136291,105797
136258,105809
136328,105845
136318,105801
136364,105848
136317,105779
136365,105837
136369,105832
136382,105858
136374,105828
136334,105805
136347,105849
136395,105843
136435,105845
136395,105832
136390,105829
136410,105838
136494,105854
136426,105867
136436,105853
136409,105867
136397,105863
136415,105810
136370,105804
136308,105767
136275,105771
136241,105789
136176,105747
136177,105722
136088,105725
136007,105649
136047,105688
136003,105693
135955,105648
135911,105637
135850,105618
135834,105648
135841,105615
135816,105591
135792,105576
135734,105592
135793,105607
135745,105576
135765,105584
135754,105578
135717,105584
135703,105588
135745,105585
135763,105598
135744,105603
135701,105576
135698,105589
135785,105608
135769,105572
135774,105609
135728,105582
135796,105630
135799,105583
135848,105588
135797,105594
135792,105585
135864,105650
135896,105650
135895,105666
135914,105633
135877,105643
135889,105631
135974,105678
135917,105650
135939,105647
135932,105642
135965,105681
135980,105667
136029,105680
136006,105677
135969,105662
136057,105714
136085,105717
136039,105704
136071,105703
136034,105664
136114,105729
136154,105727
136104,105704
136087,105705
136082,105677
136132,105745
136148,105731
136087,105709
136105,105709
136093,105681
136122,105711
136111,105713
136116,105699
136042,105675
136044,105658
136093,105696
136064,105662
136063,105681
136021,105674
136020,105661
136088,105697
136075,105668
136066,105683
135984,105649
135998,105647
136085,105683
136059,105690
136057,105680
136011,105631
136037,105659
136051,105705
136054,105703
136089,105661
136013,105676
136015,105675
136091,105684
136112,105688
136048,105671
136081,105669
136091,105690
136135,105689
136148,105685
136168,105708
136078,105708
136103,105673
136200,105731
136214,105715
136208,105743
136160,105743
136159,105707
136238,105729
136236,105750
136249,105748
136173,105699
136253,105708
136251,105775
136278,105775
136246,105758
136272,105729
136250,105758
136313,105746
136329,105762
136304,105761
136242,105725
136358,105767
136373,105759
136386,105770
136373,105789
136349,105732
136435,105793
136458,105804
136447,105789
136394,105814
136369,105759
136473,105778
136428,105831
136468,105781
136467,105816
136417,105811
136452,105792
136522,105850
136514,105841
136507,105793
136504,105810
136493,105851
136561,105836
136553,105858
136506,105830
136517,105826
136547,105868
136605,105833
136585,105833
136589,105874
136548,105822
136628,105867
136603,105878
136645,105866
136645,105837
136583,105862
136598,105867
136624,105855
136620,105812
136585,105845
136474,105811
136518,105802
136517,105811
136430,105786
136388,105777
136261,105708
136333,105695
136265,105717
136263,105708
136193,105661
136069,105645
136128,105675
136060,105626
136057,105619
135993,105601
135970,105583
135964,105631
135996,105599
135939,105582
135916,105595
135867,105559
135897,105602
135908,105573
135866,105578
135877,105581
135868,105577
135918,105568
135902,105574
135905,105597
135871,105566
135872,105550
135924,105627
135965,105577
135915,105615
135944,105588
135918,105612
135961,105600
136011,105600
135978,105638
136019,105620
135966,105617
136011,105657
135999,105624
136009,105597
136025,105623
136025,105610
136057,105611
136119,105636
136082,105669
136065,105615
136113,105644
136146,105676
136153,105680
136157,105649
136134,105671
136144,105676
136229,105692
136228,105726
136263,105698
136214,105685
136210,105727
136224,105666
136268,105696
136262,105668
136247,105688
136210,105709
136250,105657
136258,105692
136242,105699
136191,105659
136234,105664
136248,105728
136213,105702
136205,105650
136199,105650
136204,105708
136206,105656
136234,105678
136172,105672
136143,105646
136161,105647
136175,105696
136170,105673
136172,105627
136149,105638
136158,105664
136175,105667
136172,105690
136159,105640
136120,105663
136153,105649
136160,105675
136215,105669
136172,105695
136164,105668
136178,105696
136224,105673
136275,105677
136237,105685
136198,105649
136255,105702
136268,105678
136283,105706
136260,105714
136222,105679
136312,105693
136281,105686
136329,105728
136329,105703
136295,105707
136338,105736
136357,105714
136393,105758
136385,105744
136322,105722
136411,105725
136414,105748
136450,105761
136467,105739
136435,105749
136457,105797
136502,105759
136487,105778
136480,105787
136462,105761
136558,105807
136538,105782
136565,105795
136552,105781
136535,105786
136542,105818
136602,105800
136561,105808
136595,105806
136575,105785
136625,105814
136637,105842
136650,105800
136691,105853
136636,105793
136705,105851
136685,105845
136694,105827
136712,105832
136703,105831
136700,105873
136745,105860
136779,105870
136713,105816
136707,105854
136783,105894
136780,105876
136832,105897
136754,105849
136755,105847
136864,105893
136818,105893
136865,105878
136853,105888
136823,105884
136850,105918
136874,105864
136850,105875
136782,105841
136738,105851
136747,105842
136712,105858
136606,105807
136561,105756
136505,105707
136488,105760
136398,105719
136316,105667
136280,105666
136204,105649
136197,105618
136142,105627
136061,105566
135996,105564
135944,105546
135941,105544
135891,105535
135821,105518
135777,105468
135769,105486
135782,105457
135785,105455
135725,105480
135697,105436
135652,105440
135691,105451
135685,105417
135686,105439
135622,105430
135611,105420
135656,105442
135664,105423
135710,105474
135628,105415
135658,105421
135709,105479
135736,105487
135656,105458
135699,105438
135735,105487
135730,105444
135743,105465
135713,105484
135691,105425
135708,105501
135753,105464
135760,105480
135794,105471
135732,105462
135765,105482
135813,105488
135824,105491
135829,105527
135829,105486
135845,105508
135853,105518
135872,105517
135879,105510
135859,105517
135862,105516
135932,105521
135970,105567
135882,105534
135886,105503
135953,105521
135916,105531
135923,105567
135934,105505
135867,105522
135932,105510
135954,105543
135926,105550
135954,105525
135873,105534
135894,105542
135918,105516
135891,105508
135899,105500
135822,105474
135867,105477
135854,105541
135818,105502
135817,105470
135790,105478
135848,105480
135859,105538
135817,105526
135806,105472
135817,105486
135807,105488
135865,105503
135863,105531
135791,105458
135788,105497
135833,105480
135843,105502
135857,105504
135842,105512
135818,105489
135870,105501
135891,105524
135854,105523
135885,105523
135840,105498
135870,105525
135935,105526
135896,105527
135874,105506
135859,105510
135911,105536
135933,105541
135957,105537
135948,105548
135922,105547
135988,105555
136007,105568
135989,105575
135981,105555
135980,105564
136021,105554
136052,105562
136064,105554
136071,105595
136071,105572
136073,105613
136105,105583
136141,105584
136056,105616
136093,105613
136147,105617
136172,105613
136176,105597
136175,105637
136184,105624
136199,105667
136248,105644
136195,105633
136257,105625
136255,105644
136278,105678
136296,105660
136298,105673
136289,105640
136303,105645
136334,105695
136349,105704
136325,105661
136338,105678
136358,105671
136387,105693
136423,105681
136381,105724
136367,105653
136394,105679
136450,105689
136452,105726
136433,105761
136414,105686
136460,105725
136481,105744
136467,105721
136506,105714
136453,105745
136412,105728
136501,105703
136467,105730
136429,105697
136356,105651
136358,105666
136303,105674
136248,105638
136183,105606
136102,105597
136050,105547
136001,105548
135948,105510
135899,105488
135799,105464
135760,105441
135719,105475
135669,105427
135629,105375
135496,105375
135511,105365
135516,105352
135453,105377
135361,105310
135344,105330
135338,105307
135329,105309
135297,105296
135287,105266
135172,105264
135239,105279
135248,105258
135250,105264
135186,105288
135165,105224
135186,105271
135248,105277
135214,105289
135216,105266
135148,105202
135211,105281
135264,105263
135245,105275
135201,105276
135167,105266
135231,105260
135257,105296
135260,105278
135294,105292
135225,105281
135314,105340
135288,105340
135345,105322
135323,105341
135321,105309
135330,105329
135390,105349
135405,105365
135443,105362
135384,105381
135426,105356
135518,105371
135503,105361
135475,105383
135432,105343
135526,105385
135515,105421
135504,105382
135478,105345
135466,105389
135560,105398
135524,105390
135514,105372
135517,105375
135505,105366
135524,105400
135501,105384
135506,105362
135506,105395
135438,105355
135478,105358
135517,105403
135476,105391
135424,105372
135413,105344
135468,105397
135459,105384
135399,105352
135395,105390
135354,105342
135445,105334
135428,105379
135377,105370
135362,105356
135343,105321
135445,105360
135425,105375
135396,105354
135394,105364
135387,105346
135420,105353
135453,105365
135474,105393
135426,105340
135423,105384
135488,105382
135489,105381
135512,105406
135487,105375
135485,105411
135517,105395
135582,105404
135579,105429
135498,105373
135542,105389
135622,105445
135625,105454
135639,105469
135576,105433
135576,105412
135695,105468
135703,105470
135710,105470
135677,105464
135681,105480
135751,105500
135763,105518
135769,105487
135740,105506
135774,105503
135822,105494
135832,105536
135824,105471
135833,105514
135835,105552
135856,105518
135871,105543
135933,105551
135852,105529
135898,105519
135939,105591
135969,105593
135917,105575
135952,105528
136018,105592
135993,105595
136008,105590
136025,105557
136042,105597
136026,105616
136079,105571
136084,105638
136054,105598
136039,105607
136092,105648
136126,105619
136141,105657
136131,105620
136083,105587
136139,105648
136174,105639
136112,105644
136043,105617
136029,105574
136008,105586
135974,105578
135896,105549
135858,105516
135765,105499
135766,105471
135691,105476
135660,105460
135554,105401
135498,105368
135472,105389
135421,105355
135367,105331
135281,105338
135190,105267
135185,105298
135203,105264
135114,105234
135110,105225
135007,105225
135004,105198
135055,105223
134983,105240
134955,105201
134925,105166
134941,105200
134960,105187
134983,105213
134894,105183
134872,105181
134923,105188
134959,105218
134921,105215
134943,105158
134949,105192
134965,105208
135017,105209
134974,105195
135016,105215
134967,105231
135017,105212
135048,105230
135070,105237
135051,105252
135012,105261
135083,105240
135162,105314
135146,105304
135150,105256
135156,105267
135262,105312
135247,105329
135277,105306
135280,105330
135293,105320
135359,105370
135349,105339
135361,105335
135343,105372
135351,105330
135428,105363
135417,105392
135374,105361
135392,105357
135355,105353
135428,105343
135386,105380
135391,105366
135382,105339
135381,105349
135423,105379
135408,105346
135389,105348
135359,105338
135340,105367
135356,105368
135365,105363
135325,105316
135335,105305
135295,105340
135291,105304
135339,105350
135297,105325
135278,105337
135252,105336
135280,105344
135305,105326
135298,105342
135266,105291
135296,105303
135268,105329
135339,105339
135324,105328
135264,105349
135278,105316
135343,105330
135345,105355
135345,105359
135288,105336
135304,105324
135377,105349
135355,105352
135372,105339
135340,105373
135343,105357
135423,105375
135433,105389
135401,105368
135395,105359
135431,105369
135453,105428
135486,105393
135475,105390
135452,105404
135508,105403
135572,105440
135545,105438
135520,105400
135506,105432
135537,105419
135611,105446
135644,105438
135585,105473
135580,105412
135629,105470
135666,105499
135699,105483
135680,105473
135686,105477
135686,105525
135731,105466
135767,105503
135702,105501
135723,105469
135799,105521
135755,105521
135807,105519
135792,105523
135809,105530
135787,105526
135874,105563
135905,105534
135860,105516
135852,105520
135883,105531
135944,105586
135932,105571
135934,105549
135928,105562
135942,105569
135983,105596
135912,105580
135863,105515
135828,105525
135821,105518
135755,105500
135705,105494
135588,105427
135514,105400
135510,105416
135459,105373
135365,105348
135285,105338
135164,105273
135163,105253
135152,105290
135045,105257
134965,105208
134921,105196
134902,105166
134878,105155
134843,105175
134787,105147
134738,105105
134746,105114
134673,105125
134687,105118
134630,105093
134606,105075
134645,105107
134672,105109
134606,105090
134608,105099
134620,105067
134639,105097
134646,105100
134660,105131
134630,105111
134583,105083
134693,105140
134680,105114
134714,105131
134690,105106
134665,105112
134729,105154
134744,105135
134774,105139
134750,105130
134742,105133
134813,105140
134847,105181
134822,105200
134856,105162
134871,105191
134892,105225
134951,105201
134965,105235
134923,105179
134979,105224
134948,105258
135016,105233
135057,105252
134967,105254
134998,105264
135041,105282
135055,105299
135082,105251
135011,105248
135022,105255
135042,105254
135054,105268
135039,105244
135013,105252
135060,105235
135032,105277
135062,105258
135007,105236
134962,105232
134962,105204
135036,105262
135031,105225
134989,105224
134946,105215
134942,105211
135003,105222
134954,105214
134924,105229
134920,105194
134914,105221
134966,105200
134909,105201
134964,105221
134904,105214
134921,105218
134988,105228
134996,105263
134948,105242
134961,105203
134975,105235
134997,105238
135059,105254
135010,105278
134969,105210
135042,105244
135064,105270
135104,105263
135081,105301
135057,105235
135099,105303
135125,105311
135111,105290
135125,105279
135078,105289
135136,105304
135165,105302
135184,105355
135188,105310
135151,105324
135203,105343
135248,105355
135250,105348
135251,105311
135258,105377
135322,105376
135352,105400
135378,105393
135333,105378
135344,105348
135413,105416
135427,105399
135473,105411
135451,105444
135412,105408
135496,105421
135533,105470
135565,105429
135543,105455
135515,105424
135605,105507
