11111,11111
0,0
81098,80937
102135,101160
102163,101166
102169,101146
102160,101166
102204,101177
102207,101187
102231,101230
102233,101215
102287,101229
102277,101227
102344,101231
102353,101285
102384,101241
102378,101266
102434,101263
102446,101288
102453,101288
102473,101294
102508,101301
102495,101330
102435,101300
102480,101272
102436,101285
102371,101228
102346,101232
102290,101198
102210,101197
102145,101129
102142,101120
102018,101093
101907,101020
101879,101016
101774,100964
101712,100906
101630,100889
101560,100869
101521,100805
101456,100829
101381,100751
101319,100759
101243,100704
101214,100706
101206,100674
101144,100641
101148,100657
101076,100649
101069,100622
101063,100623
101006,100617
101001,100595
101030,100578
101025,100598
101012,100628
101011,100602
101030,100616
101033,100619
101072,100593
101064,100635
101031,100586
101054,100610
101112,100637
101077,100621
101113,100637
101094,100654
101093,100629
101139,100650
101196,100673
101141,100645
101192,100670
101147,100654
101167,100654
101197,100688
101185,100677
101210,100682
101218,100667
101223,100692
101203,100686
101220,100646
101264,100691
101234,100705
101224,100659
101259,100697
101250,100703
101262,100671
101280,100698
101296,100681
101328,100726
101297,100702
101346,100705
101344,100717
101353,100731
101394,100739
101374,100735
101385,100729
101402,100756
101427,100759
101383,100720
101428,100741
101410,100723
101455,100765
101392,100737
101395,100739
101418,100729
101417,100751
101395,100717
101404,100709
101401,100735
101389,100747
101386,100690
101369,100736
101376,100679
101334,100721
101308,100668
101352,100681
101322,100684
101305,100683
101342,100661
101317,100687
101292,100659
101332,100673
101291,100665
101324,100707
101298,100674
101525,100779
101796,100878
101744,100878
101953,100947
101973,100961
101939,100974
101332,100639
101184,100574
101116,100544
101047,100491
100229,100168
100230,100120
100238,100108
100220,100075
100202,100090
100181,100130
100208,100086
100166,100104
100176,100072
100189,100088
100151,100104
100151,100092
100145,100058
100162,100093
100182,100070
100135,100083
100183,100065
100143,100093
100139,100033
100136,100035
100121,100038
100130,100031
100158,100059
100126,100042
100147,100048
100140,100031
100106,100052
100128,100021
100147,100069
100146,100056
100129,100032
100143,100033
100124,100068
100145,100026
100170,100049
100136,100056
100173,100051
100167,100042
100185,100068
100170,100062
100170,100092
100195,100047
100197,100073
100234,100076
100217,100066
100239,100135
100258,100086
100239,100116
100282,100097
100287,100128
100265,100136
100283,100140
100288,100114
100307,100167
100281,100085
100332,100142
100294,100120
100334,100137
100328,100111
100336,100113
100291,100109
100308,100134
100324,100112
100283,100119
100284,100112
100284,100128
100331,100108
100284,100116
100293,100125
100286,100095
100306,100079
100289,100117
100241,100100
100260,100100
100279,100107
100285,100114
100283,100131
100243,100079
100283,100109
100263,100108
100248,100114
100236,100088
100324,100113
100262,100078
100303,100121
100301,100107
100301,100133
100319,100124
100295,100102
100347,100142
100363,100138
100361,100130
100335,100120
100411,100173
100357,100155
100382,100149
100438,100175
100413,100172
100401,100142
100433,100162
100460,100156
100490,100200
100463,100217
100475,100188
100512,100197
100515,100224
100520,100241
100509,100186
100582,100234
100554,100254
100539,100223
100792,100311
100807,100333
100780,100330
100832,100333
100840,100352
100823,100327
100869,100365
100856,100365
100861,100347
100878,100332
100905,100365
100846,100349
100863,100333
100902,100363
100901,100373
100882,100380
100918,100344
100943,100366
100902,100353
100946,100372
100964,100398
100971,100396
100990,100421
100962,100367
101018,100395
101005,100398
101000,100391
101014,100419
101041,100414
101039,100426
101058,100386
101040,100420
101076,100422
101062,100455
101075,100467
101100,100414
101125,100467
101116,100426
101173,100450
101146,100474
101165,100492
101149,100457
101180,100461
101198,100475
101188,100490
101224,100482
101205,100531
101196,100469
101264,100516
101231,100509
101235,100517
101247,100501
101252,100477
101212,100488
101247,100482
101202,100483
101180,100448
101140,100451
101115,100410
101043,100395
100943,100367
100914,100327
100802,100273
100721,100243
100653,100226
100533,100119
100449,100139
100359,100075
100246,100033
100176,99999
100038,99891
99996,99899
99870,99847
99819,99831
99716,99754
99640,99730
99592,99686
99551,99692
99497,99628
99456,99636
99396,99609
99375,99582
99305,99545
99338,99570
99254,99555
99253,99555
99248,99541
99232,99512
99221,99530
99185,99496
99221,99504
99191,99504
99200,99504
99173,99519
99167,99468
99214,99520
99150,99492
99172,99476
99171,99498
99166,99466
99165,99502
99129,99486
99197,99490
99184,99488
99155,99471
99172,99460
99130,99479
99154,99478
99143,99483
99161,99488
99135,99433
99142,99458
99160,99476
99157,99495
99123,99464
99145,99457
99144,99459
99140,99497
99166,99468
99184,99495
99158,99482
99189,99500
99197,99489
99206,99530
99211,99531
99261,99503
99217,99545
99238,99553
99291,99564
99262,99544
99334,99553
99345,99557
99320,99583
99311,99576
99382,99602
99360,99625
99376,99562
99394,99628
99391,99583
99389,99616
99361,99599
99374,99611
99400,99576
99350,99595
99357,99573
99324,99601
99339,99599
99335,99593
99323,99558
99360,99552
99305,99584
99325,99575
99282,99548
99334,99553
99289,99575
99299,99540
99309,99539
99263,99562
99302,99536
99307,99595
99306,99526
99336,99562
99348,99598
99358,99591
99373,99600
99358,99603
99391,99598
99458,99634
99425,99602
99486,99645
99467,99652
99494,99634
99515,99672
99511,99634
99576,99688
99554,99651
99597,99710
99601,99710
99615,99716
99622,99697
99626,99742
99699,99730
99680,99742
99710,99734
99700,99761
99761,99751
99725,99788
99772,99772
99772,99756
99784,99796
99780,99765
99831,99780
99832,99816
99828,99803
99854,99820
99897,99828
99843,99847
99887,99811
99897,99847
99929,99847
99912,99867
99942,99835
100010,99886
99982,99858
99998,99897
100026,99884
100014,99905
100066,99915
100059,99942
100053,99912
100073,99915
100093,99927
100140,99946
100132,99971
100130,99928
100208,99978
100168,99966
100205,99967
100237,99993
100210,100015
100246,99968
100281,100018
100256,100001
100264,100016
100273,99999
100329,100005
100313,100043
100305,100004
100365,100052
100346,100031
100362,100047
100406,100077
100390,100081
100385,100051
100426,100105
100409,100066
100470,100081
100467,100075
100509,100111
100488,100140
100528,100132
100506,100123
100555,100159
100586,100161
100593,100145
100591,100161
100597,100143
100613,100174
100654,100183
100653,100185
100673,100199
100676,100175
100697,100223
100709,100185
100708,100195
100712,100189
100743,100216
100743,100241
100778,100230
100751,100225
100786,100247
100800,100260
100789,100238
100819,100256
100821,100245
100855,100275
100840,100255
100852,100279
100846,100262
100881,100267
100874,100288
100864,100274
100867,100259
100899,100270
100924,100323
100935,100276
100948,100305
100911,100295
100960,100277
100962,100327
100977,100315
100965,100324
100984,100340
101016,100361
101007,100299
100992,100348
101012,100333
100987,100300
100941,100304
100900,100289
100853,100233
100775,100225
100733,100195
100602,100158
100529,100091
100447,100050
100363,100006
100242,99945
100197,99916
100070,99894
99958,99829
99904,99792
99854,99775
99700,99703
99611,99640
99557,99614
99511,99591
99451,99559
99387,99548
99275,99517
99257,99495
99205,99461
99202,99439
99179,99461
99103,99387
99125,99423
99070,99407
99072,99365
99069,99373
99033,99382
99028,99339
98990,99363
98977,99344
98963,99340
98938,99294
98883,99286
98878,99286
98888,99235
98836,99260
98779,99211
98784,99196
98718,99183
98687,99143
98674,99147
98610,99112
98607,99072
98540,99038
98470,99028
98428,98962
98393,98922
98381,98920
98303,98931
98286,98894
98220,98846
98221,98816
98223,98832
98177,98827
98172,98778
98136,98778
98163,98782
98125,98754
98194,98802
98124,98770
98153,98793
98182,98770
98181,98813
98192,98817
98237,98821
98265,98846
98258,98876
98288,98862
98308,98882
98330,98873
98374,98911
98358,98880
98391,98920
98359,98918
98392,98933
98392,98898
98416,98917
98387,98918
98399,98901
98404,98921
98384,98909
98373,98925
98325,98891
98322,98854
98317,98894
98300,98856
98265,98831
98229,98819
98211,98791
98198,98787
98152,98813
98126,98774
98124,98747
98098,98736
98062,98745
98072,98701
98071,98745
98057,98732
98061,98706
98030,98718
98021,98713
98037,98700
98028,98718
98022,98695
98044,98697
98091,98715
98063,98741
98082,98704
98146,98758
98094,98761
98148,98760
98164,98758
98175,98753
98199,98774
98219,98822
98257,98830
98201,98831
98273,98832
98301,98870
98275,98826
98327,98853
98330,98857
98368,98852
98385,98863
98388,98900
98357,98885
98394,98889
98403,98900
98396,98905
98434,98884
98470,98923
98425,98894
98468,98904
98476,98934
98479,98927
98473,98914
98509,98939
98487,98916
98549,98931
98497,98965
98500,98957
98575,98968
98565,98990
98566,98954
98578,99006
98594,98947
98642,99025
98638,99024
98630,99013
98674,99009
98691,99050
98683,99069
98684,99064
98703,99035
98748,99079
98731,99084
98800,99080
98774,99102
98794,99067
98825,99095
98827,99142
98837,99098
98874,99136
98887,99141
98883,99154
98911,99149
98902,99151
98913,99150
98980,99181
98959,99156
98938,99176
98974,99219
98944,99186
99013,99160
99000,99207
99023,99191
99010,99215
99010,99185
99086,99247
99032,99206
99040,99206
99059,99246
99061,99221
99064,99209
99064,99223
99122,99256
99087,99231
99151,99226
99110,99244
99169,99283
99144,99234
99177,99258
99170,99271
99194,99302
99208,99260
99234,99272
99195,99291
99228,99280
99239,99297
99234,99287
99239,99292
99234,99253
99211,99302
99194,99235
99155,99283
99088,99209
99049,99200
99000,99130
98897,99141
98833,99045
98702,99028
98631,98986
98502,98908
98456,98851
98290,98794
98184,98753
98095,98660
97980,98652
97858,98543
97740,98528
97656,98487
97546,98377
97442,98360
97364,98277
97294,98262
97193,98231
97135,98179
97088,98180
97016,98107
96952,98079
96908,98067
96876,98051
96788,98023
96808,98034
96765,98001
96742,98003
96721,97989
96666,97951
96670,97956
96700,97945
96634,97940
96661,97933
96598,97924
96609,97911
96603,97909
96551,97888
96569,97911
96554,97870
96496,97874
96518,97889
96506,97847
96474,97843
96490,97845
96442,97850
96462,97793
96468,97828
96437,97840
96418,97790
96416,97802
96421,97818
96450,97813
96412,97810
96400,97828
96409,97819
96405,97816
96408,97825
96413,97818
96446,97837
96392,97824
96379,97819
96402,97809
96410,97797
96436,97798
96366,97789
96391,97790
96441,97824
96427,97798
96438,97835
96410,97800
96443,97812
96461,97826
96440,97833
96496,97813
96462,97864
96459,97852
96476,97840
96501,97836
96501,97831
96474,97845
96475,97814
96462,97852
96485,97836
96449,97838
96461,97848
96435,97826
96448,97790
96434,97814
96456,97795
96425,97779
96436,97783
96366,97777
96382,97795
96380,97767
96339,97767
96321,97744
96351,97731
96308,97732
96306,97734
96273,97722
96307,97719
96309,97740
96317,97707
96285,97716
96328,97732
96310,97730
96325,97721
96318,97726
96354,97737
96320,97728
96311,97732
96342,97733
96364,97739
96355,97743
96345,97706
96344,97744
96374,97738
96351,97729
96379,97711
96413,97756
96361,97730
96431,97728
96398,97722
96437,97740
96460,97777
96429,97752
96459,97744
96454,97741
96424,97731
96451,97743
96480,97732
96466,97750
96442,97745
96464,97749
96455,97751
96452,97742
96422,97746
96457,97718
96479,97743
96448,97708
96445,97711
96456,97698
96489,97722
96442,97734
96473,97680
96496,97693
96440,97733
96499,97699
96496,97738
96482,97707
96515,97719
96495,97710
96504,97718
96562,97722
96518,97732
96532,97736
96558,97740
96561,97760
96572,97712
96576,97733
96568,97763
96591,97706
96605,97757
96605,97734
96610,97784
96623,97733
96634,97769
96618,97753
96669,97751
96634,97766
96669,97759
96700,97778
96717,97817
96677,97774
96744,97808
96729,97798
96778,97832
96761,97842
96778,97820
96759,97835
96802,97861
96800,97862
96814,97853
96812,97844
96838,97882
96803,97855
96861,97836
96818,97858
96865,97844
96804,97857
96845,97826
96855,97867
96825,97828
96808,97820
96844,97831
96847,97856
96811,97834
96854,97834
96851,97841
96865,97845
96882,97841
96902,97851
96915,97883
96912,97866
97001,97932
96980,97924
97013,97961
97046,97962
97101,97993
97099,98001
97158,98027
97196,98051
97183,98046
97237,98070
97233,98082
97244,98092
97261,98114
97309,98107
97302,98109
97335,98147
97331,98131
97349,98132
97334,98154
97409,98149
97365,98179
97414,98192
97389,98202
97440,98188
97397,98201
97424,98201
97369,98170
97331,98132
97232,98076
97159,98063
97088,98013
96988,97962
96924,97947
96816,97897
96702,97831
96612,97743
96486,97725
96397,97696
96275,97622
96188,97530
96094,97506
95971,97465
95902,97398
95794,97365
95731,97312
95652,97314
95568,97273
95540,97232
95503,97210
95409,97195
95371,97137
95378,97161
95294,97135
95315,97117
95271,97119
95259,97112
95271,97105
95222,97100
95219,97083
95251,97123
95229,97100
95234,97112
95257,97111
95253,97133
95234,97081
95220,97148
95241,97113
95266,97121
95262,97133
95230,97092
95241,97129
95273,97139
95280,97164
95271,97139
95301,97170
95277,97140
95275,97160
95303,97153
95289,97159
95337,97147
95334,97171
95342,97211
95314,97205
95337,97177
95373,97215
95380,97234
95384,97209
95408,97231
95371,97217
95406,97190
95410,97214
95382,97216
95367,97186
95415,97211
95404,97230
95394,97226
95432,97218
95447,97251
95446,97205
95493,97286
95515,97273
95510,97277
95533,97285
95537,97290
95594,97301
95591,97291
95597,97296
95605,97321
95588,97317
95649,97325
95637,97312
95609,97347
95661,97334
95669,97331
95672,97349
95648,97351
95654,97342
95674,97339
95638,97368
95622,97329
95634,97320
95625,97332
95603,97337
95592,97285
95609,97338
95588,97308
95610,97319
95583,97326
95625,97319
95573,97323
95608,97315
95637,97362
95656,97347
95656,97355
95689,97397
95673,97408
95704,97371
95746,97425
95719,97433
95767,97414
95781,97420
95809,97451
95797,97416
95860,97429
95857,97457
95869,97461
95849,97479
95904,97468
95917,97519
95925,97485
95929,97496
95961,97508
95973,97523
95948,97515
96030,97549
96047,97582
96021,97563
96104,97585
96091,97596
96140,97620
96116,97619
96184,97605
96190,97647
96209,97643
96217,97642
96272,97664
96258,97716
96267,97671
96319,97713
96323,97715
96370,97714
96334,97734
96382,97709
96423,97773
96395,97763
96420,97756
96438,97742
96457,97776
96473,97775
96472,97798
96503,97805
96497,97767
96526,97826
96533,97803
96580,97840
96552,97837
96606,97832
96610,97817
96620,97851
96654,97877
96671,97906
96660,97870
96680,97878
96728,97902
96722,97913
96757,97904
96779,97958
96773,97917
96804,97945
96816,97954
96862,97973
96863,97975
96894,97983
96876,98015
96939,98028
96949,98020
96957,98033
96980,98018
97009,98067
97002,98042
97029,98060
97092,98081
97074,98087
97106,98072
97125,98148
97126,98122
97149,98130
97176,98161
97221,98160
97192,98147
97272,98172
97236,98214
97284,98197
97300,98213
97322,98209
97315,98206
97353,98215
97389,98241
97384,98223
97377,98268
97417,98234
97444,98305
97437,98274
97456,98268
97454,98291
97474,98298
97479,98316
97492,98306
97565,98321
97543,98358
97591,98360
97597,98337
97597,98363
97586,98350
97641,98367
97658,98384
97663,98379
97675,98406
97715,98400
97753,98413
97707,98441
97776,98416
97783,98444
97806,98494
97824,98452
97836,98487
97862,98545
97859,98489
97910,98526
97902,98516
97961,98531
97953,98526
97996,98547
97983,98591
97992,98555
97932,98540
97913,98553
97863,98481
97856,98453
97730,98430
97644,98339
97557,98336
97425,98262
97344,98172
97222,98116
97125,98068
96976,98025
96884,97942
96788,97936
96653,97842
96585,97790
96477,97771
96394,97728
96272,97656
96217,97668
96146,97602
96090,97575
96022,97550
95979,97510
95971,97551
95902,97496
95871,97492
95835,97433
95846,97468
95815,97457
95763,97448
95809,97429
95791,97437
95749,97400
95755,97430
95745,97413
95757,97415
95738,97447
95743,97382
95747,97450
95736,97398
95731,97422
95715,97398
95731,97374
95753,97402
95728,97418
95723,97390
95723,97418
95739,97396
95740,97371
95732,97414
95711,97368
95744,97380
95709,97364
95742,97385
95739,97418
95731,97366
95765,97387
95742,97413
95771,97396
95750,97392
95750,97385
95706,97400
95770,97405
95732,97380
95751,97363
95778,97415
95768,97424
95772,97387
95773,97434
95813,97407
95842,97412
95881,97436
95890,97486
95901,97477
95978,97505
95961,97528
95973,97544
96018,97545
96029,97532
96072,97559
96058,97606
96106,97593
96097,97589
96114,97589
96107,97598
96117,97582
96084,97607
96106,97599
96121,97576
96097,97595
96073,97586
96069,97560
96094,97598
96080,97573
96066,97575
96068,97561
96086,97570
96038,97569
96059,97570
96053,97593
96052,97562
96059,97563
96063,97569
96058,97584
96026,97572
96048,97596
96051,97558
96069,97571
96066,97575
96122,97612
96059,97599
96052,97574
96081,97589
96134,97601
96097,97636
96093,97592
96132,97615
96150,97638
96133,97610
96144,97643
96127,97621
96163,97597
96188,97666
96183,97638
96190,97639
96195,97619
96235,97629
96203,97685
96235,97628
96270,97662
96258,97681
96285,97682
96316,97674
96334,97663
96333,97713
96336,97697
96350,97707
96360,97691
96418,97733
96384,97749
96396,97709
96427,97735
96440,97760
96444,97746
96447,97771
96459,97758
96482,97796
96481,97779
96481,97770
96479,97766
96522,97768
96519,97805
96530,97767
96514,97803
96552,97785
96557,97790
96569,97782
96604,97859
96604,97815
96613,97848
96672,97857
96678,97866
96706,97884
96703,97855
96755,97924
96737,97912
96752,97917
96777,97910
96784,97936
96764,97893
96843,97936
96790,97910
96833,97932
96794,97924
96837,97938
96854,97926
96810,97934
96856,97955
96823,97948
96858,97933
96902,97941
96841,97938
96874,97966
96897,97934
96857,97933
96879,97967
96904,97950
96873,97951
96920,97962
96901,97957
96937,97950
96946,97975
96906,97961
96932,97976
96964,97953
96958,97973
96936,97956
96971,97961
96948,97953
96976,98015
96992,97971
97002,97966
96972,97990
96994,97963
97023,97994
97028,97989
96974,98005
96987,97999
96957,97988
96927,97953
96913,97929
96831,97887
96723,97848
96679,97817
96535,97712
96454,97685
96363,97654
96211,97564
96124,97494
96013,97482
95923,97427
95774,97365
95674,97282
95598,97260
95487,97215
95400,97147
95356,97124
95214,97047
95175,97028
95067,97031
95032,96977
94981,96977
94918,96888
94854,96897
94840,96866
94819,96864
94766,96842
94783,96866
94716,96842
94775,96810
94734,96811
94728,96841
94734,96816
94730,96838
94685,96806
94687,96813
94745,96805
94695,96832
94712,96809
94705,96819
94718,96828
94711,96804
94741,96822
94708,96840
94709,96800
94734,96832
94700,96811
94712,96824
94714,96803
94695,96802
94727,96816
94713,96805
94703,96792
94716,96785
94705,96817
94687,96805
94685,96784
94685,96822
94663,96758
94722,96798
94684,96771
94663,96767
94705,96775
94688,96767
94674,96721
94669,96744
94661,96765
94688,96734
94721,96780
94709,96817
94718,96798
94767,96798
94779,96841
94825,96811
94836,96845
94826,96848
94859,96882
94879,96840
94935,96870
94909,96902
94930,96864
94963,96871
94934,96890
94970,96881
94977,96916
94968,96880
95007,96910
94997,96936
94962,96885
94985,96926
94966,96906
95022,96919
94991,96926
94983,96904
94984,96936
94952,96901
94988,96898
94981,96915
94980,96906
94976,96884
94975,96899
94986,96901
94983,96918
94969,96885
95000,96933
94989,96943
95013,96907
95047,96910
95044,96944
95028,96950
95072,96958
95098,96958
95068,96998
95085,96961
95148,97014
95109,97008
95146,97007
95176,97017
95167,97007
95175,97005
95196,96998
95276,97066
95262,97045
95281,97070
95290,97076
95283,97084
95336,97105
95317,97117
95363,97092
95382,97142
95404,97133
95419,97120
95461,97137
95451,97183
95489,97147
95465,97173
95518,97180
95552,97179
95578,97217
95574,97214
95600,97246
95639,97245
95648,97282
95624,97253
95697,97286
95678,97282
95689,97269
95744,97304
95715,97280
95759,97293
95777,97314
95769,97313
95813,97357
95830,97318
95808,97375
95818,97348
95854,97368
95885,97369
95890,97391
95929,97378
95933,97416
95941,97422
95932,97408
95983,97417
95960,97433
95960,97443
95993,97455
96001,97428
96054,97448
96023,97432
96048,97442
96058,97465
96083,97466
96065,97495
96117,97486
96084,97479
96117,97462
96143,97484
96155,97501
96183,97512
96184,97531
96194,97531
96240,97560
96230,97564
96242,97566
96265,97562
96292,97619
96317,97583
96353,97598
96390,97650
96361,97621
96385,97621
96430,97635
96434,97669
96444,97645
96431,97650
96468,97671
96466,97676
96489,97695
96467,97681
96494,97674
96531,97704
96534,97682
96574,97710
96540,97686
96578,97701
96557,97721
96552,97721
96599,97728
96591,97769
96590,97719
96643,97754
96638,97775
96618,97766
96671,97754
96621,97765
96668,97744
96668,97784
96669,97723
96665,97771
96709,97764
96714,97764
96713,97785
96707,97758
96727,97797
96712,97788
96752,97791
96726,97781
96671,97791
96626,97705
96563,97676
96494,97630
96365,97591
96286,97503
96187,97505
96034,97402
95945,97333
95827,97258
95679,97207
95559,97119
95468,97061
95296,97043
95211,96965
95122,96888
94993,96820
94929,96785
94794,96765
94704,96677
94654,96690
94597,96613
94520,96607
94445,96559
94407,96549
94405,96540
94367,96519
94338,96540
94304,96466
94316,96492
94241,96494
94256,96484
94225,96502
94251,96443
94229,96481
94218,96471
94195,96441
94247,96443
94230,96440
94227,96444
94208,96473
94182,96438
94210,96417
94181,96440
94214,96420
94182,96430
94220,96430
94226,96431
94184,96435
94229,96433
94236,96435
94242,96474
94285,96466
94315,96500
94269,96496
94284,96473
94281,96496
94338,96515
94335,96483
94350,96511
94356,96556
94383,96515
94408,96526
94422,96544
94397,96503
94433,96589
94408,96537
94443,96559
94466,96558
94438,96595
94486,96598
94532,96626
94548,96622
94553,96671
94618,96670
94600,96662
94647,96689
94717,96688
94725,96727
94722,96710
94755,96708
94746,96739
94800,96764
94767,96753
94762,96724
94816,96765
94755,96730
94806,96748
94788,96725
94828,96750
94778,96765
94794,96722
94806,96755
94796,96764
94744,96748
94824,96748
94806,96736
94813,96723
94783,96729
94815,96778
94778,96755
94820,96740
94846,96773
94819,96770
94868,96788
94849,96779
94879,96822
94843,96828
94911,96808
94906,96832
94908,96828
94930,96811
94913,96861
94953,96839
94970,96835
94999,96876
94995,96869
95022,96867
94995,96865
95047,96858
95046,96900
95060,96917
95099,96909
95111,96905
95096,96904
95157,96940
95154,96950
95153,96924
95181,96968
95221,96983
95229,96949
95250,96966
95309,97018
95306,96996
95343,97030
95346,97030
95415,97053
95391,97089
95419,97057
95492,97107
95466,97088
95513,97124
95537,97127
95547,97157
95575,97135
95597,97184
95606,97210
95626,97193
95675,97229
95670,97239
95720,97228
95745,97245
95759,97246
95755,97259
95773,97241
95776,97278
95760,97247
95812,97244
95810,97261
95840,97279
95845,97259
95868,97294
95829,97298
95857,97283
95881,97291
95899,97283
95882,97318
95867,97273
95932,97292
95908,97312
95899,97312
95909,97306
95942,97303
95937,97299
95940,97312
95956,97323
95947,97316
95954,97327
96011,97331
96017,97340
96026,97346
96058,97353
96092,97384
96091,97400
96134,97408
96163,97426
96169,97443
96215,97460
96256,97463
96250,97473
96285,97506
96323,97514
96311,97528
96357,97540
96396,97547
96401,97578
96429,97561
96385,97585
96446,97566
96443,97591
96444,97567
96454,97558
96471,97601
96467,97585
96452,97587
96472,97587
96479,97595
96533,97608
96537,97603
96524,97624
96558,97646
96567,97630
96597,97667
96596,97617
96608,97670
96592,97619
96639,97624
96645,97689
96654,97682
96647,97662
96651,97678
96697,97713
96693,97718
96723,97717
96707,97702
96786,97754
96773,97752
96770,97763
96727,97721
96728,97709
96655,97674
96611,97638
96523,97576
96439,97549
96299,97477
96195,97429
96104,97364
95995,97265
95876,97237
95731,97156
95608,97060
95482,97013
95345,96949
95190,96882
95104,96800
94968,96791
94903,96736
94792,96664
94718,96621
94639,96593
94556,96542
94492,96521
94479,96486
94393,96463
94376,96455
94295,96411
94304,96418
94274,96403
94287,96413
94221,96389
94215,96411
94222,96399
94239,96371
94220,96376
94218,96417
94218,96405
94234,96400
94206,96367
94245,96378
94222,96414
94236,96380
94220,96382
94289,96420
94278,96460
94251,96410
94322,96436
94292,96450
94318,96452
94340,96445
94298,96474
94313,96457
94375,96455
94363,96500
94374,96494
94419,96513
94425,96480
94436,96514
94411,96488
94483,96517
94453,96535
94478,96524
94481,96535
94491,96564
94481,96553
94508,96531
94537,96549
94532,96581
94566,96576
94609,96624
94627,96608
94626,96674
94653,96665
94675,96634
94705,96636
94710,96685
94739,96687
94782,96689
94764,96726
94779,96704
94838,96737
94814,96741
94801,96717
94869,96753
94837,96724
94840,96726
94796,96708
94858,96724
94812,96727
94807,96692
94761,96674
94764,96719
94801,96667
94764,96675
94708,96687
94743,96646
94721,96662
94696,96665
94735,96661
94716,96659
94732,96685
94698,96689
94693,96688
94747,96668
94711,96676
94700,96670
94711,96651
94755,96687
94694,96634
94719,96690
94730,96649
94738,96678
94687,96656
94755,96674
94738,96639
94754,96691
94770,96707
94789,96682
94781,96711
94793,96693
94863,96718
94855,96711
94892,96756
94878,96735
94916,96756
94905,96788
94962,96761
94979,96776
94952,96792
95009,96782
95006,96837
95009,96800
95010,96813
95062,96831
95082,96869
95168,96873
95161,96948
95222,96939
95275,96981
95350,97007
95376,97049
95446,97110
95540,97140
95538,97177
95607,97193
95643,97248
95689,97245
95770,97303
95752,97304
95816,97333
95880,97367
95924,97373
95918,97407
95968,97443
95995,97451
96001,97414
96036,97474
96047,97496
96045,97452
96069,97450
96086,97511
96099,97479
96087,97483
96140,97509
96110,97475
96145,97507
96126,97501
96192,97509
96196,97545
96202,97546
96233,97532
96252,97569
96238,97595
96286,97580
96287,97622
96315,97582
96366,97618
96395,97642
96393,97647
96467,97681
96452,97666
96500,97710
96509,97772
96527,97715
96561,97741
96576,97779
96594,97785
96667,97821
96650,97840
96663,97801
96739,97872
96722,97845
96738,97865
96793,97890
96784,97898
96824,97902
96834,97922
96865,97909
96886,97942
96890,97931
96873,97942
96932,97900
96951,97998
96935,97942
96923,97971
96988,98003
96945,97978
96968,97955
97000,98022
96977,97996
97021,98018
96992,98015
97038,98008
97053,98028
97026,98042
97066,98026
97070,98062
97134,98097
97148,98080
97176,98130
97204,98107
97230,98164
97234,98152
97228,98126
97176,98138
97162,98119
97125,98101
97038,98034
96914,98012
96872,97980
96773,97886
96658,97870
96528,97789
96435,97756
96306,97661
96183,97617
96081,97554
95985,97513
95842,97447
95771,97390
95627,97339
95577,97323
95466,97264
95388,97189
95312,97201
95269,97153
95227,97147
95206,97118
95123,97115
95077,97084
95088,97049
95038,97087
95024,97060
95036,97076
95046,97092
95037,97055
95061,97082
95075,97090
95066,97092
95044,97103
95087,97135
95109,97137
95083,97112
95093,97145
95103,97123
95106,97122
95124,97158
95130,97160
95167,97128
95169,97190
95202,97186
95195,97182
95202,97166
95251,97180
95271,97232
95261,97198
95309,97236
95319,97245
95302,97268
95310,97219
95366,97307
95355,97258
95411,97299
95411,97306
95452,97345
95427,97319
95445,97313
95465,97381
95472,97353
95511,97386
95494,97358
95487,97373
95522,97347
95548,97383
95553,97377
95560,97385
95611,97377
95605,97435
95632,97434
95665,97455
95718,97471
95697,97458
95736,97493
95745,97468
95798,97502
95804,97500
95838,97525
95827,97544
95826,97518
95843,97552
95832,97534
95868,97518
95888,97546
95872,97560
95842,97576
95867,97527
95852,97553
95844,97507
95832,97510
95789,97512
95790,97500
95797,97485
95738,97480
95737,97427
95776,97473
95710,97433
95719,97434
95708,97415
95723,97429
95704,97452
95741,97431
95676,97451
95718,97452
95704,97446
95730,97410
95751,97449
95777,97449
95758,97459
95803,97461
95809,97518
95829,97482
95850,97504
95882,97503
95898,97566
95958,97566
95965,97604
95960,97589
96010,97610
96023,97601
96070,97630
96106,97651
96120,97664
96167,97659
96191,97704
96195,97703
96224,97709
96235,97740
96298,97724
96281,97774
96280,97776
96341,97788
96350,97776
96385,97826
96384,97819
96470,97819
96490,97835
96508,97870
96504,97868
96562,97893
96546,97904
96608,97910
96611,97940
96629,97952
96679,97979
96701,97965
96764,97993
96760,98032
96789,98016
96812,98029
96839,98061
96812,98076
96855,98061
96928,98130
96924,98123
96953,98119
96944,98120
96987,98145
97022,98156
97023,98155
97047,98169
97077,98168
97084,98212
97089,98200
97106,98202
97141,98208
97163,98232
97157,98240
97191,98247
97182,98221
97190,98243
97228,98262
97239,98250
97244,98256
97278,98272
97306,98270
97285,98260
97331,98295
97333,98308
97347,98295
97380,98322
97353,98316
97372,98296
97438,98357
97434,98344
97455,98337
97484,98380
97503,98349
97488,98380
97545,98357
97548,98397
97552,98408
97569,98433
97599,98417
97589,98461
97610,98456
97618,98432
97685,98417
97653,98463
97660,98462
97657,98451
97702,98455
97722,98481
97707,98482
97747,98485
97771,98502
97802,98527
97776,98539
97775,98532
97837,98533
97862,98523
97912,98573
97900,98598
97936,98586
97955,98621
97986,98608
98034,98651
98031,98628
98023,98691
98023,98668
98044,98669
97985,98632
97981,98622
97887,98561
97851,98570
97738,98499
97639,98480
97533,98376
97410,98371
97316,98282
97204,98250
97102,98164
96986,98104
96877,98104
96748,98015
96619,97938
96570,97867
96449,97869
96360,97787
96268,97810
96186,97720
96120,97691
96095,97705
96058,97645
95991,97655
95973,97656
95961,97681
95957,97627
95954,97667
95988,97686
96012,97715
96033,97741
96099,97750
96120,97794
96209,97840
96237,97879
96251,97884
96313,97925
96360,97934
96401,98001
96433,97988
96478,98043
96491,98041
96503,98038
96495,98054
96550,98059
96547,98074
96594,98051
96617,98057
96612,98084
96665,98127
96648,98124
96700,98110
96732,98166
96785,98179
96803,98188
96805,98197
96873,98206
96881,98236
96915,98228
96922,98254
96920,98280
96994,98282
96994,98318
96984,98304
97054,98316
97074,98327
97063,98332
97110,98337
97089,98377
97162,98331
97171,98392
97201,98366
97198,98373
97206,98378
97235,98355
97253,98411
97254,98394
97256,98392
97267,98411
97323,98453
97298,98456
97361,98419
97339,98477
97372,98443
97369,98482
97400,98472
97435,98498
97405,98472
97397,98488
97406,98440
97427,98486
97438,98513
97417,98492
97375,98473
97400,98479
97390,98479
97366,98464
97361,98488
97345,98446
97346,98463
97317,98434
97330,98428
97307,98397
97339,98455
97284,98414
97286,98399
97311,98448
97282,98424
97290,98409
97292,98464
97273,98420
97338,98460
97338,98434
97350,98435
97333,98428
97376,98482
97338,98435
97363,98455
97370,98472
97403,98472
97382,98497
97417,98474
97439,98530
97438,98509
97493,98533
97493,98533
97494,98544
97549,98542
97583,98597
97584,98578
97638,98600
97648,98614
97660,98637
97746,98626
97718,98684
97745,98669
97791,98690
97849,98708
97878,98734
97857,98758
97887,98734
97924,98792
97908,98738
97967,98795
97959,98765
97996,98806
97989,98754
98009,98791
98012,98808
97978,98763
98008,98806
98021,98797
98034,98802
98007,98780
98012,98786
98049,98782
98024,98779
98070,98786
98019,98807
98046,98785
98055,98791
98070,98792
98056,98777
98125,98836
98071,98790
98108,98813
98113,98791
98118,98819
98103,98826
98104,98817
98141,98821
98142,98830
98142,98837
98153,98808
98147,98832
98178,98838
98173,98834
98152,98840
98183,98824
98159,98853
98185,98838
98213,98838
98197,98867
98206,98822
98229,98852
98203,98841
98265,98874
98304,98911
98283,98874
98319,98909
98317,98944
98335,98920
98332,98923
98308,98939
98276,98894
98240,98880
98204,98861
98120,98831
98031,98758
97969,98719
97866,98703
97720,98616
97622,98562
97537,98483
97416,98460
97255,98372
97212,98339
97068,98282
96969,98213
96862,98169
96782,98122
96706,98066
96616,98057
96504,97971
96446,97939
96421,97923
96361,97884
96273,97877
96243,97861
96217,97857
96205,97820
96172,97827
96166,97790
96137,97830
96112,97783
96141,97793
96107,97811
96111,97783
96126,97783
96157,97816
96150,97854
96191,97813
96177,97785
96219,97833
96197,97856
96210,97839
96276,97903
96239,97883
96304,97883
96311,97881
96319,97911
96300,97927
96315,97908
96356,97933
96366,97933
96359,97968
96388,97933
96354,97953
96383,97950
96388,97940
96402,97927
96390,97947
96412,97924
96360,97919
96403,97901
96400,97932
96372,97932
96391,97928
96396,97916
96387,97933
96371,97880
96411,97943
96404,97914
96461,97918
96444,97955
96469,97918
96499,97967
96536,97986
96553,97998
96606,97970
96603,98024
96639,98009
96647,98048
96650,98021
96683,98015
96694,98068
96680,98061
96673,98039
96706,98091
96672,98045
96703,98014
96689,98033
96619,98029
96671,98050
96603,98028
96616,97999
96617,97993
96586,97993
96571,98011
96552,97973
96578,97964
96546,97970
96522,97957
96519,97958
96516,97936
96507,97995
96534,97961
96562,97986
96577,97998
96569,97974
96550,97992
96590,98000
96602,98011
96597,97998
96599,98017
96638,98009
96673,98018
96679,98065
96676,98012
96739,98076
96757,98059
96769,98070
96783,98121
96822,98098
96840,98141
96847,98148
96856,98185
96906,98176
96947,98195
96978,98201
96999,98263
97026,98230
97070,98260
97085,98268
97146,98320
97112,98279
97188,98330
97205,98375
97227,98341
97240,98383
97305,98392
97294,98429
97293,98416
97373,98464
97371,98463
97404,98408
97435,98464
97408,98497
97434,98452
97477,98496
97462,98480
97478,98463
97485,98488
97498,98527
97498,98513
97534,98515
97558,98511
97575,98564
97642,98559
97634,98575
97645,98550
97678,98575
97711,98606
97736,98611
97749,98651
97748,98616
97809,98658
97781,98666
97798,98620
97834,98665
97814,98662
97834,98651
97854,98691
97860,98647
97863,98652
97880,98689
97886,98682
97894,98709
97880,98708
97893,98684
97918,98703
97919,98724
97913,98727
97970,98692
97961,98741
97966,98717
97993,98720
97964,98717
98022,98717
97981,98760
97972,98689
98015,98724
98022,98730
98031,98735
98026,98728
98046,98736
98017,98725
98057,98723
98067,98739
98084,98770
98085,98761
98063,98763
98107,98781
98085,98765
98073,98770
98062,98746
98004,98733
97954,98695
97878,98638
97786,98602
97716,98546
97608,98507
97476,98444
97348,98373
97248,98315
97114,98263
96969,98185
96875,98095
96742,98049
96604,97991
96499,97893
96349,97862
96266,97777
96156,97742
96040,97700
95987,97611
95888,97588
95796,97544
95708,97511
95637,97458
95611,97456
95521,97408
95525,97384
95471,97380
95474,97363
95461,97343
95462,97361
95391,97375
95441,97354
95390,97333
95454,97361
95416,97394
95403,97335
95433,97373
95460,97350
95450,97406
95414,97350
95482,97394
95454,97342
95474,97395
95459,97370
95456,97383
95471,97397
95510,97408
95496,97428
95497,97385
95518,97382
95507,97429
95516,97426
95503,97415
95519,97448
95534,97411
95590,97435
95561,97469
95610,97452
95582,97461
95611,97479
95644,97507
95653,97484
95696,97518
95654,97514
95662,97493
95705,97533
95711,97488
95705,97533
95692,97500
95710,97529
95744,97535
95761,97523
95791,97553
95789,97558
95822,97548
95835,97588
95864,97570
95846,97593
95875,97579
95936,97596
95910,97613
95921,97628
95960,97601
95938,97631
95964,97610
95978,97647
95965,97653
95969,97659
96003,97691
95989,97658
96022,97653
96008,97688
95974,97630
95992,97660
95980,97650
95934,97632
95940,97580
95924,97599
95888,97582
95904,97575
95881,97574
95899,97593
95852,97575
95860,97581
95852,97561
95901,97606
95890,97600
95959,97631
95932,97615
95982,97638
95994,97658
96042,97695
96106,97706
96106,97755
96130,97743
96193,97769
96253,97813
96227,97827
96319,97848
96317,97870
96339,97892
96389,97907
96380,97898
96471,97937
96431,97933
96478,97926
96496,97979
96511,97947
96529,97960
96558,97994
96578,97997
96572,98008
96599,97981
96596,98028
96632,98005
96667,98035
96676,98064
96649,98023
96708,98043
96731,98077
96755,98089
96778,98080
96765,98082
96832,98094
96826,98126
96855,98112
96863,98131
96866,98135
96903,98117
96900,98126
96896,98135
96899,98123
96935,98137
96896,98143
96871,98107
96920,98131
96881,98106
96926,98100
96919,98128
96934,98142
96973,98130
97021,98176
97023,98199
97093,98212
97102,98232
97169,98257
97193,98305
97251,98294
97305,98386
97349,98373
97426,98451
97461,98460
97544,98515
97555,98534
97655,98614
97709,98600
97732,98625
97815,98664
97840,98680
97863,98709
97927,98729
97953,98746
97952,98754
97994,98800
98050,98785
98053,98789
98111,98825
98080,98863
98119,98870
98172,98853
98155,98865
98243,98919
98226,98963
98288,98954
98312,98996
98393,99015
98430,99048
98455,99070
98507,99102
98533,99120
98612,99172
98599,99189
98626,99174
98654,99213
98663,99207
98671,99228
98609,99208
98595,99182
98574,99172
98495,99170
98421,99086
98344,99086
98247,99029
98161,98996
98093,98954
97957,98906
97899,98855
97764,98817
97678,98770
97580,98710
97511,98667
97417,98628
97314,98610
97249,98528
97164,98529
97102,98473
97015,98438
96961,98427
96937,98358
96892,98386
96869,98320
96823,98320
96761,98312
96760,98262
96741,98277
96731,98239
96702,98249
96703,98262
96674,98258
96649,98198
96665,98216
96615,98205
96588,98182
96625,98138
96619,98168
96590,98178
96592,98159
96599,98184
96592,98180
96586,98177
96586,98139
96599,98154
96566,98173
96585,98134
96612,98171
96590,98169
96558,98147
96617,98134
96601,98185
96598,98160
96629,98210
96638,98179
96673,98178
96698,98216
96693,98242
96726,98210
96751,98225
96752,98268
96766,98253
96780,98294
96800,98269
96805,98271
96833,98289
96864,98304
96844,98315
96909,98299
96903,98350
96914,98329
96932,98326
96930,98326
96990,98355
96959,98376
96962,98331
96970,98366
97000,98347
97010,98334
97036,98374
97022,98391
97021,98350
97059,98397
97041,98363
97041,98402
97069,98367
97045,98394
97016,98384
97065,98372
97026,98375
97030,98368
97025,98372
97000,98331
97012,98375
96993,98352
96977,98347
96989,98331
96941,98378
96958,98317
96979,98346
96966,98346
96944,98326
96926,98344
96926,98335
96912,98289
96930,98347
96956,98330
96938,98318
96928,98302
96973,98301
96939,98355
96969,98299
96987,98342
96998,98365
97023,98341
97041,98371
97049,98350
97041,98401
97066,98374
97090,98378
97114,98413
97108,98392
97178,98393
97156,98441
97205,98432
97214,98450
97222,98450
97244,98430
97272,98495
97271,98483
97356,98501
97381,98507
97389,98524
97427,98524
97448,98576
97462,98528
97510,98577
97490,98581
97565,98598
97552,98634
97605,98617
97671,98653
97678,98653
97679,98683
97733,98687
97729,98706
97711,98677
97746,98675
97740,98682
97769,98690
97745,98634
97759,98653
97699,98681
97696,98626
97681,98636
97694,98625
97640,98591
97671,98587
97648,98599
97626,98554
97644,98568
97641,98582
97621,98533
97632,98540
97611,98533
97581,98518
97630,98535
97570,98516
97577,98502
97617,98501
97551,98485
97547,98470
97530,98501
97518,98460
97514,98439
97515,98456
97480,98408
97500,98390
97469,98407
97486,98391
97459,98403
97451,98384
97484,98402
97457,98395
97473,98348
97461,98392
97401,98338
97372,98352
97305,98292
97241,98255
97160,98242
97103,98181
97042,98177
96912,98111
96851,98053
96732,98031
96648,97997
96550,97899
96467,97880
96374,97864
96273,97793
96217,97765
96133,97750
96049,97693
95952,97648
95934,97609
95831,97589
95756,97524
95703,97490
95684,97474
95632,97497
95544,97444
95558,97416
95537,97387
95508,97397
95494,97395
95480,97400
95454,97320
95443,97379
95435,97377
95468,97375
95453,97376
95443,97379
95487,97406
95471,97395
95520,97411
95540,97438
95551,97452
95581,97470
95643,97518
95672,97523
95718,97582
95783,97607
95810,97657
95862,97663
95895,97704
95905,97724
95901,97725
95920,97743
95902,97738
95929,97745
95918,97737
95899,97734
95916,97724
95868,97707
95862,97676
95890,97693
95840,97691
95871,97683
95881,97692
95870,97700
95898,97688
95886,97676
95947,97704
95898,97740
95946,97705
95977,97729
95996,97723
95990,97752
95987,97717
96009,97772
96028,97751
95985,97739
96041,97736
96024,97749
95998,97719
96024,97687
95979,97712
95964,97688
95970,97694
95931,97686
95914,97684
95995,97729
95985,97718
95953,97697
95966,97726
95968,97701
96018,97751
96007,97756
96025,97726
96007,97761
96005,97718
96012,97770
95994,97760
95979,97757
96001,97760
95967,97717
95996,97743
95964,97701
95976,97671
95959,97686
95925,97689
95907,97649
95937,97652
95910,97661
95950,97673
95975,97711
96001,97718
96026,97750
96086,97806
96121,97799
96212,97855
96247,97917
96344,97991
96399,98018
96417,98047
96510,98093
96547,98108
96556,98119
96571,98134
96576,98119
96589,98133
96607,98116
96603,98147
96618,98113
96562,98105
96576,98091
96558,98066
96504,98045
96516,98036
96497,98020
96457,97979
96454,97969
96435,97942
96378,97914
96405,97923
96376,97921
96388,97893
96371,97903
96403,97909
96387,97921
96387,97863
96419,97934
96406,97899
96405,97936
96462,97927
96510,97968
96515,97939
96533,97962
96551,97997
96534,97986
96569,98025
96606,97982
96608,98007
96624,98034
96635,98037
96634,97988
96656,98055
96657,98048
96659,98031
96706,98054
96739,98083
96759,98094
96853,98146
96902,98188
96946,98237
96960,98224
97037,98281
97070,98302
97093,98304
97148,98322
97147,98357
97197,98363
97194,98350
97208,98369
97223,98382
97192,98366
97242,98366
97197,98359
97167,98319
97143,98296
97095,98274
97019,98198
96981,98190
96883,98151
96809,98108
96710,98113
96626,98025
96529,97988
96423,97913
96300,97849
96205,97812
96110,97775
96016,97698
95902,97654
95769,97585
95738,97577
95640,97525
95540,97476
95454,97415
95368,97391
95271,97362
95204,97296
95146,97291
95096,97223
95058,97179
94976,97148
94985,97145
94920,97146
94884,97102
94860,97091
94852,97039
94877,97070
94817,97091
94796,97035
94858,97048
94831,97047
94838,97098
94818,97054
94874,97097
94837,97093
94870,97081
94932,97114
94923,97146
94953,97153
94973,97171
95025,97159
94995,97194
95060,97178
95031,97224
95056,97216
95050,97230
95048,97194
95056,97228
95091,97212
95113,97213
95039,97229
95072,97194
95118,97231
95073,97202
95085,97199
95093,97210
95079,97204
95043,97181
95085,97199
95078,97196
95074,97163
95060,97187
95066,97186
95103,97168
95097,97197
95114,97180
95120,97172
95130,97218
95130,97207
95182,97215
95189,97253
95222,97236
95237,97259
95276,97274
95283,97284
95244,97268
95346,97300
95307,97308
95340,97315
95343,97331
95380,97311
95367,97353
95361,97319
95412,97326
95391,97317
95363,97330
95349,97307
95323,97304
95355,97322
95312,97315
95308,97272
95314,97288
95278,97287
95256,97238
95222,97235
95217,97208
95188,97197
95129,97170
95149,97157
95120,97178
95109,97125
95115,97111
95083,97134
95097,97097
95114,97109
95058,97108
95130,97107
95127,97123
95151,97107
95103,97132
95160,97119
95185,97172
95201,97153
95229,97197
95226,97162
95300,97210
95285,97229
95343,97224
95321,97274
95389,97258
95373,97299
95391,97293
95404,97282
95477,97279
95453,97309
95436,97336
95450,97326
95454,97293
95493,97307
95494,97325
95533,97296
95533,97335
95526,97325
95590,97345
95567,97360
95574,97335
95646,97368
95628,97352
95673,97383
95706,97414
95700,97439
95708,97446
95744,97444
95783,97482
95772,97487
95767,97475
95814,97453
95839,97525
95842,97469
95853,97486
95917,97489
95882,97551
95899,97511
95959,97562
95950,97563
95962,97583
95972,97570
96025,97573
96040,97618
96040,97630
96091,97620
96134,97632
96087,97640
96144,97677
96199,97679
96183,97688
96184,97708
96197,97694
96218,97707
96264,97716
96263,97730
96276,97726
96285,97764
96298,97741
96320,97757
96343,97746
96345,97775
96308,97759
96364,97778
96363,97781
96349,97778
96294,97747
96343,97729
96327,97762
96358,97783
96373,97756
96395,97767
96400,97786
96399,97790
96422,97770
96413,97808
96397,97799
96400,97783
96371,97785
96324,97774
96279,97688
96207,97667
96101,97653
95994,97573
95910,97488
95787,97460
95639,97382
95563,97325
95449,97284
95297,97189
95212,97131
95056,97088
94925,96985
94827,96959
94741,96887
94611,96874
94550,96782
94412,96731
94364,96712
94293,96680
94206,96609
94183,96596
94118,96597
94044,96557
94040,96533
94045,96553
94048,96564
94031,96585
94020,96548
94062,96549
94042,96620
94080,96603
94110,96611
94117,96663
94189,96652
94219,96739
94258,96752
94307,96826
94368,96884
94484,96920
94552,97022
94642,97063
94675,97118
94773,97159
94825,97188
94863,97254
94901,97279
94964,97250
94980,97316
95012,97318
95018,97345
95019,97329
95046,97330
95076,97339
95105,97377
95080,97340
95133,97371
95122,97381
95170,97361
95199,97425
95174,97398
95233,97431
95238,97451
95269,97480
95292,97454
95368,97503
95325,97504
95387,97517
95425,97524
95421,97552
95480,97579
95480,97588
95507,97591
95530,97623
95534,97612
95563,97642
95580,97634
95614,97636
95572,97642
95594,97658
95644,97633
95626,97652
95636,97664
95620,97650
95650,97627
95642,97653
95666,97658
95606,97625
95643,97640
95630,97673
95617,97611
95623,97638
95640,97632
95578,97616
95593,97633
95540,97593
95555,97575
95496,97558
95543,97575
95525,97545
95491,97525
95501,97521
95466,97533
95489,97510
95442,97531
95494,97518
95493,97493
95466,97524
95514,97528
95510,97488
95485,97517
95542,97516
95530,97535
95583,97523
95543,97532
95560,97512
95616,97548
95613,97550
95660,97572
95668,97605
95697,97598
95736,97614
95733,97609
95734,97610
95823,97661
95804,97667
95819,97679
95859,97697
95839,97687
95879,97679
95896,97699
95942,97701
95912,97729
95959,97717
95981,97768
96009,97753
95990,97766
96041,97774
96019,97794
96043,97786
96088,97798
96091,97796
96107,97818
96129,97827
96126,97841
96152,97799
96144,97835
96201,97858
96193,97868
96217,97840
96194,97857
96237,97880
96230,97854
96223,97859
96288,97875
96300,97880
96295,97904
96340,97897
96338,97927
96338,97905
96358,97937
96413,97962
96401,97930
96412,97972
96450,97972
96456,97963
96480,97985
96468,97979
96520,97997
96507,97995
96510,97993
96554,98020
96525,98009
96531,97983
96540,97997
96552,97980
96527,97990
96528,97999
96563,98001
96568,97999
96569,98011
96554,98002
96602,98012
96595,98020
96641,98043
96634,98037
96641,98026
96665,98066
96659,98067
96695,98075
96706,98067
96717,98082
96740,98076
96791,98090
96776,98065
96775,98101
96743,98100
96785,98095
96795,98103
96765,98073
96819,98093
96807,98109
96806,98082
96841,98101
96841,98111
96868,98127
96822,98091
96848,98146
96840,98127
96776,98097
96769,98052
96693,98049
96658,98025
96554,97953
96448,97918
96348,97846
96263,97805
96151,97752
96017,97669
95871,97619
95757,97526
95676,97482
95525,97398
95396,97361
95298,97310
95184,97219
95131,97207
94999,97118
94954,97099
94840,97036
94802,97014
94741,96993
94694,96945
94632,96933
94599,96912
94569,96917
94564,96897
94537,96910
94564,96908
94568,96869
94546,96904
94542,96892
94526,96877
94577,96895
94544,96911
94552,96933
94577,96936
94609,96954
94593,96928
94629,96925
94670,96980
94621,96963
94647,96977
94671,96944
94698,97007
94689,96968
94738,96987
94738,96978
94774,97023
94750,97008
94790,97001
94767,97050
94797,97038
94814,97050
94837,97054
94842,97070
94847,97044
94880,97068
94885,97079
94857,97069
94895,97078
94882,97104
94935,97064
94932,97070
94897,97092
94914,97073
94963,97092
94937,97089
94987,97111
94978,97124
95016,97139
95057,97137
95059,97173
95094,97178
95108,97184
95144,97213
95170,97213
95184,97246
95231,97219
95219,97256
95247,97267
95229,97257
95299,97275
95284,97272
95292,97286
95316,97306
95285,97281
95280,97279
95281,97274
95268,97292
95260,97252
95252,97267
95263,97252
95198,97237
95203,97231
95210,97246
95190,97240
95190,97229
95194,97234
95161,97220
95180,97226
95219,97242
95196,97241
95189,97242
95205,97238
95187,97220
95215,97250
95207,97256
95234,97251
95225,97266
95246,97279
95198,97249
95283,97264
95245,97268
95267,97266
95259,97271
95282,97280
95329,97289
95298,97282
95359,97335
95358,97321
95386,97338
95400,97349
95439,97364
95453,97351
95483,97396
95517,97406
95499,97420
95575,97441
95577,97404
95565,97460
95617,97466
95642,97459
95666,97498
95685,97476
95665,97483
95680,97497
95722,97508
95747,97517
95724,97517
95780,97547
95750,97525
95806,97541
95776,97542
95839,97538
95834,97569
95869,97584
95880,97597
95921,97611
95891,97600
95949,97634
95941,97641
95979,97645
96015,97651
96026,97669
96022,97667
96062,97675
96054,97690
96088,97690
96128,97720
96130,97722
96130,97731
96147,97761
96140,97736
96170,97765
96223,97775
96196,97768
96251,97806
96269,97831
96307,97833
96268,97846
96328,97869
96340,97864
96325,97876
96368,97895
96384,97882
96363,97889
96412,97941
96419,97904
96414,97926
96465,97941
96484,97940
96481,97941
96545,98013
96543,97988
96573,98008
96595,98053
96596,98057
96603,98039
96638,98059
96616,98038
96597,98030
96516,98019
96503,97988
96372,97951
96287,97869
96238,97851
96113,97765
95977,97680
95843,97618
95703,97572
95585,97436
95449,97393
95330,97307
95196,97266
95052,97173
95008,97156
94865,97081
94767,96988
94686,96979
94589,96956
94536,96883
94463,96876
94397,96859
94366,96823
94370,96790
94322,96776
94306,96793
94283,96776
94309,96780
94321,96822
94287,96769
94305,96781
94313,96821
94295,96796
94339,96792
94319,96824
94358,96795
94315,96820
94344,96770
94373,96814
94359,96790
94389,96817
94383,96823
94357,96820
94416,96807
94380,96805
94431,96848
94454,96824
94496,96871
94496,96869
94491,96889
94528,96906
94549,96910
94585,96887
94597,96966
94619,96943
94649,96964
94647,96977
94658,96957
94681,96970
94676,96958
94691,97011
94682,96957
94701,96993
94686,97021
94738,97003
94732,97032
94818,97043
94811,97057
94866,97094
94859,97106
94941,97137
94968,97154
95011,97182
94995,97230
95069,97214
95045,97226
95101,97277
95113,97263
95130,97260
95153,97297
95191,97306
95151,97310
95188,97305
95209,97315
95197,97329
95182,97333
95190,97336
95192,97321
95163,97305
95146,97314
95133,97286
95096,97266
95102,97261
95080,97251
95055,97218
95044,97238
95024,97233
95047,97217
95027,97208
95014,97218
95018,97212
95025,97202
95016,97215
95032,97208
95023,97198
95026,97223
95014,97208
95050,97218
95032,97211
95016,97199
95037,97209
95020,97194
95035,97206
95040,97217
95025,97196
95052,97197
95063,97217
95083,97246
95130,97249
95099,97228
95139,97241
95156,97275
95200,97311
95225,97311
95208,97303
95267,97332
95290,97332
95264,97335
95327,97360
95331,97351
95326,97373
95376,97392
95357,97391
95378,97388
95394,97382
95407,97406
95453,97415
95426,97418
95484,97452
95486,97437
95488,97436
95535,97461
95548,97466
95550,97474
95589,97493
95603,97495
95596,97516
95638,97514
95638,97520
95658,97539
95664,97544
95676,97556
95704,97546
95721,97563
95704,97574
95726,97581
95761,97589
95747,97596
95809,97604
95788,97611
95837,97635
95851,97632
95829,97635
95845,97629
95878,97638
95884,97623
95882,97668
95896,97670
95885,97669
95947,97689
95932,97686
95946,97682
95948,97697
95982,97711
95966,97711
95970,97699
96038,97707
96000,97731
96019,97731
96047,97765
96072,97755
96062,97772
96133,97786
96111,97781
96097,97787
96118,97800
96119,97796
96055,97752
96002,97716
95950,97696
95869,97642
95775,97575
95631,97497
95490,97409
95366,97339
95237,97262
95067,97169
94904,97075
94793,97009
94661,96945
94498,96873
94389,96823
94270,96734
94208,96689
94083,96648
94020,96631
93945,96549
93865,96517
93806,96497
93736,96465
93651,96427
93593,96383
93513,96328
93469,96300
93429,96260
93385,96220
93328,96205
93338,96211
93322,96181
93337,96188
93392,96234
93392,96246
93488,96285
93522,96327
93587,96382
93680,96430
93729,96480
93835,96564
93915,96594
93968,96649
94063,96722
94141,96730
94173,96804
94250,96823
94299,96840
94331,96870
94394,96909
94428,96929
94435,96925
94489,96959
94505,96941
94510,96971
94552,97019
94603,97018
94578,97000
94626,97056
94644,97088
94698,97074
94714,97087
94734,97103
94752,97111
94749,97094
94768,97108
94802,97139
94810,97133
94832,97161
94880,97200
94938,97205
94973,97242
95039,97272
95097,97309
95144,97351
95209,97400
95307,97439
95313,97480
95398,97522
95436,97548
95466,97565
95537,97608
95567,97622
95596,97621
95645,97649
95634,97667
95712,97701
95737,97708
95719,97714
95776,97762
95802,97769
95791,97775
95805,97793
95822,97779
95836,97801
95840,97809
95837,97820
95823,97836
95858,97824
95856,97805
95817,97820
95820,97805
95830,97779
95814,97782
95821,97827
95800,97799
95828,97815
95809,97833
95811,97829
95836,97844
95889,97855
95887,97877
95919,97868
95951,97895
95976,97892
95946,97901
95986,97925
95984,97898
96017,97902
96020,97911
96026,97933
96020,97924
96072,97903
96050,97923
96028,97929
96061,97887
96048,97902
96104,97917
96070,97937
96115,97898
96110,97932
96124,97943
96168,97954
96165,97931
96202,97996
96284,98024
96268,98032
96325,98049
96380,98095
96406,98161
96483,98169
96571,98203
96642,98273
96662,98262
96714,98337
96783,98337
96825,98393
96827,98417
96906,98407
96934,98426
96984,98492
96974,98490
97045,98511
97070,98527
97130,98555
97149,98581
97191,98581
97235,98615
97231,98636
97282,98651
97309,98661
97338,98671
97361,98655
97357,98710
97399,98713
97426,98684
97435,98754
97430,98721
97460,98765
97493,98764
97502,98788
97554,98780
97616,98843
97604,98822
97634,98856
97662,98848
97680,98872
97691,98880
97689,98886
97711,98853
97706,98883
97723,98885
97764,98912
97727,98912
97732,98909
97763,98892
97729,98900
97762,98883
97777,98922
97766,98885
97800,98887
97744,98899
97810,98919
97796,98915
97854,98909
97818,98955
97864,98918
97793,98942
97801,98898
97765,98848
97717,98879
97652,98804
97537,98761
97459,98690
97314,98640
97204,98563
97061,98507
96940,98410
96823,98386
96668,98286
96551,98184
96434,98130
96251,98074
96136,97952
96048,97901
95889,97848
95789,97797
95654,97746
95611,97677
95511,97649
95421,97610
95357,97575
95337,97532
95262,97550
95217,97499
95207,97472
95180,97439
95158,97441
95161,97463
95112,97417
95102,97443
95083,97384
95088,97402
95080,97391
95092,97386
95087,97392
95117,97420
95056,97401
95112,97386
95097,97385
95094,97405
95125,97427
95119,97444
95159,97417
95179,97449
95199,97479
95196,97466
95275,97472
95227,97519
95294,97532
95328,97538
95335,97560
95358,97567
95366,97587
95411,97605
95399,97618
95403,97624
95456,97649
95446,97602
95468,97651
95474,97673
95454,97668
95492,97636
95508,97678
95529,97690
95516,97697
95515,97697
95558,97693
95597,97760
95620,97747
95655,97760
95711,97761
95708,97819
95758,97789
95763,97843
95782,97833
95778,97833
95796,97863
95839,97842
95868,97856
95863,97878
95865,97849
95887,97892
95870,97845
95883,97858
95883,97872
95879,97870
95830,97863
95857,97867
95808,97849
95843,97853
95800,97836
95805,97799
95764,97817
95799,97830
95794,97804
95763,97821
95711,97762
95755,97821
95725,97795
95699,97788
95689,97789
95702,97737
95677,97760
95693,97774
95678,97758
95668,97758
95697,97735
95696,97753
95709,97782
95726,97769
95709,97748
95760,97787
95743,97742
95750,97779
95797,97799
95792,97810
95784,97810
95830,97839
95846,97848
95895,97869
95906,97865
95893,97850
95974,97886
95990,97923
96027,97962
96022,97976
96068,97935
96080,97986
96110,97992
96127,98009
96149,97990
96212,98035
96201,98011
96244,98058
96235,98053
96247,98030
96295,98100
96297,98057
96325,98105
96318,98089
96350,98108
96359,98119
96399,98146
96423,98135
96438,98178
96416,98168
96457,98195
96488,98199
96489,98206
96523,98184
96569,98240
96547,98210
96568,98219
96593,98242
96602,98254
96594,98239
96645,98281
96632,98239
96643,98259
96708,98292
96700,98323
96666,98266
96693,98284
96720,98308
96715,98315
96726,98292
96777,98316
96758,98274
96767,98316
96786,98310
96764,98309
96773,98345
96780,98322
96788,98357
96807,98319
96836,98352
96823,98325
96825,98333
96865,98375
96879,98371
96911,98384
96900,98379
96944,98401
96945,98435
96919,98396
96964,98413
96939,98418
96921,98382
96864,98381
96833,98354
96779,98325
96669,98222
96541,98200
96488,98124
96367,98065
96253,98007
96086,97916
95956,97883
95828,97775
95674,97706
95551,97632
95410,97527
95296,97496
95161,97449
95075,97362
94965,97308
94829,97263
94770,97216
94686,97139
94651,97123
94558,97134
94506,97065
94490,97069
94427,97035
94439,97053
94412,97040
94421,97005
94401,97013
94415,97037
94392,97040
94436,97046
94435,97081
94480,97091
94520,97082
94520,97128
94534,97137
94592,97127
94607,97188
94627,97173
94635,97176
94647,97172
94677,97223
94687,97221
94677,97195
94740,97224
94733,97267
94738,97229
94750,97229
94775,97254
94777,97276
94748,97251
94803,97272
94780,97284
94815,97278
94828,97314
94827,97301
94858,97289
94863,97305
94836,97302
94898,97304
94905,97341
94898,97313
94955,97352
94946,97387
94964,97380
94996,97373
95046,97420
95059,97428
95089,97433
95104,97440
95135,97466
95164,97496
95180,97477
95194,97521
95235,97510
95216,97534
95270,97539
95304,97524
95255,97521
95277,97548
95306,97550
95271,97548
95291,97548
95263,97534
95289,97548
95252,97515
95274,97512
95235,97517
95245,97519
95219,97495
95156,97496
95209,97445
95185,97481
95181,97484
95146,97471
95125,97431
95135,97471
95129,97470
95110,97475
95119,97449
95144,97447
95150,97504
95174,97478
95184,97469
95212,97511
95240,97532
95229,97530
95252,97544
95302,97547
95307,97588
95279,97580
95343,97588
95357,97572
95380,97608
95382,97614
95415,97632
95447,97651
95449,97650
95487,97678
95491,97709
95522,97684
95587,97747
95586,97736
95642,97762
95646,97782
95681,97770
95741,97833
95739,97834
95793,97869
95805,97854
95865,97896
95822,97886
95881,97911
95939,97921
95915,97972
95927,97916
95942,97967
95978,97958
95987,97971
95999,97979
96036,97975
96053,97977
96090,98021
96067,98046
96108,98030
96150,98030
96148,98090
96198,98103
96222,98122
96216,98099
96260,98110
96255,98143
96274,98141
96304,98154
96293,98160
96369,98124
96335,98173
96345,98154
96317,98155
96340,98169
96380,98158
96339,98158
96385,98160
96381,98188
96377,98169
96374,98144
96416,98167
96421,98202
96402,98168
96438,98165
96430,98190
96425,98196
96473,98195
96473,98232
96480,98240
96496,98247
96549,98268
96594,98299
96621,98276
96644,98317
96639,98338
96692,98320
96716,98380
96664,98346
96697,98335
96632,98339
96549,98309
96481,98240
96417,98193
96331,98140
96161,98047
96064,97998
95908,97910
95786,97868
95635,97757
95539,97700
95396,97625
95265,97578
95151,97512
95043,97476
94921,97391
94843,97355
94772,97331
94693,97275
94669,97256
94586,97265
94536,97219
94523,97192
94478,97192
94466,97178
94519,97226
94492,97216
94533,97223
94565,97292
94588,97334
94667,97332
94756,97440
94818,97469
94871,97501
94974,97573
95022,97663
95089,97693
95174,97722
95254,97785
95345,97864
95406,97906
95477,97924
95517,97989
95648,98059
95712,98099
95803,98156
95915,98206
95981,98292
96086,98382
96144,98422
96267,98456
96358,98537
96481,98634
96568,98691
96692,98766
96773,98829
96895,98902
97034,99001
97082,99043
97186,99104
97241,99146
97368,99215
97455,99274
97504,99298
97600,99365
97676,99440
97793,99449
97869,99515
97861,99547
97936,99541
98000,99587
98008,99620
98054,99608
98159,99679
98182,99695
98210,99697
98254,99727
98269,99752
98362,99785
98407,99831
98402,99813
98417,99851
98475,99878
98533,99869
98537,99904
98519,99894
98579,99905
98576,99911
98566,99947
98590,99915
98603,99959
98597,99910
98600,99917
98599,99950
98585,99950
98586,99922
98592,99916
98599,99933
98571,99920
98611,99923
98624,99959
98636,99965
98607,99956
98671,99948
98689,99999
98687,99988
98750,99999
98710,100029
98776,100035
98800,100034
98844,100036
98867,100067
98880,100109
98952,100094
98928,100125
98949,100149
98965,100109
99029,100135
99053,100146
99055,100155
99067,100144
99082,100176
99075,100129
99114,100177
99099,100156
99149,100171
99140,100165
99133,100162
99151,100151
99137,100174
99158,100163
99170,100197
99204,100182
99209,100214
99186,100199
99238,100190
99210,100214
99211,100203
99247,100190
99272,100224
99232,100180
99240,100213
99263,100214
99234,100190
99235,100155
99215,100196
99200,100160
99181,100133
99171,100112
99156,100128
99105,100042
99086,100074
99052,100039
99003,100015
98951,99973
98953,99958
98910,99942
98848,99856
98832,99865
98770,99825
98714,99782
98716,99753
98634,99754
98617,99703
98560,99686
98505,99673
98462,99611
98455,99578
98400,99559
98407,99571
98348,99495
98338,99499
98292,99492
98313,99458
98246,99478
