11111,11111
0,0
82429,82479
131715,107323
134402,107363
134497,107386
134595,107456
134667,107486
134809,107520
134892,107531
134978,107590
135064,107595
135171,107674
135214,107708
135317,107701
135399,107735
135477,107759
135567,107798
135672,107860
135691,107849
135766,107879
135867,107925
135887,107948
135977,107938
136071,108014
136063,108010
136124,108020
136144,108047
136231,108059
136263,108070
136240,108080
136280,108051
136324,108079
136374,108092
136359,108122
136393,108105
136382,108155
136435,108122
136490,108141
136478,108161
136529,108176
136580,108218
136586,108194
136651,108195
136701,108252
136678,108251
136754,108264
136766,108282
136802,108263
136852,108299
136876,108269
136890,108292
136877,108329
136961,108305
136928,108362
136957,108360
136981,108345
137006,108361
137009,108381
137038,108341
137084,108372
137083,108411
137124,108407
137144,108383
137190,108436
137219,108434
137304,108474
137378,108513
137453,108544
137476,108517
137564,108553
137557,108605
137614,108573
137714,108621
137708,108652
137733,108623
137827,108653
137809,108654
137885,108691
137888,108717
137930,108691
137962,108700
138022,108728
138083,108789
138071,108771
138141,108778
138218,108799
138262,108820
138280,108828
138318,108857
138355,108874
138286,108842
138277,108843
138275,108808
138186,108793
138105,108747
137977,108709
137836,108681
137638,108586
137514,108511
137306,108421
137037,108304
136836,108231
136626,108154
136341,108014
136099,107914
135833,107810
135632,107731
135322,107633
135120,107508
134908,107411
134671,107388
134495,107282
134325,107245
134130,107162
133964,107079
133831,107066
133734,106999
133706,106991
133659,106987
133593,106948
133589,106966
133629,106959
133630,106982
133675,106992
133753,107020
136691,108201
138129,108744
138147,108733
139349,109208
139364,109234
139452,109279
140732,109748
140791,109738
140870,109793
140901,109799
140959,109838
141276,109915
141233,109879
141186,109856
141153,109842
141059,109803
140986,109793
140891,109720
140800,109710
140726,109671
140626,109643
140542,109586
140401,109567
140331,109530
140277,109501
140166,109463
140067,109449
139973,109399
139900,109361
139841,109335
139766,109297
139686,109261
139622,109269
139519,109245
139459,109183
139393,109158
139320,109129
139213,109097
139135,109047
139109,109062
139029,109015
138898,108990
138897,108960
138896,108963
138853,108999
138828,108966
138887,109002
138888,109008
138928,108982
139022,109010
139071,109061
139098,109090
139153,109109
139245,109138
139298,109151
139363,109172
139472,109195
139557,109251
139615,109301
139671,109258
139752,109351
139821,109365
139876,109392
139965,109379
140036,109486
140140,109481
140213,109488
140250,109527
140333,109523
140468,109610
140511,109622
140578,109668
140605,109646
140643,109645
140741,109720
140767,109708
140807,109701
140813,109749
140860,109722
140929,109754
140937,109759
140917,109767
140913,109740
140916,109725
140972,109765
140975,109759
140945,109755
140938,109738
140964,109763
140939,109778
141000,109783
140989,109725
140980,109761
140956,109748
141016,109761
140984,109762
141016,109757
140972,109749
141009,109725
141043,109805
141046,109724
141052,109764
141033,109769
141063,109761
141118,109805
141086,109807
141106,109825
141099,109798
141143,109813
141193,109830
141209,109814
141212,109806
141214,109822
141207,109857
141274,109820
141278,109848
141301,109883
141297,109866
141336,109859
141415,109920
141445,109925
141492,109923
141487,109953
141537,109947
141626,110008
141631,109990
141654,109980
141732,109996
141708,110000
141805,110065
141787,110076
141836,110053
141839,110068
141868,110026
141828,110076
141848,110050
141889,110066
141890,110061
141893,110068
141927,110060
141914,110062
141934,110070
141932,110074
141984,110060
142006,110057
142038,110110
142052,110080
142082,110129
142070,110105
142114,110132
142140,110117
142177,110109
142178,110120
142237,110193
142283,110178
142279,110194
142317,110177
142371,110222
142361,110222
142400,110232
142362,110186
142373,110179
142297,110198
142209,110112
142134,110104
142020,110044
141903,109984
141777,109933
141658,109863
141548,109835
141412,109792
141249,109713
141183,109670
141012,109678
140916,109591
140804,109544
140661,109509
140563,109510
140452,109414
140391,109398
140270,109402
140213,109332
140116,109344
140076,109310
139988,109287
139950,109242
139881,109236
139863,109235
139818,109221
139808,109186
139792,109200
139732,109163
139762,109210
139726,109187
139777,109166
139798,109211
139782,109176
139821,109211
139869,109231
139910,109262
139884,109257
139985,109272
140023,109295
140012,109294
140046,109309
140064,109331
140114,109315
140141,109347
140196,109356
140200,109381
140267,109395
140261,109375
140325,109414
140375,109412
140445,109440
140463,109461
140501,109463
140587,109501
140621,109509
140658,109524
140682,109577
140736,109564
140779,109591
140820,109627
140853,109605
140893,109600
140855,109620
140883,109612
140904,109600
140918,109610
140900,109621
140886,109617
140922,109594
140958,109613
140941,109623
140973,109611
140971,109628
140967,109647
141005,109624
141050,109662
141029,109662
141028,109656
141010,109670
141045,109641
141075,109678
141034,109632
140995,109634
141071,109657
141016,109635
141031,109632
141004,109646
141044,109631
141050,109631
141057,109626
141043,109632
141078,109668
141047,109637
141057,109650
141100,109664
141075,109661
141092,109654
141116,109648
141103,109693
141121,109672
141116,109665
141132,109640
141150,109659
141163,109685
141207,109665
141183,109675
141247,109700
141256,109704
141242,109739
141298,109706
141332,109756
141351,109729
141391,109742
141419,109795
141461,109806
141472,109782
141528,109786
141527,109806
141601,109832
141596,109852
141654,109849
141641,109843
141666,109835
141706,109861
141746,109911
141753,109888
141762,109907
141758,109912
141810,109884
141833,109906
141878,109941
141879,109902
141914,109930
141928,109960
141968,109948
142003,109975
141999,109972
142022,109989
142028,109986
142092,109986
142104,110001
142131,109999
142141,110025
142160,110020
142165,110043
142186,110037
142226,110041
142234,110047
142270,110054
142271,110048
142352,110087
142310,110082
142342,110077
142373,110102
142349,110081
142301,110077
142270,110018
142198,109993
142104,109977
142043,109938
141907,109878
141793,109835
141717,109794
141569,109739
141492,109681
141366,109636
141229,109611
141123,109557
141023,109508
140918,109483
140786,109468
140641,109409
140560,109365
140472,109345
140347,109299
140281,109220
140202,109233
140083,109201
140104,109173
140014,109156
139985,109138
139929,109110
139926,109125
139923,109122
139898,109119
139868,109107
139877,109097
139857,109115
139909,109102
139861,109119
139911,109128
139911,109124
139918,109105
139957,109131
139977,109138
139980,109146
139987,109161
140026,109167
140088,109185
140109,109194
140128,109184
140170,109221
140229,109229
140235,109220
140309,109246
140321,109303
140369,109297
140403,109302
140494,109357
140527,109377
140604,109364
140611,109385
140674,109393
140694,109431
140732,109427
140790,109458
140806,109432
140828,109451
140847,109474
140858,109469
140852,109420
140843,109447
140923,109488
140890,109467
140886,109484
140926,109445
140896,109449
140901,109476
140915,109474
140918,109459
140937,109485
140914,109449
140887,109452
140935,109484
140908,109460
140881,109460
140893,109485
140916,109457
140882,109459
140934,109478
140918,109446
140856,109462
140911,109432
140865,109436
140888,109439
140856,109422
140861,109425
140876,109424
140855,109443
140853,109418
140889,109447
140871,109448
140867,109431
140864,109427
140918,109444
140913,109446
140937,109458
140987,109445
141037,109504
140998,109501
141025,109480
141087,109530
141106,109547
141110,109535
141164,109532
141181,109567
141191,109545
141196,109575
141175,109550
141228,109536
141253,109578
141237,109560
141294,109579
141306,109596
141299,109594
141317,109567
141368,109602
141356,109611
141414,109647
141439,109607
141514,109670
141497,109653
141535,109683
141568,109670
141633,109672
141642,109718
141667,109712
141699,109724
141752,109748
141776,109730
141801,109747
141813,109769
141855,109792
141876,109786
141884,109782
141991,109855
141974,109821
142033,109845
142097,109875
142069,109887
142136,109873
142153,109884
142175,109926
142213,109918
142267,109916
142272,109959
142304,109934
142347,109956
142337,109965
142386,109947
142361,109974
142382,109977
142443,110000
142457,110002
142445,110022
142433,109959
142453,109967
142361,109988
142322,109931
142239,109897
142183,109880
142058,109811
141999,109775
141890,109724
141761,109688
141621,109616
141543,109601
141428,109524
141336,109500
141236,109463
141082,109411
141001,109356
140929,109336
140829,109305
140774,109297
140671,109249
140563,109218
140537,109184
140482,109177
140432,109156
140351,109143
140343,109154
140319,109106
140290,109131
140267,109086
140227,109087
140228,109088
140228,109089
140236,109087
140181,109101
140208,109082
140219,109097
140226,109114
140213,109097
140276,109088
140279,109145
140295,109114
140352,109171
140344,109175
140431,109175
140449,109200
140507,109233
140538,109222
140584,109230
140690,109281
140700,109295
140755,109316
140839,109340
140902,109351
140930,109409
140978,109379
141010,109444
141066,109431
141127,109470
141188,109465
141181,109478
141217,109487
141274,109523
141289,109529
141350,109511
141364,109522
141411,109579
141384,109538
141411,109552
141453,109581
141432,109546
141480,109540
141467,109567
141432,109560
141468,109566
141452,109573
141441,109544
141472,109561
141450,109579
141480,109563
141456,109545
141441,109521
141447,109545
141496,109564
141497,109524
141478,109540
141464,109547
141501,109531
141478,109539
141508,109550
141445,109523
141479,109514
141506,109565
141470,109544
141446,109529
141464,109539
141511,109547
141495,109536
141532,109552
141588,109561
141580,109545
141629,109596
141623,109562
141662,109600
141663,109589
141663,109593
141742,109610
141717,109626
141791,109649
141803,109674
141799,109665
141852,109632
141859,109685
141908,109700
141886,109686
141901,109671
141995,109730
141963,109728
142053,109739
142045,109758
142073,109775
142085,109783
142126,109764
142212,109767
142223,109798
142238,109819
142294,109842
142271,109835
142323,109810
142377,109884
142378,109868
142410,109854
142421,109903
142457,109879
142512,109915
142525,109920
142544,109899
142603,109944
142634,109945
142631,109951
142686,109939
142727,110007
142772,109997
142741,110009
142792,109997
142788,110000
142839,110026
142876,110024
142855,110027
142883,110051
142872,110037
142925,110038
142963,110052
142944,110065
143001,110060
142987,110062
142999,110083
142992,110070
143027,110064
143050,110106
143026,110097
143137,110116
143149,110134
143194,110134
143275,110173
143244,110180
143287,110178
143266,110181
143255,110122
143193,110120
143072,110053
142954,109991
142814,109975
142651,109889
142525,109802
142386,109754
142225,109718
142116,109650
141989,109614
141845,109554
141760,109484
141669,109506
141555,109447
141509,109423
141432,109363
141356,109372
141275,109341
141199,109300
141188,109318
141111,109265
141088,109272
141100,109263
141062,109278
140983,109252
141027,109242
140996,109269
141004,109212
141033,109257
141065,109259
141033,109296
141092,109250
141097,109292
141106,109310
141119,109272
141147,109288
141183,109296
141199,109342
141237,109335
141283,109343
141299,109365
141308,109392
141330,109397
141338,109367
141439,109433
141442,109431
141494,109435
141580,109485
141580,109490
141669,109495
141719,109536
141779,109569
141820,109575
141907,109599
141971,109624
141993,109649
142042,109680
142061,109649
142110,109674
142107,109681
142158,109714
142113,109709
142150,109711
142144,109721
142152,109715
142147,109685
142163,109687
142149,109704
142163,109669
142082,109670
142104,109667
142100,109630
142115,109681
142062,109664
142051,109645
142078,109644
142090,109658
142088,109643
142076,109616
142097,109675
142063,109635
142063,109610
142042,109636
142065,109622
142032,109618
142018,109620
142020,109613
142065,109650
142021,109638
142027,109594
142051,109608
142058,109638
142095,109645
142073,109643
142101,109644
142047,109641
142075,109622
142134,109661
142125,109620
142141,109640
142122,109636
142203,109673
142216,109665
142175,109701
142208,109700
142259,109668
142261,109704
142264,109682
142293,109684
142346,109730
142357,109750
142354,109696
142385,109756
142431,109760
142466,109790
142472,109780
142523,109796
142580,109810
142607,109838
142627,109819
142678,109832
142684,109869
142775,109892
142755,109886
142795,109906
142807,109886
142894,109946
142875,109917
142925,109955
142936,109945
142964,109969
143012,109950
143050,110003
143033,109971
143089,109988
143125,110020
143181,110032
143162,110059
143173,110026
143261,110069
143243,110044
143299,110093
143264,110076
143335,110067
143353,110112
143350,110083
143386,110095
143408,110115
143479,110132
143482,110175
143487,110141
143554,110179
143526,110181
143570,110165
143595,110207
143608,110190
143558,110184
143562,110160
143535,110148
143452,110082
143358,110046
143214,110024
143085,109936
142943,109887
142786,109826
142654,109758
142538,109739
142403,109686
142306,109598
142168,109583
142049,109515
142009,109487
141873,109439
141822,109445
141747,109408
141656,109390
141597,109358
141557,109327
141504,109312
141431,109298
141389,109266
141344,109271
141366,109265
141293,109250
141327,109266
141280,109264
141287,109244
141309,109252
141321,109233
141299,109251
141330,109272
141383,109292
141367,109290
141420,109306
141459,109316
141501,109347
141535,109349
141566,109378
141598,109335
141588,109371
141624,109369
141658,109378
141720,109457
141740,109453
141777,109427
141810,109471
141905,109491
141949,109498
141992,109524
141993,109533
142059,109535
142163,109585
142213,109596
142220,109624
142269,109623
142352,109652
142381,109668
142434,109692
142431,109689
142488,109703
142495,109743
142519,109719
142521,109742
142553,109728
142523,109728
142547,109713
142556,109728
142542,109745
142509,109718
142514,109749
142511,109681
142504,109741
142518,109721
142526,109713
142489,109722
142459,109697
142472,109669
142433,109688
142428,109660
142425,109679
142394,109673
142402,109649
142387,109634
142390,109616
142361,109636
142341,109636
142364,109653
142373,109635
142386,109641
142332,109645
142367,109628
142394,109639
142391,109643
142386,109646
142398,109629
142377,109630
142403,109622
142440,109652
142432,109661
142445,109658
142459,109667
142504,109684
142510,109712
142543,109683
142575,109698
142570,109703
142657,109735
142647,109783
142698,109758
142690,109761
142751,109790
142751,109803
142785,109766
142818,109808
142831,109777
142842,109793
142863,109839
142860,109804
142910,109835
142884,109859
142906,109802
142944,109818
142917,109846
142945,109825
142938,109833
142979,109851
142978,109883
142989,109832
143009,109870
143025,109856
143044,109902
143060,109878
143114,109879
143127,109918
143128,109902
143157,109934
143192,109923
143239,109925
143249,109970
143226,109948
143290,109964
143311,109965
143329,109988
143299,109976
143313,109985
143359,109966
143389,110003
143369,109987
143400,109986
143351,109969
143348,109992
143295,109951
143250,109893
143150,109871
143018,109828
142882,109746
142765,109683
142629,109669
142509,109585
142371,109544
142227,109522
142109,109436
142030,109385
141929,109384
141811,109318
141736,109284
141696,109285
141600,109256
141524,109211
141445,109211
141420,109168
141343,109194
141316,109139
141276,109135
141240,109102
141229,109114
141211,109124
141164,109128
141129,109096
141124,109073
141144,109114
141153,109104
141146,109073
141152,109097
141192,109112
141166,109100
141225,109108
141262,109142
141295,109130
141296,109166
141316,109150
141336,109190
141387,109178
141414,109181
141413,109204
141512,109224
141493,109261
141561,109259
141562,109290
141569,109248
141633,109281
141708,109301
141704,109307
141781,109312
141830,109351
141837,109374
141901,109388
141950,109398
141974,109405
142003,109452
142036,109425
142066,109446
142101,109469
142102,109484
142138,109467
142142,109496
142161,109494
142170,109472
142212,109489
142162,109493
142205,109511
142188,109504
142210,109467
142187,109489
142152,109493
142167,109468
142117,109447
142161,109469
142146,109480
142095,109458
142167,109456
142141,109460
142101,109444
142102,109431
142111,109444
142107,109466
142099,109451
142066,109427
142117,109452
142075,109418
142095,109441
142119,109443
142088,109419
142094,109427
142117,109439
142120,109439
142137,109444
142160,109432
142167,109443
142188,109477
142242,109474
142276,109505
142274,109513
142270,109505
142313,109485
142341,109539
142362,109548
142367,109530
142379,109517
142383,109552
142393,109517
142452,109560
142385,109542
142417,109541
142509,109579
142473,109581
142489,109573
142558,109598
142572,109606
142580,109589
142669,109631
142640,109658
142675,109637
142696,109649
142744,109661
142770,109699
142762,109692
142816,109674
142791,109687
142812,109672
142868,109672
142868,109722
142870,109719
142893,109701
142914,109730
142938,109714
142928,109756
142967,109739
142996,109731
143009,109759
143023,109774
143109,109805
143117,109784
143139,109773
143205,109844
143224,109860
143222,109824
143247,109862
143255,109856
143220,109824
143199,109823
143155,109809
143057,109766
142950,109685
142860,109633
142691,109592
142523,109519
142380,109454
142237,109378
142106,109340
142009,109302
141839,109253
141730,109177
141638,109164
141500,109081
141429,109096
141276,109029
141234,109007
141149,108964
141031,108936
140973,108921
140886,108920
140833,108883
140791,108844
140728,108847
140704,108827
140669,108808
140661,108802
140625,108815
140589,108789
140615,108780
140615,108786
140604,108812
140596,108801
140599,108792
140629,108785
140640,108830
140637,108814
140647,108803
140671,108815
140684,108829
140682,108837
140690,108839
140730,108814
140761,108866
140821,108872
140788,108898
140839,108888
140916,108922
140942,108950
140954,108946
141036,108937
141077,108976
141134,108993
141210,109039
141272,109067
141328,109057
141362,109097
141409,109140
141412,109129
141452,109120
141543,109143
141531,109159
141555,109151
141576,109178
141591,109179
141634,109164
141614,109173
141656,109186
141654,109209
141671,109171
141693,109229
141645,109209
141670,109179
141662,109197
141700,109207
141681,109206
141647,109194
141713,109179
141683,109197
141710,109215
141705,109172
141685,109179
141673,109207
141661,109168
141702,109157
141685,109190
141666,109179
141665,109152
141672,109180
141657,109150
141665,109138
141677,109152
141627,109170
141677,109172
141674,109189
141681,109174
141709,109179
141695,109162
141718,109195
141733,109191
141775,109198
141765,109216
141744,109207
141778,109211
141830,109228
141865,109262
141863,109272
141915,109247
141950,109299
142013,109300
142055,109303
142097,109332
142089,109319
142174,109342
142178,109371
142228,109354
142202,109380
142275,109410
142289,109407
142307,109421
142330,109427
142350,109417
142354,109446
142418,109426
142419,109444
142476,109465
142478,109468
142495,109467
142543,109491
142601,109511
142602,109524
142680,109556
142705,109548
142715,109571
142773,109593
142808,109588
142779,109593
142837,109617
142845,109620
142881,109606
142909,109636
142903,109624
142961,109646
142999,109644
143033,109702
143056,109681
143028,109677
143097,109685
143121,109706
143096,109675
143116,109683
143111,109687
143072,109681
143000,109646
142941,109591
142822,109552
142684,109501
142489,109396
142361,109339
142228,109303
142054,109222
141901,109177
141758,109110
141615,109057
141488,108978
141369,108935
141207,108898
141089,108880
141019,108823
140917,108774
140801,108749
140728,108679
140636,108726
140578,108682
140503,108649
140459,108653
140380,108600
140365,108604
140312,108592
140331,108598
140276,108598
140228,108542
140264,108584
140243,108555
140245,108562
140274,108564
140222,108537
140283,108580
140293,108561
140288,108576
140341,108607
140341,108580
140335,108583
140381,108637
140366,108574
140452,108629
140428,108647
140466,108643
140508,108668
140531,108650
140547,108681
140573,108649
140618,108678
140669,108715
140654,108734
140692,108728
140730,108753
140788,108750
140872,108812
140910,108812
140963,108835
141017,108846
141016,108879
141049,108876
141128,108896
141116,108902
141143,108914
141194,108906
141170,108922
141195,108899
141228,108915
141214,108920
141231,108944
141266,108941
141253,108956
141255,108956
141243,108926
141249,108942
141241,108926
141263,108928
141232,108923
141221,108885
141243,108915
141257,108906
141226,108926
141202,108879
141200,108906
141150,108861
141194,108855
141131,108898
141155,108876
141123,108882
141173,108887
141154,108907
141153,108839
141147,108884
141188,108860
141185,108877
141156,108904
141183,108854
141241,108904
141199,108895
141220,108902
141264,108889
141285,108946
141266,108910
141273,108921
141316,108948
141351,108921
141379,108968
141389,108984
141410,108940
141430,109001
141441,109005
141458,109006
141515,109032
141503,109023
141536,109019
141603,109024
141595,109062
141644,109054
141655,109033
141712,109101
141680,109104
141728,109067
141744,109090
141732,109098
141768,109104
141822,109098
141843,109119
141842,109099
141879,109146
141900,109140
141916,109174
141973,109147
141989,109168
141994,109168
142054,109201
142060,109197
142122,109203
142113,109217
142121,109221
142211,109248
142227,109244
142246,109278
142246,109283
142317,109282
142382,109341
142390,109332
142442,109356
142439,109347
142515,109387
142493,109385
142559,109359
142598,109387
142595,109396
142521,109402
142541,109368
142514,109353
142400,109315
142275,109221
142141,109188
142038,109151
141869,109046
141763,109010
141572,108953
141442,108881
141357,108875
141190,108813
141084,108729
140964,108715
140834,108668
140764,108606
140689,108597
140604,108565
140481,108546
140401,108501
140361,108502
140322,108472
140263,108435
140212,108452
140159,108419
140095,108389
140116,108388
140092,108383
140050,108408
140037,108388
140017,108381
140030,108348
140018,108371
140021,108388
140020,108371
140015,108382
140030,108383
140095,108404
140072,108349
140075,108386
140111,108389
140126,108411
140140,108436
140167,108397
140208,108423
140208,108445
140230,108421
140294,108457
140305,108472
140358,108514
140436,108549
140458,108520
140492,108567
140559,108582
140603,108615
140641,108624
140709,108618
140771,108662
140773,108657
140825,108699
140886,108733
140876,108715
140902,108694
140919,108700
140964,108727
141009,108726
141052,108747
141017,108763
141008,108739
141039,108748
141016,108750
141057,108760
141041,108771
141020,108727
141043,108759
141039,108750
141036,108748
140987,108725
140989,108700
140969,108721
140971,108690
140970,108693
140931,108711
140923,108682
140911,108699
140917,108670
140909,108706
140885,108668
140928,108661
140900,108665
140963,108691
140953,108693
140957,108688
140929,108702
140952,108702
141013,108704
141013,108728
140995,108719
141013,108701
140994,108721
141047,108730
141071,108739
141064,108758
141093,108689
141120,108781
141165,108783
141155,108792
141175,108737
141152,108808
141196,108818
141235,108800
141263,108823
141277,108824
141289,108776
141313,108845
141324,108816
141361,108825
141401,108839
141361,108872
141415,108854
141467,108868
141501,108921
141486,108900
141529,108891
141573,108937
141599,108940
141648,108942
141704,108960
141702,108960
141753,109002
141762,109023
141773,109011
141815,109008
141833,109047
141873,109053
141920,109066
141939,109059
141996,109085
141973,109098
141996,109067
142075,109121
142094,109127
142122,109104
142140,109139
142165,109167
142180,109140
142233,109182
142248,109194
142259,109192
142300,109173
142410,109256
142349,109231
142414,109217
142400,109250
142477,109251
142465,109233
142467,109268
142403,109230
142343,109218
142277,109173
142235,109119
142102,109076
141932,109041
141799,108932
141686,108927
141502,108864
141375,108800
141232,108693
141147,108687
141008,108669
140898,108579
140792,108543
140720,108507
140572,108491
140484,108450
140444,108395
140356,108385
140280,108367
140236,108325
140178,108361
140113,108275
140103,108279
140034,108289
140041,108281
140037,108287
140017,108280
140014,108250
140009,108286
140009,108248
140024,108292
140016,108284
140028,108290
140052,108304
140069,108296
140123,108296
140167,108339
140115,108323
140167,108333
140189,108322
140256,108360
140240,108382
140239,108373
140242,108374
140268,108364
140359,108389
140351,108441
140364,108409
140419,108434
140437,108459
140481,108449
140542,108470
140578,108479
140605,108481
140648,108541
140705,108499
140793,108564
140765,108599
140820,108574
140855,108639
140885,108607
140923,108600
140972,108630
140941,108639
140967,108646
141032,108668
141026,108661
141021,108658
141031,108654
141039,108657
141043,108653
141048,108644
141031,108647
140980,108635
140982,108625
140980,108619
140984,108610
140980,108608
140936,108616
140945,108586
140928,108601
140967,108602
140943,108612
140924,108586
140920,108597
140931,108614
140958,108595
140922,108570
140936,108581
140954,108581
140988,108604
140977,108608
141012,108624
140980,108601
140995,108601
141007,108662
141050,108623
141022,108654
141020,108631
141065,108658
141117,108637
141093,108673
141143,108669
141185,108697
141196,108704
141230,108707
141280,108737
141340,108749
141362,108765
141369,108759
141461,108784
141488,108804
141532,108814
141518,108830
141565,108833
141624,108864
141623,108846
141700,108851
141681,108869
141753,108915
141743,108922
141782,108936
141779,108900
141829,108964
141852,108927
141857,108974
141912,108965
141920,108941
142008,109020
141997,108999
142032,109013
142078,109049
142056,109049
142098,109032
142094,109034
142139,109053
142149,109049
142195,109052
142177,109069
142216,109073
142225,109072
142248,109079
142274,109129
142300,109093
142313,109134
142390,109156
142377,109141
142402,109132
142414,109158
142465,109170
142500,109184
142495,109168
142521,109184
142536,109165
142579,109181
142559,109225
142523,109192
142484,109175
142458,109109
142387,109107
142242,109058
142145,108998
142002,108908
141881,108873
141738,108833
141580,108745
141473,108746
141322,108652
141156,108592
141089,108558
140970,108543
140840,108497
140759,108430
140595,108408
140560,108365
140467,108350
140364,108292
140331,108278
140246,108256
140218,108245
140125,108208
140125,108203
140071,108197
140065,108181
140053,108216
140069,108179
140076,108197
140064,108242
140046,108206
140099,108187
140126,108222
140118,108229
140137,108237
140150,108217
140175,108260
140185,108258
140222,108260
140209,108269
140231,108270
140249,108251
140281,108276
140296,108303
140276,108292
140304,108319
140380,108303
140424,108343
140459,108366
140421,108351
140510,108373
140509,108413
140617,108401
140674,108423
140686,108474
140717,108451
140775,108498
140860,108491
140895,108569
140921,108515
140985,108560
141016,108615
141072,108579
141072,108593
141110,108626
141104,108617
141141,108620
141126,108630
141151,108604
141113,108597
141090,108562
141104,108608
141071,108565
141081,108583
141036,108567
141037,108568
141058,108577
141010,108557
141007,108545
141017,108560
140987,108552
141024,108529
141019,108548
140985,108574
140991,108520
141007,108540
141008,108509
141024,108539
141029,108564
140997,108504
141044,108530
141032,108567
141049,108577
141057,108554
141077,108571
141021,108552
141117,108574
141087,108557
141124,108575
141119,108602
141133,108599
141186,108577
141209,108620
141172,108601
141220,108642
141197,108627
141275,108658
141261,108650
141298,108638
141332,108674
141358,108675
141417,108685
141455,108719
141456,108733
141457,108693
141482,108730
141530,108737
141600,108760
141597,108762
141649,108787
141646,108787
141677,108768
141708,108792
141693,108816
141741,108824
141752,108805
141757,108869
141801,108815
141800,108840
141804,108814
141850,108850
141822,108868
141820,108847
141882,108869
141868,108840
141848,108873
141897,108894
141882,108867
141940,108867
141927,108875
141967,108896
141994,108896
142019,108918
142037,108907
142065,108961
142053,108960
142146,108947
142174,108980
142204,108972
142191,108981
142208,108977
142283,109029
142244,109023
142320,109021
142320,109026
142333,109060
142326,109013
142354,109015
142380,109037
142393,109028
142398,109064
142395,109029
142373,109024
142328,109026
142269,108971
142200,108964
142086,108929
142021,108884
141850,108794
141740,108755
141592,108674
141514,108699
141373,108635
141232,108593
141102,108507
140974,108458
140945,108422
140818,108397
140711,108362
140584,108307
140562,108283
140479,108277
140436,108259
140395,108230
140316,108221
140234,108213
140258,108174
140195,108189
140190,108177
140204,108178
140165,108185
140202,108158
140186,108167
140211,108187
140194,108194
140236,108207
140236,108197
140255,108215
140307,108225
140346,108220
140375,108253
140387,108245
140426,108243
140477,108323
140483,108275
140483,108319
140574,108327
140618,108350
140633,108374
140683,108339
140728,108378
140788,108417
140782,108442
140885,108491
140871,108453
140990,108468
141003,108507
141066,108546
141105,108551
141159,108540
141156,108587
141200,108561
141252,108584
141218,108593
141199,108591
141310,108597
141301,108639
141261,108617
141324,108617
141300,108608
141322,108622
141329,108639
141303,108626
141312,108604
141307,108601
141318,108607
141277,108635
141282,108566
141301,108613
141240,108582
141243,108559
141236,108582
141251,108582
141181,108536
141190,108535
141191,108533
141162,108537
141125,108529
141155,108503
141122,108515
141102,108534
141099,108513
141098,108499
141144,108501
141120,108525
141123,108536
141124,108526
141128,108502
141153,108519
141161,108505
141185,108524
141222,108533
141227,108571
141253,108536
141269,108557
141316,108595
141330,108601
141363,108595
141379,108612
141360,108629
141416,108617
141444,108639
141497,108658
141469,108650
141495,108634
141551,108698
141557,108694
141554,108677
141577,108705
141578,108692
141684,108738
141647,108722
141685,108704
141682,108745
141757,108760
141790,108742
141828,108770
141839,108804
141836,108787
141871,108804
141909,108817
141970,108849
141966,108860
142014,108838
142018,108873
142075,108898
142122,108883
142117,108926
142141,108884
142184,108928
142195,108926
142208,108938
142248,108921
142257,108945
142228,108953
142277,108938
142304,108932
142327,108957
142316,108946
142355,108991
142365,108972
142403,108991
142410,109005
142438,109000
142446,109028
142470,109005
142510,109038
142552,109037
142552,109028
142534,109054
142603,109078
142587,109064
142586,109065
142542,109025
142521,109012
142456,109011
142411,108973
142282,108921
142127,108826
141990,108789
141871,108741
141742,108700
141591,108613
141448,108564
141339,108508
141190,108488
141065,108437
141010,108378
140870,108387
140788,108324
140726,108292
140679,108277
140593,108230
140493,108211
140462,108206
140435,108186
140407,108180
140337,108185
140310,108164
140250,108149
140301,108146
140309,108166
140216,108130
140245,108164
140225,108126
140270,108142
140284,108139
140263,108167
140264,108151
140311,108144
140328,108195
140337,108146
140402,108203
140386,108192
140418,108228
140448,108212
140455,108256
140502,108248
140550,108259
140576,108267
140624,108299
140640,108317
140680,108289
140722,108324
140754,108356
140778,108347
140794,108356
140877,108402
140853,108394
140938,108391
141015,108431
141056,108504
141058,108441
141101,108476
141146,108483
141195,108531
141194,108536
141252,108516
141239,108532
141251,108541
141316,108546
141264,108529
141308,108551
141289,108539
141279,108537
141303,108527
141297,108542
141248,108510
141270,108520
141231,108495
141241,108494
141205,108503
141203,108493
141150,108492
141116,108482
141114,108445
141117,108430
141065,108440
141084,108434
141094,108426
141088,108453
141028,108433
141068,108417
141055,108407
141017,108425
141062,108419
141055,108472
141048,108420
141125,108457
141128,108472
141119,108457
141132,108443
141150,108497
141171,108475
141194,108475
141181,108483
141228,108462
141252,108507
141289,108509
141281,108518
141352,108528
141346,108538
141380,108575
141385,108600
141454,108592
141488,108622
141485,108597
141519,108614
141546,108620
141617,108663
141629,108657
141624,108611
141659,108698
141674,108637
141692,108664
141709,108693
141759,108669
141803,108719
141783,108717
141851,108705
141866,108743
141845,108754
141858,108735
141891,108723
141966,108783
141964,108761
141950,108782
142004,108790
141977,108767
142039,108802
142039,108833
142063,108829
142108,108813
142092,108816
142137,108850
142156,108854
142204,108853
142196,108860
142233,108893
142265,108878
142320,108901
142307,108927
142346,108892
142379,108939
142415,108968
142475,108965
142505,108974
142505,108988
142548,108978
142592,109000
142669,109045
142672,109038
142671,109078
142637,109004
142719,109056
142693,109020
142675,109026
142551,108973
142493,108909
142362,108921
142233,108822
142097,108760
141904,108698
141692,108630
141631,108582
141514,108548
141370,108458
141202,108417
141080,108375
140984,108311
140887,108274
140782,108270
140699,108215
140589,108156
140554,108168
140441,108146
140400,108089
140353,108090
140283,108072
140248,108052
140211,108072
140202,108085
140146,108042
140177,108005
140162,108081
140139,108065
140213,108083
140195,108083
140256,108065
140237,108117
140273,108069
140288,108087
140317,108106
140299,108117
140355,108098
140424,108133
140410,108180
140419,108152
140449,108152
140534,108197
140557,108219
140532,108186
140601,108222
140633,108242
140703,108269
140718,108296
140745,108274
140808,108329
140827,108308
140859,108337
140947,108375
140970,108388
141032,108363
141079,108417
141088,108428
141149,108445
141161,108456
141142,108444
141175,108427
141223,108486
141223,108475
141213,108502
141214,108442
141226,108480
141244,108472
141226,108462
141224,108453
141186,108422
141186,108399
141235,108433
141152,108444
141153,108375
141136,108410
141139,108395
141109,108377
141125,108405
141087,108371
141077,108378
141043,108377
141084,108360
141059,108337
141047,108351
141051,108351
141012,108364
141039,108363
141012,108359
141063,108355
141048,108376
141017,108341
141061,108355
141084,108376
141062,108352
141100,108388
141086,108378
141108,108390
141177,108415
141174,108387
141167,108410
141186,108433
141167,108439
141213,108411
141225,108430
141255,108444
141302,108452
141344,108460
141373,108497
141375,108473
141414,108480
141428,108500
141482,108530
141487,108539
141498,108566
141509,108541
141587,108560
141575,108589
141621,108605
141624,108573
141640,108586
141714,108655
141695,108638
141750,108629
141801,108652
141774,108651
141861,108674
141892,108712
141893,108687
141928,108718
141933,108731
141972,108737
142043,108738
142037,108737
142092,108741
142087,108762
142163,108768
142167,108789
142190,108822
142206,108853
142216,108798
142244,108835
142330,108850
142339,108860
142403,108869
142424,108908
142456,108901
142518,108911
142602,108968
142594,108966
142636,108945
142683,109022
142695,108993
142736,108980
142748,109026
142741,109038
142754,109010
142766,109004
142802,109035
142736,109025
142735,108986
142753,108975
142751,108988
142675,108988
142612,108936
142537,108900
142461,108852
142334,108850
142168,108721
142061,108694
141840,108639
141722,108562
141577,108506
141407,108444
141277,108393
141192,108331
141074,108300
140951,108278
140832,108231
140764,108194
140645,108159
140570,108114
140491,108084
140412,108078
140361,108026
140272,107994
140274,108010
140213,108007
140155,107983
140104,107963
140123,107955
140120,107963
140149,107992
140114,107945
140132,107993
140124,108005
140143,108003
140166,107978
140238,108039
140207,108037
140255,108023
140293,108034
140330,108075
140351,108054
140362,108090
140409,108082
140429,108108
140464,108101
140510,108118
140528,108130
140532,108160
140588,108141
140633,108159
140656,108168
140697,108188
140744,108181
140801,108239
140843,108280
140892,108274
140894,108288
140984,108340
141033,108349
141033,108335
141102,108373
141150,108378
141136,108389
141167,108418
141191,108386
141239,108447
141204,108420
141206,108422
141240,108416
141250,108396
141263,108404
141246,108407
141220,108406
141262,108380
141241,108401
141241,108367
141202,108368
141184,108404
141182,108362
141178,108343
141161,108364
141130,108355
141161,108349
141159,108347
141117,108343
141124,108348
141125,108325
141075,108320
141127,108339
141119,108328
141089,108315
141049,108308
141094,108320
141092,108326
141096,108336
141113,108337
141085,108323
141126,108349
141149,108332
141139,108363
141180,108348
141189,108362
141217,108368
141245,108379
141283,108396
141276,108401
141310,108385
141329,108445
141361,108452
141421,108445
141434,108442
141465,108485
141427,108460
141494,108472
141576,108520
141568,108518
141568,108503
141619,108520
141645,108532
141701,108562
141727,108592
141739,108564
141758,108603
141799,108592
141805,108603
141864,108624
141917,108635
141913,108641
141973,108661
142024,108671
142075,108703
142089,108727
142131,108707
142183,108754
142182,108747
142226,108771
142265,108755
142303,108807
142347,108782
142365,108846
142389,108806
142418,108836
142444,108836
142492,108873
142510,108880
142518,108880
142519,108855
142548,108882
142610,108880
142565,108882
142630,108888
142634,108885
142629,108917
142725,108946
142732,108923
142748,108930
142798,108959
142781,108938
142864,108994
142882,108987
142920,109005
142872,109022
142939,109013
142966,109025
142919,108987
142948,109003
142838,109001
142787,108928
142690,108913
142576,108846
142395,108775
142245,108717
142071,108615
141897,108550
141731,108479
141587,108421
141402,108395
141287,108308
141141,108264
141064,108226
140912,108183
140853,108154
140723,108094
140681,108089
140560,108054
140483,108011
140445,107998
140413,107975
140336,107984
140271,107954
140254,107930
140216,107938
140218,107922
140188,107934
140197,107902
140159,107925
140215,107922
140210,107956
140253,107942
140264,107968
140317,107989
140324,107978
140387,108005
140412,108035
140448,108041
140493,108045
140524,108092
140585,108061
140642,108115
140635,108108
140686,108127
140710,108141
140782,108160
140776,108200
140827,108174
140926,108206
140942,108264
140983,108263
141064,108261
141124,108299
141154,108314
141174,108326
141281,108353
141371,108406
141365,108378
141434,108444
141483,108413
141516,108450
141547,108481
141554,108454
141545,108480
141608,108493
141606,108506
141610,108459
141606,108515
141602,108473
141629,108493
141635,108509
141619,108473
141619,108487
141603,108472
141572,108463
141556,108453
141573,108423
141525,108458
141491,108397
141471,108423
141453,108423
141460,108380
141448,108393
141447,108373
141378,108365
141391,108385
141418,108356
141398,108391
141351,108365
141387,108366
141412,108400
141412,108392
141392,108372
141376,108391
141382,108371
141383,108346
141452,108398
141421,108388
141488,108387
141447,108371
141490,108416
141483,108408
141541,108420
141547,108408
141582,108463
141555,108436
141602,108497
141625,108471
141669,108473
141673,108455
141752,108492
141748,108500
141792,108526
141808,108545
141804,108535
141877,108582
141857,108567
141885,108563
141951,108573
141910,108606
141943,108582
141976,108624
141989,108611
142033,108590
142043,108609
142059,108653
142127,108653
142132,108668
142175,108676
142198,108692
142222,108709
142258,108690
142298,108713
142313,108729
142323,108773
142396,108737
142435,108782
142442,108788
142462,108761
142482,108798
142526,108813
142535,108831
142552,108820
142570,108824
142609,108834
142657,108825
142652,108865
142634,108850
142705,108846
142709,108878
142746,108889
142770,108893
142774,108904
142782,108873
142856,108914
142907,108958
142893,108929
142941,108951
142891,108949
142884,108963
142912,108931
142881,108953
142834,108918
142729,108829
142617,108807
142529,108755
142328,108676
142180,108596
142013,108538
141829,108466
141695,108424
141530,108358
141438,108307
141281,108289
141168,108206
141089,108181
140961,108150
140881,108077
140801,108085
140708,108073
140659,108018
140592,108023
140554,107988
140489,107980
140491,107979
140465,107987
140424,107938
140427,107962
140380,107943
140383,107939
140431,107956
140387,107978
140409,107963
140415,107961
140453,108001
140518,107992
140521,107996
140554,108025
140580,108035
140597,108045
140667,108049
140719,108088
140760,108075
140773,108134
140812,108145
140867,108176
140928,108153
140907,108188
141001,108207
141060,108231
141099,108211
141135,108262
141217,108298
141246,108293
141300,108309
141395,108347
141444,108356
141444,108382
141548,108412
141556,108425
141620,108456
141689,108470
141698,108458
141735,108472
141761,108487
141803,108516
141783,108505
141791,108497
141796,108493
141803,108492
141781,108500
141785,108484
141739,108473
141741,108462
141699,108469
141698,108444
141648,108433
141617,108413
141600,108370
141545,108391
141532,108364
141509,108352
141514,108364
141453,108332
141435,108324
141447,108346
141439,108342
141375,108298
141382,108308
141389,108304
141426,108310
141382,108329
141365,108324
141354,108298
141414,108312
141420,108353
141433,108344
141409,108346
141445,108324
141473,108362
141497,108375
141514,108357
141572,108390
141581,108412
141624,108406
141647,108464
141689,108450
141677,108444
141703,108439
141741,108468
141764,108460
141784,108474
141772,108489
141777,108460
141813,108482
141873,108497
141862,108515
141925,108514
141922,108531
141905,108533
141972,108519
141985,108529
141992,108580
141983,108557
142020,108529
142088,108585
142062,108557
142092,108601
142075,108574
142159,108572
142163,108644
142184,108625
142186,108633
142249,108640
142311,108679
142323,108647
142368,108659
142379,108690
142421,108728
142465,108739
142516,108748
142548,108762
142581,108758
142619,108812
142650,108788
142716,108832
142733,108834
142750,108866
142771,108842
142847,108848
142868,108907
142880,108879
142908,108861
142916,108874
142935,108916
142925,108855
142901,108885
142823,108835
142734,108816
142616,108736
142498,108696
142288,108619
142153,108578
141944,108467
141806,108394
141640,108363
141503,108295
141365,108223
141224,108176
141130,108146
140993,108091
140920,108069
140807,108012
140720,107998
140676,107960
140644,107962
140530,107923
140516,107921
140447,107885
140476,107906
140405,107882
140432,107895
140366,107883
140407,107884
140366,107873
140428,107913
140400,107885
140411,107879
140387,107914
140440,107895
140490,107934
140495,107929
140534,107911
140531,107987
140561,107952
140609,107997
140639,107974
140647,107993
140701,108015
140766,108047
140783,108070
140834,108069
140882,108109
140890,108098
141020,108110
141045,108146
141103,108197
141154,108153
141189,108213
141243,108260
141315,108257
141356,108255
141405,108275
141422,108310
141482,108323
141536,108362
141562,108360
141554,108388
141607,108386
141672,108409
141687,108386
141717,108425
141691,108388
141720,108404
141757,108439
141764,108418
141712,108413
141666,108390
141664,108368
141665,108405
141619,108365
141646,108363
141553,108331
141548,108307
141586,108366
141551,108314
141482,108304
141469,108280
141492,108291
141453,108299
141445,108300
141465,108291
141408,108273
141421,108268
141458,108314
141426,108275
141430,108260
141435,108272
141414,108291
141403,108229
141434,108257
141457,108277
141429,108279
141444,108279
141500,108319
141511,108310
141511,108317
141530,108300
141595,108329
141607,108316
141658,108352
141676,108349
141717,108387
141737,108405
141785,108393
141793,108428
141823,108424
141843,108442
141877,108443
141946,108459
141939,108491
141959,108434
141939,108472
142023,108513
142035,108491
142058,108498
142068,108550
142090,108544
142135,108550
142165,108573
142203,108564
142267,108569
142252,108585
142297,108597
142373,108627
142349,108670
142368,108613
142402,108649
142439,108643
142448,108687
142489,108690
142488,108703
142532,108677
142593,108710
142612,108707
142633,108733
142666,108722
142694,108733
142752,108773
142766,108792
142807,108799
142824,108817
142848,108806
142895,108845
142900,108827
142920,108824
142964,108854
142960,108849
142931,108860
142926,108833
142924,108813
142832,108823
142753,108736
142626,108726
142452,108635
142340,108588
142123,108469
141923,108406
141796,108359
141596,108253
141427,108216
141293,108134
141147,108071
141052,108058
140924,107983
140819,107965
140719,107933
140602,107894
140525,107846
140496,107835
140416,107806
140338,107804
140321,107767
140251,107803
140249,107752
140233,107746
140201,107728
140213,107747
140219,107765
140208,107749
140254,107768
140279,107805
140296,107788
140306,107792
140368,107855
140345,107866
140396,107820
140447,107884
140491,107861
140509,107898
140563,107923
140591,107899
140641,107941
140653,107967
140713,107979
140719,108009
140777,107984
140849,108022
140870,108049
140927,108037
140977,108053
140988,108084
141056,108082
141133,108162
141179,108135
141251,108165
141291,108180
141348,108200
141437,108249
141479,108289
141538,108289
141578,108316
141641,108301
141722,108370
141770,108380
141768,108394
141744,108391
141753,108367
141791,108376
141787,108408
141807,108363
141795,108397
141752,108400
141746,108349
141751,108375
141744,108334
141680,108347
141637,108316
141648,108296
141630,108317
141589,108304
141574,108284
141519,108244
141550,108284
141527,108277
141478,108245
141447,108251
141478,108249
141462,108238
141444,108227
141510,108215
141429,108234
141448,108242
141492,108252
141474,108239
141475,108216
141493,108255
141479,108243
141465,108274
141485,108240
141505,108255
141515,108241
141568,108285
141565,108268
141627,108294
141628,108336
141629,108309
141697,108305
141733,108344
141740,108332
141748,108325
141808,108369
141859,108374
141867,108416
141932,108377
141946,108443
142001,108451
141992,108426
142052,108491
142075,108488
142105,108462
142106,108501
142153,108500
142198,108494
142232,108508
142212,108546
142242,108531
142290,108543
142298,108561
142340,108553
142317,108579
142385,108582
142367,108612
142419,108592
142455,108642
142465,108593
142493,108627
142531,108616
142566,108666
142607,108656
142607,108677
142590,108692
142646,108681
142696,108712
142672,108716
142738,108714
142743,108732
142772,108736
142842,108759
142816,108780
142840,108754
142857,108762
142914,108775
142914,108789
142920,108816
142929,108789
142954,108809
142914,108796
142845,108717
142747,108698
142615,108643
142447,108555
142221,108461
142054,108374
141848,108331
141655,108228
141485,108175
141297,108102
141141,108033
141054,107986
140911,107929
140755,107871
140654,107837
140552,107824
140468,107765
140381,107742
140292,107725
140247,107740
140201,107694
140159,107663
140088,107651
140073,107652
140036,107645
140002,107620
140034,107613
140002,107672
139967,107606
140023,107642
140047,107631
140009,107640
140081,107656
140084,107664
140079,107678
140134,107713
140166,107692
140235,107738
140266,107758
140292,107742
140348,107774
140425,107820
140402,107810
140474,107840
140501,107851
140555,107841
140599,107871
140640,107892
140634,107900
140687,107908
140757,107918
140774,107927
140838,107984
140832,107953
140951,108013
140984,108022
141022,108075
141081,108066
141153,108069
141213,108100
141268,108127
141313,108157
141366,108140
141410,108181
141393,108174
141474,108231
141452,108204
141524,108212
141489,108225
141471,108185
141530,108220
141467,108218
141493,108201
141400,108190
141413,108182
141403,108165
141422,108183
141380,108166
141352,108137
141354,108137
141359,108151
141319,108154
141336,108115
141300,108121
141326,108163
141305,108140
141285,108098
141297,108118
141271,108121
141315,108117
141303,108130
141283,108124
141283,108085
141300,108116
141301,108114
141357,108129
141305,108130
141331,108118
141339,108106
141330,108154
141357,108115
141346,108116
141355,108161
141350,108149
141403,108159
141464,108181
141479,108191
141505,108207
141522,108202
141582,108234
141632,108240
141624,108234
141662,108252
141705,108269
141775,108313
141796,108292
141880,108346
141864,108348
141887,108334
141948,108392
141957,108367
142031,108421
142043,108391
142026,108398
142073,108457
142110,108443
142125,108420
142160,108445
142171,108441
142190,108455
142253,108469
142263,108485
142301,108488
142287,108508
142358,108542
142366,108538
142397,108534
142444,108583
142475,108563
142491,108573
142579,108626
142579,108593
142598,108621
142641,108626
142712,108641
142723,108680
142750,108665
142804,108691
142851,108717
142862,108747
142896,108721
142946,108759
142946,108766
142923,108786
143020,108768
143002,108778
143043,108760
142990,108748
142894,108760
142835,108676
142708,108632
142572,108601
142341,108470
142190,108439
141980,108319
141832,108247
141590,108169
141430,108095
141296,108012
141185,108001
141023,107966
140893,107881
140745,107816
140686,107798
140570,107796
140485,107730
140419,107745
140350,107688
140299,107678
140242,107660
140231,107635
140174,107659
140137,107593
140144,107620
140133,107636
140125,107650
140167,107622
140173,107633
140167,107627
140202,107649
140254,107674
140247,107677
140311,107672
140297,107696
140384,107745
140394,107736
140468,107769
140476,107779
140544,107796
140587,107835
140650,107868
140715,107842
140716,107852
140826,107895
140886,107964
140883,107953
140954,107967
140954,107978
141033,107976
141076,108002
141156,108052
141192,108061
141219,108064
141287,108085
141378,108117
141405,108158
141452,108159
141479,108147
141560,108205
141606,108202
141636,108246
141670,108227
141658,108241
141702,108251
141726,108279
141741,108258
141746,108263
141740,108277
141722,108251
141780,108265
141718,108268
141707,108241
141687,108247
141683,108227
141665,108233
141666,108214
141611,108195
141599,108172
141570,108190
141564,108159
141502,108164
141526,108158
141489,108129
141504,108126
141513,108147
141475,108134
141483,108127
141463,108134
141481,108144
141508,108164
141475,108160
141521,108175
141509,108156
141525,108171
141542,108171
141565,108178
141593,108167
141567,108169
141606,108203
141661,108194
141638,108202
141717,108234
141729,108226
141714,108244
141821,108294
141827,108269
141846,108280
141857,108291
141944,108305
141921,108317
141989,108339
142011,108319
141991,108345
142023,108349
142084,108390
142088,108401
142100,108390
142118,108375
142159,108391
142220,108425
142204,108409
142247,108453
142296,108443
142311,108468
142399,108506
142418,108505
142488,108533
142518,108547
142565,108550
142644,108593
142661,108587
142692,108608
142713,108608
142750,108642
142849,108627
142828,108652
142888,108698
142902,108680
142920,108713
143017,108730
143011,108735
143074,108745
143069,108736
143132,108780
143174,108781
143191,108792
143220,108809
143231,108804
143300,108817
143338,108854
143296,108831
143343,108817
143362,108860
143352,108843
143397,108873
143350,108860
143380,108875
143339,108828
143254,108797
143199,108782
143049,108705
142851,108622
142680,108558
142468,108458
142267,108375
142077,108299
141870,108207
141662,108145
141553,108109
141420,108014
141238,107965
141150,107946
141023,107907
140939,107863
140860,107838
140782,107780
140651,107754
140635,107753
140590,107741
140543,107711
140500,107714
140430,107680
140428,107662
140448,107691
140403,107698
140382,107657
140396,107678
140387,107685
140434,107678
140407,107705
140441,107704
140464,107672
140535,107727
140559,107775
140594,107759
140651,107786
140710,107807
140757,107822
140803,107855
140827,107869
140869,107855
140920,107884
140924,107907
140974,107927
141070,107954
141076,107972
141101,107932
141181,108011
141254,108021
141338,108035
141387,108086
141444,108093
141502,108107
141585,108154
141611,108193
141686,108188
141773,108216
141753,108263
141831,108286
141859,108289
141895,108264
141933,108300
141920,108273
141990,108291
142012,108277
142027,108322
141980,108307
141986,108333
141984,108293
141974,108297
141975,108269
141967,108286
141898,108258
141916,108264
141892,108240
141839,108223
141824,108198
141757,108215
141765,108199
141714,108181
141710,108169
141678,108156
141648,108160
141671,108164
141679,108176
141626,108155
141629,108111
141668,108163
141652,108155
141686,108166
141697,108171
141647,108137
141709,108188
141704,108138
141684,108156
141698,108158
141689,108192
141714,108155
141750,108167
141759,108179
141753,108196
141807,108205
141822,108218
141894,108229
141937,108263
141989,108292
141989,108270
142083,108325
142105,108360
142174,108364
142216,108362
142297,108406
142296,108398
142380,108420
142406,108453
142407,108456
142430,108445
142447,108476
142510,108475
142512,108463
142561,108515
142552,108472
142561,108534
142602,108528
142663,108524
142703,108559
142682,108552
142757,108583
142768,108608
142819,108585
142808,108607
142854,108616
142868,108632
142916,108663
142934,108634
142940,108656
142933,108671
142986,108669
143004,108662
143031,108695
143033,108695
143033,108653
143074,108696
143136,108718
143136,108726
143183,108708
143199,108748
143272,108767
143259,108753
143328,108813
143339,108794
143396,108815
143398,108796
143441,108842
143452,108849
143472,108856
143442,108837
143485,108854
143502,108837
143456,108835
143384,108823
143271,108727
143177,108695
143040,108627
142827,108580
142578,108478
142380,108342
142221,108284
141968,108199
141803,108119
141657,108063
141456,108019
141305,107946
141234,107888
141075,107837
141007,107808
140829,107789
140772,107764
140714,107727
140673,107718
140572,107682
140526,107642
140514,107612
140484,107631
140451,107642
140408,107607
140394,107598
140422,107625
140431,107660
140421,107626
140420,107608
140458,107639
140523,107649
140543,107672
140591,107701
140593,107732
140614,107685
140698,107747
140717,107789
140743,107782
140793,107766
140850,107834
140905,107837
140942,107829
140970,107893
141067,107896
141046,107890
141106,107928
141204,107957
141229,107973
141271,107960
141298,108016
141374,108013
141438,108016
141498,108043
141579,108089
141600,108114
141675,108128
141764,108142
141796,108161
141848,108196
141885,108192
141947,108239
141983,108257
142035,108259
142100,108291
142090,108313
142162,108327
142213,108346
142249,108353
142207,108347
142237,108356
142213,108360
142219,108328
142217,108309
142192,108343
142139,108268
142136,108288
142093,108264
142018,108249
142003,108233
141911,108181
141909,108180
141843,108154
141816,108160
141767,108142
141747,108107
141708,108130
141739,108124
141697,108118
141688,108074
141663,108103
141689,108093
141681,108097
141660,108101
141687,108121
141678,108082
141695,108120
141703,108083
141726,108108
141748,108109
141756,108161
141755,108132
141807,108133
141826,108167
141851,108192
141875,108184
141966,108211
141968,108246
142043,108262
142079,108280
142101,108266
142163,108286
142234,108339
142242,108335
142262,108334
142290,108353
142363,108360
142366,108378
142424,108370
142452,108416
142451,108409
142514,108447
142515,108401
142558,108432
142561,108453
142582,108430
142600,108458
142633,108471
142655,108496
142630,108468
142650,108495
142679,108524
142712,108520
142750,108511
142817,108552
142818,108517
142855,108575
142920,108577
142929,108575
142902,108596
142929,108597
143005,108608
143010,108618
143031,108649
143029,108618
143053,108660
143147,108646
143087,108669
143155,108671
143158,108657
143178,108662
143219,108713
143204,108668
143220,108689
143225,108714
143220,108698
143234,108719
143173,108658
143095,108618
143005,108578
142811,108522
142665,108418
142525,108368
142304,108276
142051,108196
141905,108138
141740,108046
141570,107973
141407,107935
141255,107845
141170,107815
141074,107784
140952,107747
140878,107680
140799,107698
140737,107681
140657,107646
140574,107639
140536,107580
140545,107618
140491,107577
140464,107585
140431,107574
140407,107564
140426,107556
140417,107603
140466,107576
140447,107597
140493,107602
140495,107592
140526,107616
140593,107647
140659,107646
140685,107688
140761,107731
140832,107732
140853,107785
140930,107801
140957,107795
141014,107810
141063,107853
141131,107877
141159,107880
141240,107931
141228,107909
141320,107919
141371,107980
141398,107983
141467,107975
141524,108029
141588,108059
141687,108056
141753,108091
141794,108146
141830,108124
141898,108165
141973,108191
142023,108212
142058,108229
142051,108245
142108,108230
142139,108261
142135,108278
142159,108245
142149,108259
142165,108271
142146,108224
142143,108269
142091,108241
142079,108207
142078,108213
142027,108206
142027,108209
141956,108184
141906,108122
141942,108141
141870,108160
141821,108124
141817,108103
141761,108077
141762,108098
141749,108082
141698,108062
141655,108038
141633,108008
141645,108013
141609,108047
141577,108029
141573,108009
141545,107980
141622,107999
141611,107994
141606,108008
141609,108023
141573,108007
141602,108003
141678,108046
141649,108032
141660,108063
141636,108031
141701,108029
141703,108096
141725,108062
141738,108059
141736,108060
141775,108079
141816,108093
141792,108109
141827,108119
141851,108115
141904,108135
141897,108102
141958,108135
141936,108132
141992,108162
142011,108201
142055,108176
142094,108200
142101,108219
142097,108244
142108,108203
142158,108250
142140,108231
142162,108264
142169,108234
142261,108238
142243,108299
142276,108273
142270,108285
142296,108278
142365,108308
142364,108306
142443,108332
142463,108337
142456,108360
142519,108337
142518,108390
142538,108375
142588,108390
142594,108397
142604,108438
142639,108425
142653,108435
142670,108414
142687,108450
142693,108407
142716,108462
142730,108439
142716,108448
142659,108431
142646,108393
142626,108398
142505,108351
142393,108288
142244,108243
142085,108138
141885,108103
141743,108008
141553,107923
141354,107887
141225,107795
141123,107765
140973,107697
140826,107662
140704,107612
140639,107531
140573,107529
140448,107521
140357,107474
140260,107451
140231,107498
140172,107405
140167,107371
140071,107413
140037,107370
140056,107350
140028,107381
139981,107366
139984,107341
140013,107366
139992,107359
140050,107376
140010,107381
139998,107371
140061,107363
140078,107422
140119,107393
140127,107420
140154,107421
140199,107449
140227,107504
140268,107481
140309,107492
140367,107519
140407,107541
140430,107541
140479,107582
140557,107578
140578,107597
140615,107615
140683,107610
140691,107648
140789,107674
140799,107675
140851,107703
140903,107697
140967,107735
141006,107756
140997,107787
141091,107820
141109,107794
141163,107805
141197,107825
141201,107850
141198,107863
141244,107820
141272,107846
141228,107857
141209,107832
141232,107830
141187,107848
141156,107831
141158,107808
141062,107784
141059,107742
141080,107769
141044,107743
141008,107759
140937,107717
140934,107690
140908,107714
140873,107703
140870,107655
140838,107664
140824,107686
140813,107631
140796,107626
140755,107624
140774,107643
140760,107641
140742,107654
140745,107655
140725,107633
140727,107604
140770,107619
140763,107687
140815,107657
140828,107682
140779,107656
140828,107661
140923,107721
140896,107706
140921,107720
140913,107703
140947,107694
140982,107768
140989,107737
141024,107748
141020,107736
141046,107739
141057,107789
141079,107756
141127,107776
141098,107811
141111,107768
141168,107846
141163,107814
141211,107845
141212,107836
141299,107846
141324,107874
141373,107883
141410,107907
141419,107921
141448,107904
141522,107954
141557,107940
141572,107994
141555,107966
141616,107952
141647,108005
141673,107987
141676,108012
141722,108037
141717,108008
141750,108062
141767,108042
141785,108039
141772,108041
141851,108020
141865,108082
141892,108067
141882,108086
141916,108084
141970,108138
141989,108113
142024,108147
142014,108120
142062,108121
142042,108146
142002,108121
141992,108098
141919,108106
141744,108008
141698,107956
141526,107891
141371,107815
141206,107763
140993,107688
140882,107644
140745,107581
140585,107528
140438,107469
140308,107391
140234,107360
140130,107306
140041,107288
139927,107264
139838,107248
139792,107191
139712,107185
139689,107154
139618,107159
139550,107117
139520,107117
139524,107121
139528,107123
139435,107117
139432,107087
139476,107122
139471,107104
139481,107109
139473,107117
139441,107121
139489,107103
139527,107156
139513,107116
139565,107175
139551,107157
139604,107160
139633,107172
139662,107220
139689,107157
139730,107202
139735,107206
139806,107247
139831,107266
139836,107270
139842,107280
139913,107320
139933,107314
140017,107320
140026,107371
140071,107343
140152,107377
140216,107421
140246,107420
140300,107456
140327,107490
140375,107460
140415,107479
140459,107494
140507,107513
140508,107529
140534,107542
140584,107595
140566,107572
140567,107552
140567,107535
140603,107563
140618,107575
140624,107575
140611,107550
140562,107531
140610,107551
140571,107573
140529,107509
140544,107528
140524,107518
140493,107500
140465,107494
140462,107465
140434,107497
140423,107464
140427,107462
140406,107439
140393,107459
140352,107440
140370,107417
140366,107471
140368,107467
140354,107476
140333,107434
140370,107423
140401,107467
140411,107464
140385,107464
140415,107484
140414,107471
140429,107484
140453,107476
140458,107488
140475,107504
140494,107484
140511,107508
140552,107529
140559,107532
140606,107548
140593,107549
140661,107594
140696,107571
140706,107607
140775,107624
140802,107639
140855,107670
140888,107667
140915,107666
140938,107656
140980,107683
141006,107718
141058,107724
141067,107737
141065,107752
141122,107732
141226,107796
141216,107795
141274,107832
141278,107796
141345,107831
141347,107850
141423,107858
141447,107861
141434,107898
141467,107877
141539,107906
141551,107928
141549,107900
141590,107945
141606,107925
141603,107945
141606,107926
141666,107937
141658,107936
141692,107941
141728,107980
141694,107977
141758,107961
141766,107980
141746,107971
141806,107992
141816,108027
141780,107962
141740,107970
141706,107932
141595,107903
141478,107861
141305,107783
141170,107702
140997,107626
140851,107571
140633,107496
140476,107439
140320,107367
140204,107305
140054,107244
139936,107184
139789,107166
139669,107106
139582,107084
139478,107053
139368,106983
139310,107003
139217,106949
139190,106948
139090,106928
139037,106848
139042,106906
138978,106855
138928,106853
138977,106845
138918,106879
138918,106829
138931,106852
138914,106864
138934,106885
138982,106848
138957,106892
138944,106874
139006,106896
139025,106871
139064,106903
139061,106901
139100,106904
139125,106957
139149,106930
139185,106932
139197,106960
139224,106977
139269,107011
139272,107030
139279,106989
139339,107021
139322,107040
139365,107019
139407,107051
139464,107064
139495,107075
139559,107090
139607,107120
139661,107154
139689,107153
139724,107176
139780,107209
139796,107202
139883,107224
139905,107246
139879,107234
139872,107225
139963,107289
139938,107267
139958,107283
139957,107248
139913,107256
139975,107254
139972,107271
139906,107232
139915,107240
139862,107226
139911,107208
139871,107238
139839,107181
139795,107177
139778,107163
139774,107163
139792,107175
139793,107176
139753,107163
139732,107149
139799,107196
139779,107202
139759,107188
139769,107167
139821,107154
139818,107199
139824,107203
139847,107199
139841,107195
139788,107203
139859,107182
139879,107201
139883,107182
139892,107217
139883,107229
139909,107200
139923,107205
139933,107232
139954,107185
139972,107250
139970,107264
140045,107281
140031,107289
140044,107262
140064,107287
140122,107302
140148,107337
140129,107288
140174,107305
140221,107357
140228,107342
140276,107384
140313,107364
140324,107419
140319,107385
140387,107401
140430,107413
140457,107458
140455,107456
140495,107450
140550,107502
140574,107486
140629,107476
140655,107517
140641,107532
140700,107523
140677,107543
140734,107539
140734,107539
140754,107532
140792,107578
140836,107580
140835,107610
140866,107606
140911,107594
140924,107625
141001,107641
141005,107630
141040,107648
141056,107672
141101,107668
141116,107709
141114,107677
141163,107704
141122,107724
141175,107721
141170,107737
141184,107695
141120,107677
141052,107642
141037,107626
140935,107592
140796,107550
140647,107491
140479,107424
140360,107342
140255,107267
140093,107246
139950,107188
139837,107143
139691,107055
139575,107004
139459,107016
139343,106922
139259,106883
139161,106863
139062,106849
138988,106783
138916,106795
138821,106725
138784,106734
138742,106734
138698,106692
138628,106681
138629,106680
138616,106674
138563,106672
138580,106652
138559,106674
138522,106625
138570,106642
138554,106650
138547,106665
138587,106658
138614,106682
138623,106680
138689,106719
138696,106739
138699,106733
138712,106716
138767,106737
138796,106764
138815,106762
138836,106775
138898,106781
138930,106815
138908,106790
138945,106824
138926,106837
139007,106830
139050,106875
139074,106860
139079,106857
139109,106906
139133,106864
139197,106917
139249,106909
139235,106958
139286,106933
139338,106997
139379,106974
139429,106967
139441,107012
139478,107045
139503,107021
139547,107046
139530,107052
139562,107049
139567,107033
139601,107074
139598,107096
139572,107047
139587,107076
139550,107055
139570,107039
139581,107036
139573,107042
139533,107034
139518,107021
139519,107005
139517,107005
139514,107030
139502,107010
139459,106990
139495,106989
139449,107001
139486,106968
139501,106999
139427,107001
139454,106968
139513,107007
139500,106994
139494,106974
139460,106996
139471,106990
139520,107007
139509,107020
139542,107019
139528,107021
139567,107020
139579,107023
139584,107067
139596,107032
139650,107057
139647,107046
139681,107083
139695,107092
139757,107086
139749,107116
139784,107110
139819,107123
139852,107152
139858,107157
139922,107166
139962,107204
139999,107194
140025,107236
140034,107209
140106,107266
140123,107268
140213,107269
140234,107276
140295,107316
140285,107311
140384,107376
140379,107344
140402,107370
140453,107360
140455,107418
140496,107417
140506,107408
140560,107437
140545,107437
140530,107394
140572,107429
140628,107430
140614,107464
140600,107466
140633,107443
140665,107470
140694,107456
140726,107480
140731,107494
140701,107476
140784,107513
140798,107509
140801,107521
140854,107518
140850,107552
140889,107553
140925,107564
140902,107540
140938,107581
140922,107563
140992,107579
141012,107605
141017,107587
140996,107599
141010,107594
140983,107600
140924,107550
140882,107533
140782,107477
140663,107400
140531,107353
140396,107330
140193,107237
140019,107159
139896,107116
139754,107052
139625,106981
139463,106950
139346,106879
139166,106836
139098,106804
138935,106752
138857,106743
138717,106680
138650,106605
138572,106624
138512,106593
138435,106558
138348,106551
138289,106510
138309,106502
138275,106516
138225,106491
138240,106486
138218,106457
138255,106493
138211,106517
138238,106478
138220,106484
138219,106482
138239,106518
138303,106489
138279,106525
138271,106516
138307,106505
138338,106525
138329,106560
138357,106542
138391,106547
138408,106576
138453,106583
138432,106583
138503,106624
138541,106610
138527,106617
138623,106651
138649,106659
138674,106678
138707,106678
138746,106709
138812,106722
138839,106760
138884,106761
138924,106752
138951,106802
139035,106809
138999,106807
139096,106855
139083,106844
139080,106854
139125,106855
139179,106870
139173,106870
139173,106862
139199,106872
139192,106881
139230,106855
139211,106864
139205,106901
139208,106858
139193,106883
139217,106831
139211,106847
139191,106847
139168,106865
139138,106848
139138,106861
139124,106851
139114,106829
139109,106797
139105,106854
139057,106790
139038,106812
139035,106812
139031,106828
139060,106797
139037,106805
139035,106803
139024,106852
139065,106808
139052,106824
139078,106864
139069,106853
139113,106824
139121,106836
139141,106821
139173,106867
139140,106887
139129,106826
139194,106873
139227,106888
139248,106894
139243,106896
139211,106865
139250,106902
139323,106888
139322,106941
139316,106938
139350,106932
139400,106946
139435,106972
139453,106990
139504,107029
139474,106998
139518,107029
139636,107043
139606,107046
139667,107052
139659,107064
139710,107081
139747,107083
139803,107115
139789,107138
139781,107117
139812,107146
139878,107139
139899,107148
139929,107180
139912,107131
139947,107179
139964,107197
139979,107217
