11111,11111
0,0
82343,82263
112901,113777
112804,113705
112878,113741
112888,113794
112834,113741
112806,113706
112746,113694
112834,113761
112906,113830
112864,113768
112850,113733
112801,113735
112896,113766
112963,113828
112956,113795
112954,113764
112877,113702
113022,113821
113120,113859
113050,113855
113037,113795
113010,113819
113101,113866
113193,113919
113156,113868
113115,113819
113076,113794
113232,113906
113253,113935
113244,113894
113222,113850
113127,113791
113260,113879
113309,113964
113264,113895
113255,113863
113208,113821
113323,113926
113333,113941
113344,113913
113248,113893
113235,113813
113386,113940
113380,113947
113363,113928
113268,113870
113302,113836
113409,113968
113396,113919
113364,113917
113338,113850
113326,113860
113414,113956
113421,113958
113392,113925
113318,113893
113316,113831
113421,113920
113426,113968
113366,113881
113318,113869
113310,113840
113377,113896
113416,113940
113420,113913
113314,113823
113268,113827
113374,113894
113391,113916
113371,113884
113284,113838
113290,113823
113377,113871
113391,113923
113350,113881
113317,113803
113291,113817
113353,113889
113424,113960
113374,113900
113290,113839
113289,113825
113427,113923
113424,113921
113381,113890
113310,113862
113309,113848
113432,113948
113416,113923
113387,113891
113337,113816
113338,113886
113458,113934
113436,113945
113406,113906
113369,113845
113354,113836
113476,113906
113425,113966
113449,113913
113337,113883
113365,113860
113473,113946
113473,113972
113432,113904
113373,113851
113393,113880
113448,113966
113512,113947
113465,113923
113352,113852
113382,113876
113479,113923
113453,113935
113431,113873
113348,113835
113436,113858
113519,113950
113490,113884
113449,113897
113365,113787
113393,113872
113525,113906
113532,113889
113504,113848
113573,113917
113111,113597
113109,113650
113168,113677
113080,113616
113059,113597
113135,113661
113215,113704
113331,113751
113269,113711
113242,113675
113176,113628
113280,113708
113339,113757
113270,113695
113259,113672
113238,113649
113333,113726
113408,113774
113330,113721
113264,113691
113247,113659
113361,113728
113404,113757
113369,113759
113295,113699
113282,113706
113364,113747
113424,113784
113366,113750
113282,113687
113281,113672
113367,113750
113362,113761
113360,113696
113271,113652
113256,113660
113363,113698
113378,113743
113324,113673
113269,113622
113259,113634
113354,113740
113344,113692
113323,113714
113246,113629
113261,113671
113360,113739
113379,113761
113355,113731
113310,113689
113289,113687
113360,113764
113456,113797
113385,113785
113285,113703
113354,113731
113412,113789
113433,113789
113399,113772
113302,113707
113370,113708
113430,113807
113450,113794
113387,113734
113301,113662
113326,113729
113420,113771
113428,113793
113403,113736
113347,113682
113372,113715
113457,113757
113485,113774
113394,113745
113362,113673
113385,113718
113470,113767
113466,113798
113411,113736
113384,113669
113417,113761
113489,113798
113478,113805
113484,113755
113408,113696
113439,113717
113506,113765
113508,113788
113500,113772
113384,113678
113490,113740
113543,113797
113538,113788
113484,113757
113387,113688
113505,113751
113541,113812
113520,113807
113530,113788
113460,113735
113474,113757
113604,113843
113563,113859
113485,113809
113453,113754
113515,113789
113613,113872
113576,113862
113519,113834
113434,113744
113488,113810
113574,113867
113546,113835
113541,113784
113432,113743
113486,113758
113598,113863
113550,113812
113518,113794
113414,113745
113479,113776
113593,113871
113519,113831
113496,113805
113411,113727
113484,113799
113543,113826
113568,113829
113543,113823
113405,113718
113518,113782
113599,113861
113535,113823
113526,113785
113449,113724
113511,113802
113574,113853
113568,113836
113537,113804
113430,113703
113561,113800
113595,113833
113577,113794
113538,113792
113483,113738
113530,113802
113615,113835
113580,113814
113551,113780
113440,113739
113546,113762
113611,113857
113570,113796
113508,113759
113477,113716
113529,113751
113608,113816
113589,113823
113538,113734
113471,113724
113559,113740
113611,113833
113543,113765
113518,113727
113402,113666
113449,113744
113479,113760
113396,113696
113323,113666
113155,113597
113184,113611
113229,113651
113098,113567
113035,113519
112877,113482
112957,113505
113004,113534
112920,113489
112854,113455
112822,113380
112895,113498
112900,113518
112890,113503
112835,113462
112819,113411
112920,113514
112955,113574
112957,113493
112901,113489
112883,113479
113011,113548
113024,113625
113009,113539
113009,113551
112949,113475
113035,113585
113113,113632
113092,113583
113068,113514
113041,113522
113119,113581
113174,113621
113161,113606
113085,113542
113123,113497
113157,113607
113231,113653
113162,113576
113141,113550
113114,113513
113218,113606
113253,113621
113242,113585
113202,113553
113138,113513
113254,113597
113299,113659
113246,113583
113229,113543
113194,113559
113280,113612
113321,113658
113309,113620
113255,113612
113230,113548
113321,113625
113383,113703
113324,113642
113280,113638
113254,113588
113360,113652
113390,113713
113314,113634
113280,113612
113227,113601
113333,113635
113367,113676
113295,113610
113238,113550
113239,113605
113301,113603
113345,113649
113281,113590
113211,113541
113193,113552
113313,113621
113321,113629
113282,113614
113219,113553
113198,113537
113283,113653
113334,113648
113317,113623
113219,113575
113223,113583
113346,113661
113334,113655
113313,113641
113243,113540
113278,113616
113350,113692
113382,113674
113307,113646
113221,113565
113310,113634
113347,113659
113396,113688
113322,113663
113304,113596
113303,113603
113374,113692
113391,113727
113411,113663
113288,113599
113324,113657
113411,113695
113461,113691
113373,113690
113318,113611
113347,113663
113456,113726
113421,113723
113434,113662
113341,113644
113391,113648
113473,113744
113444,113716
113421,113668
113356,113601
113372,113647
113482,113729
113445,113697
113427,113714
113338,113621
113440,113650
113511,113734
113477,113670
113448,113686
113385,113615
113405,113694
113495,113726
113488,113726
113467,113706
113348,113617
113426,113692
113502,113708
113528,113741
113448,113687
113367,113635
113434,113685
113512,113724
113475,113724
113452,113662
113387,113617
113423,113710
113487,113740
113526,113700
113453,113710
113355,113615
113476,113682
113494,113742
113523,113700
113495,113707
113386,113630
113456,113714
113541,113739
113525,113753
113466,113737
113402,113617
113447,113710
113521,113743
113516,113740
113473,113698
113385,113635
113452,113689
113525,113726
113509,113718
113441,113634
113370,113598
113432,113690
113492,113696
113493,113672
113419,113635
113394,113559
113456,113661
113505,113684
113516,113672
113441,113649
113376,113541
113502,113644
113565,113680
113517,113666
113475,113657
113371,113564
113481,113636
113557,113713
113489,113667
113470,113609
113414,113567
113508,113626
113595,113697
113513,113648
113480,113617
113430,113573
113516,113628
113595,113697
113524,113654
113511,113629
113432,113579
113547,113645
113571,113689
113557,113695
113491,113619
113467,113602
113532,113659
113561,113684
113564,113668
113504,113653
113364,113575
113468,113636
113491,113659
113427,113595
113371,113550
113294,113527
113317,113520
113339,113601
113220,113536
113160,113483
113066,113418
113086,113466
113089,113491
112994,113436
112891,113359
112819,113345
112901,113374
112882,113408
112855,113391
112797,113318
112720,113293
112838,113385
112878,113423
112798,113372
112801,113351
112780,113328
112866,113402
112943,113474
112931,113408
112858,113362
112881,113381
112963,113439
113031,113448
112983,113465
112949,113380
112945,113427
113058,113442
113118,113525
113086,113493
112999,113460
112993,113391
113089,113504
113145,113502
113128,113485
113051,113424
113063,113458
113117,113467
113195,113499
113144,113496
113075,113432
113140,113419
113154,113499
113209,113521
113205,113477
113139,113433
113119,113423
113205,113546
113257,113518
113197,113474
113196,113442
113139,113482
113243,113525
113256,113536
113242,113506
113199,113441
113203,113477
113286,113502
113299,113556
113264,113501
113179,113458
113171,113440
113285,113530
113288,113527
113250,113492
113143,113432
113173,113410
113259,113501
113279,113502
113240,113457
113161,113406
113154,113384
113253,113482
113251,113492
113211,113460
113132,113369
113179,113425
113239,113468
113283,113497
113254,113482
113125,113399
113193,113410
113263,113469
113297,113495
113257,113475
113166,113404
113196,113440
113320,113512
113322,113512
113258,113499
113196,113425
113262,113463
113316,113534
113312,113517
113293,113476
113230,113423
113233,113452
113349,113523
113337,113514
113308,113446
113241,113414
113269,113468
113324,113490
113382,113490
113292,113501
113229,113411
113319,113462
113372,113499
113376,113482
113341,113463
113266,113377
113320,113484
113391,113504
113386,113486
113335,113436
113289,113394
113339,113485
113408,113486
113425,113485
113406,113515
113336,113449
113359,113507
113440,113529
113461,113554
113413,113552
113312,113462
113371,113531
113439,113559
113469,113546
113401,113556
113317,113458
113386,113510
113485,113566
113427,113560
113405,113519
113340,113462
113395,113509
113455,113576
113453,113568
113415,113535
113316,113489
113426,113525
113457,113608
113438,113567
113381,113541
113331,113468
113432,113566
113468,113597
113436,113590
113417,113540
113351,113508
113383,113532
113501,113607
113425,113597
113414,113562
113311,113461
113429,113526
113464,113579
113454,113563
113393,113490
113345,113446
113409,113540
113483,113560
113466,113535
113392,113528
113331,113453
113431,113536
113489,113562
113410,113537
113412,113518
113316,113472
113414,113500
113475,113550
113435,113535
113401,113452
113331,113428
113392,113503
113500,113543
113457,113508
113377,113486
113325,113419
113415,113516
113472,113502
113462,113535
113393,113445
113350,113428
113427,113512
113480,113543
113443,113543
113410,113486
113379,113468
113443,113512
113514,113554
113478,113513
113426,113512
113374,113446
113482,113525
113539,113556
113466,113548
113413,113464
113405,113445
113465,113537
113508,113566
113497,113517
113426,113467
113393,113417
113509,113516
113530,113539
113487,113492
113473,113483
113414,113443
113460,113513
113519,113529
113508,113512
113437,113442
113380,113440
113460,113512
113513,113551
113422,113475
113327,113451
113277,113394
113321,113465
113377,113432
113284,113441
113168,113341
113156,113342
113189,113373
113186,113392
113126,113377
113005,113297
112984,113264
113055,113360
113103,113358
113038,113324
113002,113310
113023,113298
113083,113382
113106,113389
113084,113344
113046,113332
113043,113309
113136,113380
113182,113394
113154,113377
113076,113313
113127,113323
113191,113415
113235,113424
113192,113367
113148,113327
113138,113327
113268,113417
113265,113446
113233,113366
113204,113354
113169,113327
113261,113409
113298,113443
113249,113408
113196,113363
113204,113330
113312,113446
113321,113486
113246,113428
113175,113342
113190,113362
113277,113458
113315,113452
113268,113392
113208,113355
113257,113372
113340,113444
113334,113439
113297,113420
113192,113350
113269,113376
113331,113414
113372,113430
113363,113438
113268,113341
113298,113357
113376,113409
113428,113455
113369,113418
113310,113350
113294,113386
113389,113462
113401,113460
113314,113420
113249,113333
113350,113405
113364,113441
113408,113461
113367,113441
113223,113358
113293,113367
113403,113476
113388,113453
113343,113428
113230,113343
113319,113380
113361,113475
113367,113423
113359,113431
113265,113369
113308,113387
113374,113469
113409,113449
113362,113414
113291,113373
113343,113411
113424,113499
113394,113477
113357,113408
113286,113371
113344,113413
113403,113493
113399,113458
113406,113433
113298,113379
113345,113399
113454,113497
113422,113478
113373,113456
113303,113361
113404,113439
113418,113459
113423,113445
113376,113430
113323,113358
113398,113445
113450,113448
113480,113459
113416,113447
113359,113372
113409,113407
113478,113468
113478,113426
113420,113433
113368,113390
113448,113421
113528,113524
113478,113472
113460,113485
113380,113414
113514,113501
113559,113514
113550,113522
113526,113515
113409,113433
113494,113472
113587,113556
113532,113515
113512,113480
113461,113440
113506,113551
113581,113546
113554,113516
113535,113511
113439,113453
113558,113491
113591,113591
113562,113570
113527,113493
113454,113478
113515,113556
113624,113603
113546,113565
113485,113504
113484,113485
113522,113551
113585,113588
113563,113557
113527,113552
113450,113460
113516,113567
113619,113599
113560,113568
113548,113541
113471,113497
113559,113522
113625,113603
113582,113573
113564,113524
113471,113504
113594,113551
113628,113603
113581,113561
113527,113557
113483,113508
113559,113541
113666,113595
113596,113567
113572,113524
113502,113479
113560,113567
113607,113590
113598,113545
113550,113542
113494,113488
113590,113549
113662,113595
113620,113546
113561,113543
113528,113474
113598,113558
113679,113614
113634,113537
113580,113507
113553,113480
113621,113545
113694,113577
113658,113551
113596,113509
113546,113497
113672,113561
113686,113604
113679,113560
113634,113525
113581,113512
113697,113563
113715,113616
113709,113593
113654,113542
113595,113525
113715,113582
113761,113619
113684,113568
113649,113558
113600,113498
113670,113575
113704,113581
113672,113569
113540,113509
113513,113458
113537,113519
113544,113524
113464,113471
113385,113413
113318,113394
113394,113442
113367,113428
113304,113405
113228,113351
113177,113332
113229,113367
113285,113408
113193,113365
113104,113285
113086,113290
113195,113324
113223,113385
113126,113345
113101,113275
113096,113304
113153,113345
113238,113378
113172,113339
113114,113296
113123,113315
113193,113388
113224,113387
113236,113378
113114,113335
113142,113332
113253,113394
113288,113387
113274,113388
113151,113297
113200,113334
113315,113414
113300,113398
113246,113358
113165,113324
113181,113334
113285,113396
113326,113378
113286,113397
113212,113306
113222,113330
113333,113415
113346,113410
113282,113377
113210,113313
113272,113332
113363,113421
113347,113395
113302,113388
113232,113329
113287,113332
113335,113394
113400,113418
113383,113392
113263,113324
113299,113364
113385,113396
113378,113414
113383,113397
113288,113326
113324,113344
113417,113410
113374,113399
113388,113401
113283,113262
113329,113345
113403,113421
113367,113412
113363,113370
113229,113278
113317,113350
113366,113398
113359,113368
113294,113361
113211,113267
113286,113307
113332,113371
113372,113388
113270,113375
113207,113294
113293,113312
113338,113371
113349,113374
113278,113370
113232,113276
113281,113344
113372,113402
113365,113399
113314,113332
113213,113311
113281,113328
113382,113408
113375,113395
113334,113375
113270,113304
113314,113371
113418,113435
113350,113389
113340,113380
113265,113284
113343,113358
113410,113428
113371,113374
113386,113376
113287,113301
113380,113354
113439,113404
113414,113374
113365,113379
113298,113304
113365,113379
113437,113421
113408,113388
113404,113356
113288,113294
113386,113358
113456,113441
113426,113392
113407,113330
113311,113306
113399,113361
113480,113396
113469,113371
113412,113373
113337,113297
113415,113373
113488,113410
113467,113391
113421,113352
113358,113296
113444,113375
113533,113439
113455,113364
113429,113369
113352,113311
113466,113375
113511,113421
113502,113402
113432,113373
113362,113314
113458,113368
113527,113440
113456,113403
113430,113370
113375,113319
113459,113385
113538,113424
113501,113413
113466,113364
113391,113312
113463,113376
113535,113438
113480,113394
113461,113341
113375,113322
113495,113384
113539,113422
113491,113405
113456,113352
113405,113308
113459,113386
113553,113402
113536,113382
113438,113338
113378,113322
113490,113386
113544,113423
113508,113383
113449,113344
113426,113310
113478,113382
113548,113421
113525,113401
113449,113316
113427,113330
113509,113374
113569,113436
113513,113402
113424,113314
113408,113315
113535,113389
113590,113428
113501,113366
113471,113324
113445,113297
113533,113394
113566,113411
113530,113397
113438,113304
113435,113310
113533,113379
113577,113392
113550,113373
113476,113352
113456,113313
113533,113387
113594,113406
113534,113406
113442,113314
113480,113326
113565,113387
113594,113437
113551,113404
113492,113329
113480,113348
113575,113422
113581,113423
113566,113373
113498,113333
113503,113360
113560,113396
113591,113426
113570,113400
113500,113299
113508,113348
113546,113426
113606,113430
113548,113394
113499,113311
113477,113342
113515,113381
113565,113410
113462,113385
113372,113277
113365,113295
113385,113346
113386,113381
113278,113301
113213,113223
113197,113244
113297,113288
113245,113284
113214,113284
113055,113148
113088,113205
113134,113229
113146,113264
113085,113205
113002,113178
113028,113163
113135,113233
113131,113260
113110,113229
113016,113177
113090,113206
113144,113254
113191,113285
113156,113250
113112,113238
113130,113242
113242,113285
113256,113325
113192,113300
113112,113227
113197,113274
113251,113344
113260,113339
113282,113326
113142,113266
113215,113284
113291,113325
113300,113333
113315,113332
113191,113235
113259,113282
113301,113320
113317,113322
113292,113290
113163,113197
113274,113291
113332,113333
113345,113323
113316,113326
113197,113212
113239,113264
113381,113359
113320,113314
113305,113299
113234,113257
113310,113300
113348,113373
113348,113333
113336,113344
113221,113218
113294,113285
113408,113343
113350,113365
113274,113288
113234,113264
113275,113300
113391,113349
113315,113323
113304,113275
113185,113238
113300,113280
113327,113345
113296,113292
113269,113288
113198,113227
113251,113296
113323,113325
113285,113302
113259,113291
113147,113237
113239,113251
113355,113339
113275,113320
113278,113286
113197,113201
113263,113273
113309,113355
113261,113286
113272,113267
113160,113190
113266,113282
113337,113364
113287,113291
113277,113256
113179,113219
113282,113291
113379,113339
113306,113342
113262,113266
113231,113235
113314,113325
113397,113358
113333,113307
113308,113270
113210,113210
113342,113313
113394,113364
113355,113299
113350,113315
113246,113231
113357,113301
113396,113374
113396,113332
113376,113292
113289,113265
113362,113321
113461,113363
113368,113324
113359,113280
113270,113246
113397,113317
113417,113363
113410,113348
113376,113289
113311,113289
113390,113341
113470,113358
113462,113341
113388,113324
113318,113254
113405,113326
113437,113388
113455,113364
113376,113331
113321,113271
113440,113304
113463,113395
113446,113344
113374,113335
113340,113271
113424,113326
113435,113368
113462,113342
113405,113326
113335,113277
113447,113344
113467,113404
113426,113342
113423,113283
113338,113284
113428,113345
113497,113362
113434,113317
113419,113299
113368,113287
113440,113341
113515,113401
113443,113345
113405,113300
113349,113259
113475,113330
113525,113346
113456,113349
113405,113323
113375,113270
113518,113347
113533,113380
113474,113352
113461,113301
113426,113288
113517,113378
113549,113394
113545,113380
113447,113306
113417,113336
113481,113363
113548,113431
113500,113364
113478,113325
113440,113320
113519,113345
113552,113409
113488,113376
113456,113289
113426,113298
113528,113374
113552,113403
113542,113371
113420,113256
113447,113307
113525,113361
113586,113370
113519,113364
113426,113303
113423,113313
113544,113375
113587,113373
113528,113338
113477,113302
113467,113341
113531,113366
113590,113418
113535,113399
113450,113310
113488,113305
113584,113367
113577,113417
113525,113342
113468,113312
113482,113303
113568,113405
113593,113391
113583,113377
113479,113276
113499,113340
113563,113372
113606,113394
113555,113370
113444,113263
113493,113314
113584,113373
113548,113384
113488,113343
113412,113244
113380,113298
113417,113294
113444,113335
113352,113291
113253,113187
113292,113241
113289,113307
113295,113248
113253,113260
113130,113175
113180,113179
113224,113257
113186,113201
113159,113207
113059,113138
113119,113181
113163,113257
113188,113213
113154,113209
113065,113134
113165,113205
113212,113264
113209,113261
113188,113246
113103,113148
113225,113222
113285,113283
113276,113265
113229,113241
113153,113194
113254,113230
113306,113283
113337,113277
113309,113259
113174,113182
113292,113256
113366,113268
113348,113267
113335,113262
113214,113186
113345,113268
113424,113327
113368,113290
113348,113294
113245,113215
113349,113278
113425,113322
113382,113312
113375,113283
113275,113224
113374,113285
113411,113342
113446,113303
113401,113316
113302,113233
113388,113278
113462,113357
113411,113356
113395,113319
113339,113265
113407,113334
113463,113363
113430,113356
113422,113331
113324,113264
113395,113346
113430,113368
113438,113344
113382,113295
113304,113244
113388,113275
113413,113328
113416,113317
113384,113308
113257,113220
113333,113280
113431,113361
113364,113318
113322,113266
113285,113243
113345,113297
113396,113338
113332,113300
113325,113256
113236,113243
113301,113285
113408,113318
113354,113321
113311,113251
113255,113219
113354,113287
113394,113323
113399,113284
113333,113282
113261,113191
113362,113262
113453,113331
113353,113304
113368,113280
113313,113239
113374,113287
113453,113302
113409,113313
113386,113270
113309,113235
113432,113297
113464,113351
113461,113318
113400,113288
113383,113237
113458,113301
113486,113343
113485,113327
113427,113270
113353,113220
113476,113287
113523,113351
113465,113294
113428,113284
113382,113224
113486,113307
113531,113362
113494,113319
113454,113266
113434,113280
113475,113333
113539,113362
113520,113345
113442,113319
113401,113256
113497,113341
113545,113347
113541,113341
113445,113311
113395,113273
113497,113321
113542,113403
113495,113320
113476,113252
113422,113267
113491,113299
113577,113371
113528,113303
113472,113273
113424,113262
113534,113314
113591,113364
113547,113336
113449,113284
113438,113247
113568,113319
113572,113389
113537,113348
113467,113274
113457,113292
113545,113359
113590,113354
113549,113359
113455,113282
113484,113280
113524,113307
113588,113392
113536,113347
113502,113287
113481,113306
113550,113373
113574,113373
113570,113335
113475,113302
113465,113287
113534,113384
113591,113390
113545,113352
113531,113341
113493,113329
113588,113393
113619,113434
113547,113376
113521,113358
113510,113353
113646,113447
113647,113474
113609,113452
113510,113375
113565,113438
113644,113473
113701,113499
113614,113489
113529,113406
113586,113443
113651,113471
113653,113512
113600,113448
113552,113396
113563,113396
113643,113487
113661,113468
113593,113415
113521,113363
113548,113379
113626,113429
113674,113478
113619,113434
113504,113351
113585,113368
113635,113445
113668,113442
113598,113405
113479,113349
113523,113357
113601,113417
113560,113388
113502,113373
113375,113292
113406,113304
113492,113375
113412,113336
113354,113301
113225,113217
113280,113274
113311,113353
113265,113272
113239,113249
113093,113186
113116,113227
113218,113288
113233,113263
113163,113242
113068,113158
113166,113252
113242,113279
113209,113276
113165,113248
113155,113180
113190,113268
113297,113289
113267,113313
113241,113272
113196,113214
113269,113279
113327,113296
113346,113327
113329,113278
113226,113231
113313,113287
113397,113337
113381,113335
113377,113324
113231,113255
113347,113283
113429,113362
113393,113306
113396,113293
113277,113263
113375,113312
113462,113382
113396,113354
113382,113301
113329,113294
113392,113313
113502,113380
113436,113367
113394,113313
113333,113254
113373,113313
113498,113394
113466,113412
113436,113348
113360,113279
113455,113362
113513,113410
113478,113395
113408,113365
113357,113283
113441,113347
113533,113436
113463,113366
113436,113359
113340,113286
113432,113371
113483,113416
113437,113339
113433,113329
113303,113286
113404,113343
113435,113389
113407,113375
113336,113289
113302,113267
113344,113328
113396,113368
113374,113330
113334,113292
113240,113269
113369,113288
113384,113351
113372,113334
113322,113288
113249,113248
113365,113289
113426,113338
113362,113321
113319,113280
113260,113243
113371,113306
113437,113370
113400,113288
113350,113299
113305,113249
113413,113329
113454,113380
113393,113298
113377,113297
113339,113247
113404,113297
113474,113396
113423,113302
113387,113260
113320,113239
113437,113304
113500,113360
113392,113305
113387,113287
113331,113243
113439,113304
113525,113359
113434,113302
113420,113291
113362,113242
113469,113300
113514,113368
113456,113305
113414,113267
113368,113259
113478,113323
113519,113348
113457,113313
113430,113282
113395,113266
113475,113320
113500,113332
113483,113291
113424,113273
113377,113259
113509,113311
113541,113340
113490,113315
113411,113241
113433,113253
113499,113281
113560,113352
113504,113285
113441,113255
113428,113238
113464,113301
113561,113320
113491,113274
113457,113246
113408,113247
113502,113311
113534,113309
113503,113293
113433,113244
113412,113232
113515,113316
113543,113305
113503,113297
113412,113201
113435,113197
113518,113294
113540,113306
113530,113281
113436,113208
113424,113237
113499,113302
113532,113274
113513,113281
113454,113245
113421,113204
113551,113295
113562,113307
113493,113290
113415,113187
113461,113257
113508,113285
113533,113291
113520,113286
113450,113202
113434,113240
113559,113315
113529,113269
113531,113279
113432,113188
113469,113227
113562,113312
113547,113321
113553,113294
113440,113236
113455,113244
113578,113314
113554,113266
113517,113299
113392,113202
113476,113207
113556,113301
113541,113262
113530,113287
113411,113217
113484,113207
113559,113291
113578,113259
113517,113227
113459,113191
113473,113227
113541,113244
113604,113311
113527,113241
113450,113180
113491,113217
113527,113268
113517,113259
113455,113210
113382,113111
113353,113170
113418,113226
113377,113179
113355,113162
113203,113068
113250,113140
113326,113155
113234,113151
113183,113095
113107,113034
113131,113057
113204,113144
113129,113133
113105,113082
113033,112996
113088,113082
113187,113124
113188,113095
113169,113139
113056,113025
113152,113110
113211,113140
113224,113148
113209,113132
113114,113063
113229,113114
113247,113174
113281,113146
113262,113131
113144,113098
113236,113106
113335,113175
113271,113199
113273,113151
113208,113076
113271,113144
113339,113186
113328,113203
113288,113140
113195,113076
113287,113123
113340,113187
113342,113161
113303,113165
113199,113088
113325,113151
113365,113210
113323,113171
113287,113147
113227,113104
113298,113145
113339,113199
113346,113173
113293,113133
113246,113093
113304,113163
113361,113210
113349,113188
113334,113156
113256,113089
113332,113177
113412,113222
113350,113180
113321,113166
113248,113076
113327,113165
113421,113234
113360,113188
113333,113145
113249,113083
113345,113166
113409,113211
113339,113179
113324,113125
113210,113093
113307,113138
113372,113217
113356,113145
113310,113100
113231,113076
113324,113171
113350,113178
113327,113150
113318,113107
113170,113089
113308,113145
113386,113213
113319,113147
113301,113127
113199,113076
113334,113161
113328,113187
113321,113152
113281,113118
113214,113082
113300,113143
113358,113151
113314,113165
113268,113109
113240,113069
113348,113149
113403,113158
113386,113180
113316,113115
113290,113081
113354,113150
113453,113215
113375,113138
113339,113105
113334,113096
113395,113168
113450,113210
113424,113161
113356,113123
113355,113115
113410,113177
113478,113201
113419,113184
113349,113133
113346,113130
113433,113164
113504,113231
113435,113169
113400,113154
113375,113127
113447,113189
113534,113231
113461,113169
113390,113123
113410,113158
113486,113178
113552,113235
113494,113206
113420,113161
113421,113125
113502,113239
113587,113256
113470,113212
113424,113177
113404,113181
113510,113220
113582,113255
113508,113241
113423,113165
113457,113155
113512,113265
113546,113247
113517,113236
113477,113165
113407,113171
113518,113246
113553,113272
113523,113258
113446,113155
113439,113158
113518,113259
113539,113290
113525,113207
113461,113170
113424,113159
113540,113274
113557,113246
113539,113225
113414,113181
113434,113150
113524,113235
113577,113233
113490,113236
113402,113121
113478,113178
113529,113232
113552,113251
113487,113227
113414,113153
113471,113186
113541,113236
113589,113276
113530,113216
113407,113152
113485,113168
113571,113210
113558,113255
113525,113207
113467,113173
113479,113209
113571,113255
113603,113258
113526,113212
113472,113129
113489,113174
113583,113253
113608,113252
113542,113189
113486,113172
113514,113197
113590,113243
113608,113248
113588,113233
113491,113160
113539,113211
113593,113252
113595,113253
113597,113252
113534,113144
113557,113192
113663,113270
113631,113279
113612,113240
113491,113167
113565,113211
113658,113267
113667,113271
113565,113220
113456,113155
113536,113211
113588,113234
113536,113223
113471,113164
113367,113082
113400,113151
113459,113192
113392,113159
113316,113141
113233,113053
113219,113078
113296,113137
113248,113094
113194,113095
113099,113009
113156,113032
113245,113108
113183,113110
113188,113079
113057,113011
113177,113076
113244,113133
113206,113090
113192,113083
113126,113012
113201,113063
113301,113149
113264,113142
113245,113070
113142,113041
113243,113092
113324,113175
113315,113101
113301,113128
113239,113042
113277,113108
113342,113151
113366,113163
113347,113115
113237,113078
113331,113101
113402,113191
113380,113183
113336,113135
113281,113036
113369,113152
113425,113181
113400,113182
113382,113133
113284,113061
113367,113144
113457,113174
113413,113165
113381,113111
113287,113075
113395,113138
113482,113199
113401,113140
113401,113169
113306,113093
113410,113136
113451,113186
113415,113192
113397,113118
113345,113100
113405,113164
113460,113183
113424,113135
113407,113149
113285,113101
113414,113142
113474,113180
113361,113162
113355,113156
113257,113080
113392,113151
113397,113184
113377,113146
113337,113087
113241,113064
113352,113131
113422,113179
113343,113147
113296,113110
113262,113073
113341,113105
113375,113154
113375,113162
113310,113083
113272,113069
113341,113131
113407,113168
113343,113151
113300,113087
113279,113080
113370,113134
113414,113184
113386,113135
113303,113106
113238,113067
113382,113137
113432,113172
113371,113151
113351,113096
113286,113100
113390,113129
113452,113194
113381,113152
113323,113123
113313,113073
113403,113119
113436,113194
113417,113132
113328,113099
113368,113086
113403,113163
113453,113156
113409,113166
113340,113087
113335,113108
113419,113137
113471,113176
113453,113163
113366,113127
113339,113106
113462,113172
113493,113173
113424,113156
113399,113098
113363,113116
113439,113167
113479,113162
113454,113147
113375,113095
113354,113082
113472,113177
113480,113200
113441,113175
113382,113089
113420,113105
113428,113164
113492,113187
113468,113172
113402,113096
113369,113105
113455,113157
113527,113175
113446,113164
113401,113074
113402,113109
113467,113148
113522,113208
113449,113128
113389,113122
113382,113105
113466,113187
113515,113212
113476,113169
113383,113091
113416,113120
113520,113175
113502,113170
113455,113135
113386,113088
113374,113118
113487,113158
113498,113212
113446,113148
113346,113098
113385,113103
113494,113165
113498,113196
113441,113154
113360,113063
113411,113122
113480,113146
113516,113179
113446,113144
113354,113090
113409,113113
113496,113191
113504,113177
113452,113184
113362,113069
113438,113134
113517,113177
113499,113170
113461,113141
113380,113089
113439,113090
113475,113194
113522,113224
113443,113126
113385,113047
113462,113106
113518,113212
113500,113159
113499,113154
113432,113070
113452,113129
113558,113182
113532,113183
113485,113143
113383,113069
113503,113128
113510,113198
113546,113144
113489,113165
113396,113066
113416,113114
113506,113184
113467,113126
113400,113130
113257,113014
113339,113068
113364,113131
113346,113092
113249,113026
113153,112992
113196,113017
113257,113061
113176,113028
113115,113016
112988,112911
113089,112962
113132,113021
113110,112987
113069,112980
112986,112929
113089,112958
113141,113048
113108,112999
113114,113024
113052,112963
113104,113027
113199,113038
113151,113019
113155,113044
113078,112950
113170,113023
113224,113083
113209,113081
113194,112998
113133,112988
113188,113050
113278,113097
113232,113077
113244,113049
113151,112990
113258,113043
113306,113120
113295,113088
113255,113037
113185,113016
113246,113087
113338,113119
113329,113106
113249,113094
113189,113035
113271,113104
113336,113124
113303,113120
113263,113050
113194,112992
113302,113076
113380,113137
113283,113109
113284,113042
113224,113028
113331,113101
113353,113141
113329,113085
113307,113084
113189,113054
113333,113093
113413,113126
113307,113110
113322,113087
113212,113038
113303,113091
113369,113144
113321,113109
113278,113067
113213,113048
113316,113092
113340,113129
113328,113105
113246,113051
113213,113035
113284,113082
113301,113123
113313,113112
113256,113060
113191,113021
113287,113082
113321,113137
113293,113106
113247,113055
113197,113019
113285,113112
113308,113144
113279,113087
113250,113059
113183,113016
113276,113088
113339,113142
113317,113094
113221,113042
113188,113029
113311,113095
113345,113138
113312,113101
113226,113059
113219,113014
113326,113102
113370,113115
113315,113090
113228,113036
113265,113041
113300,113076
113379,113134
113355,113103
113281,113021
113266,113039
113349,113063
113403,113115
113365,113097
113289,113029
113270,113031
113356,113103
113393,113114
113384,113088
113313,113050
113301,113004
113397,113100
113422,113119
113404,113074
113329,113023
113354,113053
113385,113085
113444,113131
113418,113064
113337,113035
113327,113062
113423,113088
113449,113107
113402,113096
113355,113018
113368,113056
113417,113096
113472,113121
113426,113099
113373,113020
113342,113068
113459,113101
113497,113119
113387,113110
113349,112979
113374,113042
113460,113100
113482,113113
113457,113068
113344,113041
113343,113040
113458,113115
113462,113126
113444,113078
113343,113034
113357,113023
113490,113100
113469,113112
113436,113091
113341,113032
113347,113038
113462,113104
113458,113096
113427,113065
113324,113017
113371,113009
113470,113112
113461,113089
113428,113060
113345,113005
113394,113017
113494,113091
113465,113102
113445,113050
113361,113029
113398,113015
113533,113121
113503,113122
113489,113092
113372,113033
113423,113038
113489,113079
113527,113105
113434,113101
113366,112984
113465,113037
113489,113127
113515,113112
113479,113069
113396,113004
113418,113020
113528,113136
113503,113088
113458,113045
113378,112988
113457,113049
113508,113108
113518,113104
113478,113070
113368,113000
113448,113026
113523,113095
113502,113054
113532,113095
113390,112985
113498,113038
113550,113103
113536,113066
113523,113091
113396,112968
113495,113055
113571,113110
113539,113074
113533,113051
113433,113007
113508,113058
113580,113098
113565,113099
113532,113105
113425,112978
113498,113057
113588,113104
113551,113074
113532,113059
113425,113018
113528,113046
113587,113135
113504,113081
113481,113037
113379,112967
113421,113031
113457,113059
113420,113044
113316,112997
113231,112904
113295,112980
113303,113004
113244,112976
113189,112925
113069,112874
113156,112886
113217,112957
113116,112919
113062,112921
112956,112830
113024,112890
113125,112924
113073,112889
113014,112882
112968,112838
113064,112913
113118,112936
113109,112934
113074,112916
112998,112865
113113,112927
113183,112980
113140,112962
113147,112923
113065,112864
113181,112963
113243,113014
113169,112965
113187,112953
113101,112902
113204,112977
113283,113009
113214,112987
113202,112954
113163,112954
113238,112983
113298,113022
113254,112986
113233,112955
113160,112954
113222,112973
113320,113071
113285,113019
113204,113003
113160,112947
113251,113001
113295,113047
113266,113001
113249,112951
113179,112928
113247,113005
113282,113015
113277,112988
113223,112975
113190,112945
113299,112979
113335,113065
113275,113016
113257,112948
113208,112937
113304,112978
113318,113044
113271,112995
113239,112978
113188,112924
113257,112977
113330,113030
113250,112993
113211,112939
113185,112897
113265,113013
113291,113020
113253,112975
113228,112932
113146,112927
113255,112941
113304,113024
113236,112961
113192,112956
113137,112917
113262,112966
113328,113047
113214,112997
113195,112922
113159,112920
113241,112966
113336,113034
113283,112991
113180,112893
113179,112915
113258,112987
113337,113031
113302,112967
113205,112939
113217,112918
113316,112989
113339,113025
113312,112996
113235,112908
113290,112935
113338,113046
113388,113054
113308,113015
113263,112948
113281,112950
113383,113050
113415,113027
113374,113024
113286,112945
113309,112950
113362,113035
113438,113067
113377,113043
113287,112962
113295,112988
113418,113008
113451,113038
113377,113042
113290,112934
113345,112983
113413,113023
113424,113060
113360,113007
113322,112935
113340,112996
113408,113049
113439,113049
113382,113039
113287,112960
113376,112974
113404,113083
113446,113033
113434,113034
113306,112985
113348,112995
113456,113053
113457,113039
113421,113042
113316,112955
113389,112984
113434,113076
113467,113040
113448,113052
113327,112985
113377,113000
113450,113071
113455,113050
113430,113034
113329,112959
113395,112983
113506,113088
113474,113065
113433,113023
113375,112995
113378,113035
113461,113080
113486,113073
113482,113048
113368,112970
113422,113004
113494,113101
113522,113071
113433,113062
113353,112956
113453,113032
113476,113074
113537,113055
113471,113072
113377,112965
113464,113042
113547,113113
113507,113091
113451,113028
113391,113014
113445,113015
113487,113102
113515,113075
113481,113061
113364,112967
113447,113033
113563,113123
113523,113056
113475,113083
113395,112954
113525,113065
113556,113081
113526,113076
113480,113058
113417,112997
113492,113062
113552,113093
113562,113079
113488,113092
113427,112998
113463,113032
113572,113124
113507,113086
113517,113052
113421,112977
113507,113058
113592,113131
113547,113085
113492,113020
113417,112970
113531,113051
113584,113091
113566,113083
113496,113044
113450,112993
113515,113078
113596,113116
113540,113061
113555,113045
113466,113022
113509,113065
113639,113100
113583,113087
113532,113080
113423,113003
113526,113029
113657,113121
113577,113080
113524,113046
113443,113023
113504,113033
113620,113100
113523,113067
113469,113032
113358,112960
113433,113012
113491,113074
113383,113040
113310,112941
113216,112920
113256,112951
113301,112988
113209,112948
113148,112895
113016,112830
113063,112866
113138,112940
113069,112890
112982,112843
112932,112781
113053,112870
113086,112927
113023,112911
113010,112839
112964,112822
113074,112911
113137,112931
113068,112930
113047,112874
113032,112845
113133,112947
113203,112941
113177,112970
113134,112893
113088,112891
113206,112959
113250,113027
113225,112969
113165,112969
113146,112919
113245,112978
113333,113023
113281,112989
113195,112961
113200,112930
113313,113014
113343,113070
113317,113015
113260,112980
113205,112941
113324,113016
113390,113068
113327,113017
113278,112989
113227,112957
113327,113025
113406,113057
113353,113021
113281,112957
113266,112962
113349,113028
113385,113053
113350,113022
113258,112982
113280,112947
113383,113034
113393,113050
113372,113019
113289,113016
113264,112954
113382,113036
113404,113068
113342,113027
113284,112998
113272,112953
113365,113012
113353,113070
113285,113001
113264,112963
113237,112956
113314,113015
113368,113040
113267,112994
113240,112913
113234,112943
113289,113000
113340,113050
113299,112998
113205,112930
113207,112940
113301,113003
113305,113027
113280,113001
113193,112913
113229,112962
113308,113048
113321,113029
113279,112996
113179,112965
113226,112943
113369,113032
113333,113013
113345,113021
113260,112950
113263,112983
113361,113066
113384,113019
113366,113011
113262,112926
113332,113021
113401,113025
113389,113058
113361,113022
113292,112957
113347,113005
113411,113058
113437,113076
113359,113035
113283,112990
113336,112997
113455,113053
113425,113059
113413,113048
113287,112950
113354,112991
113453,113063
113474,113073
113428,113044
113349,112972
113388,112989
113444,113090
113476,113063
113419,113046
113327,112951
113391,113001
113454,113088
113461,113088
113418,113035
113353,112955
113403,113004
113462,113090
113467,113076
113445,113061
113325,112957
113410,113006
113479,113092
113477,113040
113434,113040
113339,112973
113389,113002
113481,113068
113455,113066
113427,113036
113309,113007
113376,113016
113471,113117
113457,113058
113437,113039
113325,112968
113445,113036
113493,113100
113478,113072
113429,113038
113296,112956
113403,113020
113500,113106
113465,113037
113470,113070
113300,112967
113440,113033
113491,113121
113480,113087
113423,113059
113342,112965
113429,113048
113456,113091
113485,113061
113440,113066
113336,112981
113428,113066
113475,113086
113487,113075
113427,113009
113332,113000
113440,113027
113514,113108
113465,113074
113454,113042
113368,112989
113435,113054
113531,113109
113512,113080
113407,113034
113375,112970
113443,113057
113520,113104
113510,113083
113421,113045
113381,112966
113474,113056
113520,113088
113499,113062
113434,113015
113398,112981
113472,113074
113518,113087
113502,113075
113438,113023
113374,112980
113496,113055
113527,113080
113526,113047
113472,113012
113387,112978
113501,113030
113564,113110
113475,113060
113497,113040
113421,112996
113476,113029
113573,113098
113519,113058
113514,113047
113414,112970
113512,113051
113593,113104
113516,113071
113512,113009
113416,112998
113495,113030
113569,113108
113512,113098
113470,112996
113414,112979
113440,113028
113505,113052
113452,113008
113327,112960
113270,112882
113349,112984
113352,113010
113260,112936
113191,112887
113114,112813
113163,112910
113175,112950
113074,112867
113066,112812
112998,112811
113044,112856
113099,112921
113023,112878
112992,112794
112983,112811
113043,112859
113150,112932
113083,112866
113048,112837
113010,112820
113162,112865
113187,112926
113185,112918
113094,112900
113105,112865
113230,112928
113255,112994
113209,112916
113195,112923
113159,112886
113279,112984
113314,112977
113257,112952
113185,112905
113204,112906
113292,112962
113309,113013
113307,112944
113230,112922
113216,112913
113309,112967
113343,113010
113303,112958
113261,112919
113215,112903
113329,113001
113382,113025
113279,112984
113224,112886
113256,112925
113328,113021
113375,113001
113320,112973
113254,112901
113245,112921
113358,113010
113387,113016
113340,112983
113262,112934
113303,112937
113369,113018
113382,112990
113378,112983
113263,112922
113251,112942
113372,113001
113356,113001
113327,112975
113207,112911
113236,112906
113360,112974
113335,113011
113317,112964
113186,112888
113261,112918
113291,112972
113332,112996
113280,112948
113197,112905
113213,112908
113289,112990
113295,113015
113265,112939
113174,112872
113227,112941
113278,112973
113343,113002
113265,112968
113181,112880
113241,112896
113333,112996
113291,112958
113305,112957
113209,112870
113262,112927
113343,112992
113319,112963
113282,112946
113244,112895
113254,112935
113393,113015
113324,112975
113304,112957
113228,112900
113270,112921
113402,113013
113381,112963
113321,112976
113253,112873
113318,112970
113399,113004
113374,112961
113332,112951
113259,112888
113313,112942
113397,113014
113362,112963
113361,112961
113247,112909
113308,112935
113426,112998
113356,112984
113364,112947
113244,112919
113336,112937
113418,112997
113380,112985
113368,112976
113282,112904
113391,112960
113447,113037
113429,112985
113377,112980
113270,112891
113393,112953
113420,113042
113428,112974
113409,112961
113314,112915
113404,112992
113461,113018
113422,113011
113411,112992
113307,112914
113414,112964
113483,113021
113440,112981
113382,112961
113338,112906
113397,112992
113499,113050
113442,113010
113419,112967
113330,112926
113404,112981
113506,113031
113463,113022
113412,112986
113319,112911
113420,112994
113488,113046
113439,112997
113426,112971
113294,112915
113435,112984
113521,113041
113444,113014
113391,112954
113343,112934
113429,112977
113505,113033
113457,112992
113426,112990
113345,112913
113432,112972
113513,113018
113461,113008
113429,112960
113327,112933
113423,112997
113534,113018
113463,113036
113409,112961
113349,112902
113460,112937
113515,113010
113488,112987
113405,112987
113348,112892
113469,113009
113502,113048
113468,112964
113456,112973
113354,112871
113483,112982
113546,113040
113477,113013
113434,112935
113412,112935
113474,112989
113565,113045
113491,112981
113464,112958
113402,112892
113516,112966
113540,113047
113516,112990
113472,112945
113394,112935
113525,112957
113609,113055
113516,112987
113459,112959
113449,112949
113508,112997
113601,113032
113546,113024
113460,112986
113447,112949
113549,112989
113577,113047
113531,113002
113481,112956
113477,112954
113543,113037
113624,113034
113536,112997
113528,112993
113455,112928
113572,113019
113647,113041
113564,113012
113498,112982
113489,112950
113611,113047
113626,113084
113560,113041
113509,112992
113505,112970
113562,113055
113587,113033
113536,113028
113432,112952
113402,112930
113437,112974
113489,113040
113345,112977
113259,112888
113244,112874
113258,112927
113251,112941
113142,112883
113029,112778
113001,112805
113047,112832
113073,112864
112990,112804
112896,112745
112899,112762
112978,112804
113011,112846
112967,112812
112910,112746
112942,112795
113024,112833
113051,112866
113023,112843
112961,112794
112999,112819
113076,112887
113135,112928
113130,112880
113027,112831
113056,112858
113162,112912
113244,112957
113161,112939
113073,112837
113128,112885
113211,112967
113255,112996
113212,112921
113147,112872
113174,112923
113276,112969
113297,112962
113268,112976
113152,112890
113216,112945
113254,112984
113328,112980
113286,112973
113169,112874
113239,112937
113288,112981
113319,112965
113301,112973
113199,112917
113241,112946
113337,112996
113338,112999
113312,112989
113216,112876
113246,112941
113358,113021
113318,112960
113315,112953
113239,112913
113280,112941
113386,112986
113323,112958
113323,112949
113220,112890
113289,112939
113369,113009
113307,112976
113314,112962
113186,112886
113267,112940
113337,112989
113296,112967
113294,112944
113155,112879
113254,112936
113298,112956
113294,112963
113250,112943
113140,112832
113230,112920
113302,112957
113252,112916
113277,112919
113148,112851
113208,112939
113313,112970
113292,112951
113261,112928
113179,112832
113258,112904
113310,112980
113336,112961
113272,112963
113187,112849
113268,112925
113328,112983
113332,112965
113308,112953
113227,112852
113296,112944
113389,113003
113363,112945
113336,112937
113230,112871
113355,112953
113383,113001
113381,112970
113347,112928
113251,112903
113355,112960
113410,112992
113386,112989
113346,112949
113319,112887
113385,112955
113477,113021
113395,112998
113360,112934
113332,112902
113422,112968
113468,113014
113437,112984
113372,112947
113341,112889
113410,112930
113476,113007
113446,112999
113389,112959
113299,112879
113411,112950
113492,113032
113420,112978
113367,112953
113344,112884
113431,112963
113452,113006
113452,112962
113396,112932
113350,112897
113436,112983
113471,113005
113438,113000
113408,112964
113336,112907
113422,112981
113481,112991
113431,113001
113398,112919
113364,112915
113425,112976
113503,113024
113432,112981
113377,112965
113341,112902
113449,113016
113476,113020
113452,112998
113397,112924
113315,112948
113433,112959
113505,113036
113450,112976
113419,112956
113362,112907
113427,112997
113494,113030
113437,113006
113376,112953
113343,112926
113469,112981
113500,113046
113438,112950
113407,112949
113368,112896
113490,113003
113525,113025
113466,112994
113400,112926
113366,112935
113469,112984
113489,113042
113449,112973
113405,112937
113348,112938
113481,112993
113522,113019
113496,112998
113389,112946
113383,112904
113530,113031
113537,113011
113506,112965
113407,112944
113390,112930
113511,113013
113527,113002
113466,112978
113413,112937
113382,112928
113497,112996
113517,113005
113500,112986
113438,112914
113410,112912
113508,112993
113534,113007
113497,112954
113432,112888
113417,112924
113537,112994
113535,113000
113495,112964
113436,112917
113434,112927
113556,113011
113520,112979
113534,112987
113459,112900
113503,112935
113559,113008
113561,112972
113537,112972
113472,112907
113454,112947
113576,112993
113563,112995
113516,112982
113430,112878
113451,112918
113499,112961
113478,112950
113418,112908
113295,112849
113341,112860
113385,112891
113337,112842
113286,112853
113110,112784
113118,112762
113171,112816
113128,112812
113041,112763
112969,112676
112942,112728
113019,112780
113003,112766
112998,112729
112889,112689
112960,112706
113042,112795
113034,112770
113042,112779
112916,112676
113047,112785
113113,112849
113110,112839
113111,112807
113024,112778
113111,112787
113226,112886
113219,112871
113173,112861
113118,112754
113189,112840
113268,112879
113269,112874
113257,112873
113138,112781
113230,112844
113320,112898
113287,112873
113275,112871
113182,112820
113275,112877
113363,112933
113321,112898
113278,112891
113214,112812
113258,112870
113369,112923
113346,112906
113303,112910
113210,112817
113255,112919
113346,112927
113327,112919
113333,112907
113224,112851
113321,112894
113401,112952
113357,112946
113315,112910
113232,112874
113358,112902
113416,112955
113381,112971
113328,112926
113251,112812
113345,112921
113398,112942
113398,112922
113310,112911
113242,112859
113339,112913
113354,112986
113353,112915
113316,112904
113226,112840
113300,112885
113389,112957
113345,112931
113309,112901
113227,112832
113253,112917
113322,112932
113328,112947
113292,112869
113204,112814
113292,112896
113377,112991
113305,112903
113274,112874
113218,112837
113300,112891
113357,112974
113298,112899
113283,112896
113197,112849
113296,112915
113369,112991
113349,112958
113293,112932
113204,112829
113346,112942
113378,112935
113357,112935
113286,112880
113252,112838
113330,112940
113385,112948
113376,112933
113340,112909
113233,112841
113386,112928
113426,112969
113391,112930
113341,112926
113257,112844
113360,112928
113404,112943
113394,112941
113366,112903
113303,112847
113384,112935
113459,112948
113390,112908
113375,112873
113284,112881
113397,112897
113456,112980
113433,112931
113361,112901
113319,112829
113453,112954
113483,112978
113412,112947
113414,112894
113328,112873
113446,112940
113523,112995
113474,112948
113390,112890
113377,112848
113448,112936
113514,112995
113461,112905
113396,112892
113363,112879
113452,112956
113481,112977
113480,112963
113391,112899
113396,112880
113454,112914
113528,112976
113497,112933
113412,112911
113360,112864
113486,112951
113536,112976
113444,112931
113419,112885
113363,112896
113487,112960
113525,112965
113468,112922
113391,112884
113374,112898
113499,112956
113496,112950
113445,112927
113371,112868
113381,112893
113454,112933
113523,112977
113435,112945
113412,112899
113362,112883
113459,112952
113522,112966
113448,112913
113449,112873
113385,112885
113469,112974
113501,112969
113444,112918
113380,112834
113431,112900
113525,112951
113515,112960
113484,112896
113415,112880
113406,112872
113530,112960
113554,112962
113489,112945
113405,112846
113462,112909
113518,112925
113560,112958
113492,112911
113425,112853
113442,112890
113534,112938
113598,112941
113496,112943
113450,112869
113476,112891
113576,112974
113574,112942
113580,112960
113435,112862
113482,112870
113555,112945
113621,112980
113574,112924
113461,112874
113545,112933
113593,112965
113580,112951
113597,112970
113498,112885
113515,112919
113631,112980
113618,112967
113571,112947
113516,112897
113583,112927
113614,112993
113647,113001
113602,112969
113486,112870
113563,112938
113625,113012
113650,113017
113606,112994
113500,112894
113554,112937
113572,112989
113622,112974
113531,112936
113432,112822
113463,112899
113508,112936
113488,112916
113357,112865
113274,112780
113307,112800
113316,112882
113291,112840
113245,112797
113114,112703
113160,112755
113206,112809
113178,112797
113100,112758
112995,112678
113074,112747
113154,112798
113116,112786
113105,112765
112991,112672
113090,112764
113212,112824
113146,112782
113156,112766
113079,112699
113134,112761
113240,112830
113244,112818
113193,112781
113124,112738
113207,112787
113271,112815
113267,112840
113249,112793
113184,112732
113216,112789
113311,112857
113333,112871
113298,112816
113199,112758
113308,112848
113366,112893
113338,112845
113332,112852
113233,112778
113326,112854
113389,112910
113361,112870
113305,112834
113257,112776
113313,112854
113371,112917
113357,112888
113325,112850
113262,112795
113317,112861
113396,112905
113372,112911
113336,112838
113244,112798
113345,112896
113421,112941
113405,112882
113334,112848
113267,112821
113358,112867
113430,112910
113401,112922
113348,112850
113230,112821
113351,112858
113432,112947
113377,112872
113328,112857
113273,112830
113351,112859
113380,112911
113356,112898
113327,112849
113225,112816
113323,112863
113425,112907
113327,112907
113278,112826
113240,112826
113312,112867
113361,112904
113381,112906
113294,112839
113264,112824
113315,112842
113400,112893
113354,112882
113307,112841
113220,112808
113365,112904
113369,112923
113371,112880
113341,112842
113279,112838
113369,112884
113418,112922
113414,112919
113327,112847
113296,112811
113431,112891
113438,112960
113425,112888
113357,112839
113304,112818
113436,112913
113473,112944
113422,112909
113352,112880
113376,112846
113435,112938
113465,112963
113472,112923
113404,112869
113364,112841
113456,112919
113493,112969
113454,112913
113419,112867
113388,112858
113474,112918
113546,112946
113499,112929
113412,112878
113395,112885
113517,112928
113527,112956
113478,112943
113421,112869
113464,112889
113507,112941
113556,112938
113513,112954
113433,112862
113438,112872
113483,112943
113575,112980
113480,112902
113440,112860
113430,112888
113525,112932
113553,112987
113524,112925
113444,112866
113447,112883
113509,112930
113554,112966
113494,112929
113450,112881
113466,112886
113514,112961
113541,112968
113530,112922
113398,112849
113430,112888
113529,112931
113520,112919
113495,112923
113402,112865
113445,112864
113507,112937
113521,112957
113503,112901
113411,112860
113415,112885
113555,112996
113561,112947
113470,112912
113403,112837
113427,112900
113535,112957
113543,112934
113467,112913
113392,112835
113432,112886
113522,112974
113551,112950
113477,112927
113414,112863
113472,112870
113524,112928
113594,112967
113512,112923
113426,112860
113483,112893
113530,112939
113557,112947
113554,112932
113432,112860
113475,112908
113561,112953
113564,112957
113544,112917
113447,112825
113506,112910
113588,112939
113586,112946
113555,112938
113457,112878
113535,112911
113620,112986
113598,112964
113561,112940
113442,112860
113556,112927
113612,112965
113594,112947
113563,112946
113498,112857
113566,112909
113633,112961
113634,112947
113604,112931
113474,112861
113584,112926
113678,112976
113653,112953
113635,112944
113550,112885
113619,112950
113721,113012
113705,112970
113649,112959
113611,112907
113682,112930
113722,113001
113735,112993
113704,112973
113598,112915
113688,112947
113768,113047
113710,112994
113689,112959
113602,112896
113683,112972
113749,113024
113659,112992
113626,112936
113496,112890
113550,112915
113588,112966
113541,112938
113457,112874
113329,112805
113375,112858
113417,112907
113345,112840
113259,112791
113142,112708
113204,112792
113251,112842
113194,112785
113100,112754
113033,112691
113111,112756
113202,112814
113160,112788
113101,112766
113058,112717
113152,112766
113205,112844
113171,112806
113173,112790
113101,112746
113236,112785
113292,112860
113265,112826
113234,112810
113124,112766
113279,112849
113375,112885
113294,112847
113281,112845
113213,112774
113324,112859
113369,112886
113334,112868
113347,112835
113257,112798
113330,112839
113416,112909
113383,112906
113363,112861
113251,112817
113366,112894
113419,112920
113429,112909
113335,112844
113326,112821
113408,112870
113471,112938
113379,112922
113365,112844
113299,112839
113398,112884
113476,112918
113422,112928
113358,112834
113324,112839
113408,112901
113493,112940
113428,112879
113336,112844
113319,112827
113429,112883
113485,112950
113413,112883
113364,112852
113316,112813
113408,112920
113459,112939
113385,112878
113316,112833
113295,112830
113390,112905
113416,112948
113386,112870
113305,112851
113267,112839
113397,112917
113393,112922
113352,112863
113262,112823
113257,112795
113346,112870
113399,112914
113351,112897
113263,112809
113283,112837
113339,112866
113389,112913
113308,112859
113286,112829
113257,112803
113343,112909
113386,112915
113351,112860
113267,112812
113283,112822
113364,112905
113396,112912
113360,112879
113328,112787
113289,112817
113401,112920
113386,112912
113394,112878
113322,112819
113335,112839
113389,112901
113431,112948
113422,112864
113291,112810
113366,112818
113399,112877
113456,112928
113410,112927
113316,112795
113329,112825
113441,112907
113458,112905
113396,112880
113328,112815
113368,112836
113436,112922
113489,112919
113393,112897
113314,112824
113383,112854
113466,112920
113476,112921
113416,112880
113354,112858
113407,112852
113442,112892
113461,112918
113459,112881
113334,112824
113390,112847
113457,112897
113510,112926
113467,112882
113341,112816
113414,112858
113509,112916
113469,112922
113451,112888
113331,112797
113409,112863
113491,112937
113449,112900
113466,112886
113351,112801
113427,112891
113506,112934
113469,112910
113471,112885
113377,112803
113419,112858
113524,112942
113475,112908
113467,112917
113337,112822
113452,112877
113519,112934
113503,112910
113478,112897
113361,112842
113436,112873
113552,112961
113523,112914
113443,112898
113393,112835
113456,112887
113510,112914
113532,112947
113505,112886
113351,112819
113481,112891
113536,112942
113509,112933
113513,112912
113394,112825
113470,112883
113543,112934
113506,112927
113509,112901
113385,112824
113488,112901
113576,112944
113502,112928
113503,112916
113416,112827
113471,112904
113575,112965
113547,112943
113503,112902
113436,112864
113519,112924
113594,112964
113537,112931
113518,112918
113457,112854
113524,112923
113605,112975
113577,112935
113570,112898
113455,112873
113555,112914
113627,112973
113621,112966
113554,112927
113479,112852
113579,112938
113639,113007
113611,112973
113531,112935
113504,112897
113585,112963
113626,112988
113590,112970
113541,112956
113432,112852
113517,112924
113537,112959
113463,112933
113374,112877
113276,112788
113342,112867
113351,112886
113278,112809
113160,112778
113058,112686
113096,112739
113134,112766
113028,112729
112984,112686
112862,112631
112974,112683
113010,112716
112929,112670
112890,112643
112835,112609
112920,112693
112999,112725
112957,112715
112935,112660
112886,112640
113007,112722
113097,112779
113047,112735
113037,112710
113028,112692
113147,112778
113220,112810
113155,112789
113149,112752
113096,112701
113207,112816
113300,112837
113235,112803
113199,112768
113163,112737
113283,112811
113329,112886
113299,112834
113223,112783
113173,112757
113289,112853
113380,112876
113290,112822
113228,112774
113217,112774
113316,112844
113370,112861
113300,112842
113246,112799
113222,112751
113344,112854
113362,112848
113329,112825
113291,112813
113244,112791
113339,112832
113383,112884
113343,112855
113301,112817
113280,112780
113344,112851
113406,112872
113379,112848
113289,112783
113289,112810
113357,112882
113374,112899
113358,112854
113256,112787
113259,112795
113351,112858
113363,112850
113316,112844
113238,112760
113266,112765
113296,112865
113343,112885
113293,112819
113195,112774
113213,112779
113347,112858
113328,112895
113306,112816
113202,112777
113212,112782
113310,112839
113347,112855
113319,112838
113200,112738
113261,112797
113325,112844
113347,112891
113314,112802
113238,112800
113233,112780
113371,112852
113398,112884
113317,112859
113267,112772
113296,112823
113410,112876
113417,112896
113365,112831
113270,112772
113335,112833
113388,112863
113458,112904
113384,112841
113320,112817
113349,112821
113429,112861
113465,112901
113403,112886
113354,112771
113375,112825
113450,112887
113496,112893
113407,112885
113339,112797
113370,112810
113466,112879
113464,112887
113428,112889
113392,112781
113417,112824
113464,112906
113502,112902
113457,112896
113375,112780
113422,112838
113467,112904
113505,112865
113471,112858
113377,112776
113455,112861
113521,112920
113527,112901
113457,112869
113397,112808
113452,112851
113536,112913
113506,112921
113481,112868
113403,112835
113461,112868
113528,112930
113508,112905
113478,112853
113358,112792
113453,112844
113520,112910
113477,112890
113486,112884
113343,112814
113455,112851
113526,112920
113486,112888
113475,112891
113351,112788
113440,112883
113528,112911
113492,112884
113453,112870
113357,112803
113455,112873
113485,112894
113505,112886
113451,112883
113359,112801
113430,112886
113545,112947
113467,112919
113448,112853
113341,112822
113464,112886
113504,112926
113482,112899
113481,112925
113382,112811
113451,112888
113549,112920
113500,112911
113456,112855
113368,112807
113473,112874
113537,112911
113466,112910
113440,112856
113387,112786
113463,112873
113497,112907
113472,112865
113430,112856
113353,112795
113453,112882
113521,112903
113479,112875
113455,112846
113372,112796
113479,112904
113515,112887
113473,112842
113470,112868
113392,112789
113471,112865
113513,112892
113501,112868
113434,112851
113405,112800
113482,112875
113554,112899
113486,112865
113461,112819
113415,112775
113535,112865
113561,112907
113509,112862
113470,112825
113429,112814
113529,112851
113564,112894
113531,112846
113451,112796
113432,112783
113484,112831
113537,112927
113491,112850
113440,112821
113374,112778
113417,112829
113437,112841
113368,112785
113308,112759
113199,112704
113264,112748
113279,112783
113172,112710
113074,112632
112997,112607
113078,112668
113078,112686
113015,112648
112942,112584
112923,112563
112995,112643
113032,112666
112998,112638
112934,112607
112941,112610
113026,112644
113106,112725
113043,112678
113035,112635
112981,112628
113102,112722
113188,112744
113161,112709
113125,112680
113099,112685
113185,112707
113250,112786
113235,112751
113162,112671
113177,112708
113277,112767
113281,112792
113261,112767
113198,112698
113221,112738
113281,112789
113327,112807
113286,112791
113223,112705
113212,112714
113319,112804
113325,112807
113302,112770
113212,112699
113209,112739
113305,112795
113368,112815
113324,112794
113206,112695
113244,112712
113347,112772
113381,112827
113298,112809
113224,112702
113279,112735
113336,112809
113369,112805
113357,112784
113230,112731
113242,112741
113387,112829
113378,112842
113318,112792
113261,112718
113315,112771
113337,112830
113349,112804
113332,112756
113198,112722
113233,112734
113343,112811
113337,112769
113279,112772
113199,112677
113228,112739
113309,112771
113315,112796
113295,112764
113164,112709
113210,112710
113334,112792
113303,112795
113302,112767
113195,112658
113236,112748
113357,112806
113311,112780
113302,112786
113213,112668
113298,112741
113341,112813
113323,112791
113331,112768
113236,112706
113290,112750
113417,112846
113387,112810
113348,112805
113271,112714
113348,112779
113398,112821
113392,112780
113377,112786
113282,112727
113335,112768
113419,112843
113404,112826
113414,112768
113260,112712
113382,112792
113463,112821
113481,112820
113378,112818
113311,112732
113387,112801
113478,112859
113418,112845
113444,112789
113297,112761
113417,112769
113477,112839
113454,112821
113449,112800
113362,112743
113414,112819
113472,112855
113465,112809
113439,112789
113318,112745
113424,112769
113496,112892
113459,112828
113431,112806
113365,112723
113436,112811
113501,112825
113476,112823
113420,112780
113350,112737
113449,112801
113491,112856
113438,112832
113470,112799
113364,112723
113425,112772
113514,112856
113449,112848
113393,112777
113357,112714
113447,112817
113526,112847
113479,112827
113413,112778
113363,112728
113443,112824
113517,112844
113495,112836
113405,112788
113364,112751
113438,112826
113528,112847
113473,112799
113427,112789
113341,112712
113441,112760
113551,112874
113472,112836
113463,112775
113376,112730
113464,112790
113504,112840
113479,112822
113451,112794
113391,112736
113478,112816
113551,112844
113507,112822
113472,112784
113422,112751
113502,112811
113598,112867
113523,112825
113487,112800
113430,112752
113499,112817
113600,112882
113541,112851
113517,112804
113480,112781
113548,112846
113610,112889
113579,112827
113494,112798
113481,112779
113599,112846
113620,112898
113598,112838
113562,112805
113518,112781
113607,112892
113663,112923
113602,112844
113575,112829
113531,112815
113642,112867
113697,112882
113641,112858
113572,112841
113569,112790
113644,112859
113655,112902
113621,112841
113543,112813
113499,112765
113577,112838
113609,112879
113492,112791
113442,112746
113361,112719
113427,112793
113437,112805
113346,112736
113226,112684
113185,112641
113253,112726
113236,112705
113195,112689
113066,112631
113050,112589
113147,112654
113152,112685
113124,112664
113057,112576
113079,112639
113161,112665
113188,112758
113147,112682
113118,112620
113119,112644
113228,112737
113318,112752
113281,112739
113204,112697
113214,112675
113288,112754
113380,112799
113325,112763
113228,112710
113225,112709
113367,112772
113413,112833
113342,112776
113276,112704
113338,112756
113402,112835
113434,112803
113379,112784
113289,112759
113321,112715
113419,112825
113429,112836
113407,112810
113311,112760
113324,112738
113462,112838
113436,112811
113401,112798
113317,112758
113331,112787
113430,112822
113433,112834
113422,112813
113314,112739
113384,112755
113485,112856
113455,112829
113392,112817
113303,112752
113353,112759
113483,112829
113449,112851
113434,112806
113338,112728
113377,112762
113468,112868
113465,112828
113425,112794
113329,112720
113354,112797
113421,112797
113468,112814
113376,112785
113311,112702
113367,112753
113429,112815
113448,112822
113358,112806
113290,112734
113325,112766
113412,112838
113421,112787
113378,112776
113275,112730
113333,112744
113442,112790
113421,112805
113393,112803
113294,112717
113398,112777
113450,112858
113447,112789
113417,112800
113331,112744
113377,112816
113493,112822
113454,112850
113456,112798
113334,112741
113455,112813
113512,112850
113467,112826
113447,112811
113317,112740
113440,112784
113520,112886
113486,112802
113468,112792
113374,112737
113453,112812
113524,112832
113481,112851
113446,112786
113373,112719
113454,112804
113507,112881
113518,112817
113465,112787
113380,112745
113429,112780
113515,112840
113477,112818
113455,112755
113381,112736
113466,112814
113558,112830
113481,112803
113469,112773
113367,112711
113492,112801
113549,112823
113509,112810
113480,112792
113406,112725
113486,112804
113570,112878
113529,112827
113474,112792
113405,112717
113525,112787
113552,112847
113516,112829
113458,112782
113394,112739
113508,112798
113582,112873
113529,112815
113504,112793
113475,112764
113506,112828
113569,112834
113544,112848
113474,112786
113433,112753
113562,112820
113583,112879
113512,112834
113471,112798
113428,112774
113520,112820
113605,112886
113547,112799
113483,112789
113427,112732
113510,112808
113573,112880
113552,112830
113470,112762
113430,112736
113504,112799
113578,112849
113535,112791
113484,112765
113443,112743
113517,112842
113602,112824
113535,112827
113458,112768
113443,112756
113538,112824
113629,112847
113540,112818
113477,112770
113482,112767
113526,112830
113597,112837
113550,112816
113468,112765
113463,112760
113552,112841
113603,112828
113541,112831
113526,112793
113483,112746
113590,112828
113618,112842
113557,112823
113523,112806
113529,112769
113589,112847
113629,112867
113567,112855
113508,112764
113547,112787
113637,112859
113649,112879
113624,112827
113545,112792
113560,112774
113650,112885
113648,112841
113629,112850
113560,112752
113540,112795
113641,112819
113708,112884
113661,112823
113598,112778
113573,112797
113675,112841
113669,112906
113628,112875
113570,112781
113569,112816
113658,112852
113697,112860
113633,112811
113501,112768
113485,112756
113594,112805
113557,112803
113467,112784
113343,112675
113374,112696
113424,112781
113387,112742
113271,112693
113185,112624
113208,112653
113230,112704
113206,112648
113165,112628
113079,112576
113084,112604
113188,112638
113179,112673
113124,112654
113059,112592
113126,112629
113215,112693
113197,112672
113214,112676
113116,112622
113182,112658
113297,112737
113286,112738
113288,112725
113184,112651
113275,112685
113372,112782
113330,112767
113321,112738
113275,112668
113310,112747
113394,112776
113429,112781
113378,112733
113290,112692
113328,112718
113451,112781
113433,112800
113369,112763
113321,112657
113399,112732
