11111,11111
0,0
82149,82266
114722,113497
114833,113602
114815,113553
114760,113528
114687,113420
114661,113431
114763,113573
114745,113516
114693,113520
114652,113417
114643,113461
114775,113520
114773,113527
114700,113455
114642,113420
114602,113450
114792,113500
114774,113524
114680,113495
114622,113381
114650,113446
114795,113495
114835,113584
114766,113505
114648,113432
114681,113439
114834,113555
114820,113524
114805,113526
114726,113435
114733,113475
114917,113568
114913,113600
114933,113578
114790,113453
114815,113489
114912,113582
114983,113591
114926,113582
114856,113494
114920,113560
114973,113596
115054,113602
114992,113563
114952,113504
114924,113574
115068,113605
115104,113663
115008,113611
114916,113554
115020,113565
115078,113672
115077,113661
114990,113560
114815,113445
114745,113429
114754,113526
114645,113392
114511,113354
114307,113226
114311,113231
114356,113303
114339,113251
114220,113198
114144,113104
114178,113217
114320,113264
114302,113266
114281,113201
114144,113159
114281,113196
114433,113325
114397,113291
114402,113306
114362,113239
114439,113324
114634,113398
114642,113414
114592,113421
114560,113292
114721,113431
114815,113464
114834,113456
114821,113486
114719,113415
114837,113499
115012,113557
114971,113555
114986,113509
114911,113457
114983,113563
115135,113649
115093,113615
115130,113607
115030,113523
115164,113603
115256,113697
115253,113652
115203,113656
115183,113572
115242,113691
115350,113713
115342,113705
115330,113668
115225,113609
115311,113694
115439,113770
115367,113729
115352,113660
115240,113607
115304,113712
115443,113738
115395,113705
115311,113697
115179,113555
115336,113657
115361,113746
115356,113674
115289,113684
115198,113598
115333,113648
115375,113749
115369,113708
115630,113847
115767,113874
115632,113762
114844,113458
114884,113474
114883,113414
115441,113689
115620,113757
115606,113792
115588,113757
115482,113699
115358,113601
115414,113653
115505,113751
115467,113746
115436,113669
115349,113629
115384,113653
115494,113724
115501,113762
115480,113674
115367,113608
115456,113665
115520,113741
115564,113786
115553,113726
115464,113624
115532,113727
115651,113730
115690,113790
115616,113738
115529,113680
115571,113747
115759,113815
115748,113802
115681,113780
115643,113697
115722,113797
115842,113824
115825,113814
115760,113812
115683,113725
115762,113815
115902,113903
115923,113870
115852,113836
115763,113758
115842,113811
115917,113876
115989,113913
115923,113896
115816,113760
115945,113859
115980,113932
116015,113941
115968,113873
115886,113820
115948,113897
116064,113982
116030,113925
115945,113893
115777,113737
115818,113812
115752,113857
115561,113733
115438,113667
115186,113519
115236,113532
115205,113584
115101,113490
114965,113449
114841,113352
114911,113387
114980,113492
114874,113450
114822,113388
114734,113291
114862,113413
114918,113512
114876,113434
114906,113452
114785,113334
114968,113435
115065,113532
115023,113491
115078,113481
114943,113436
115154,113516
115231,113615
115208,113576
115176,113565
115137,113497
115312,113662
115441,113651
115406,113673
115372,113644
115314,113562
115436,113663
115580,113767
115542,113724
115502,113653
115460,113649
115615,113746
115658,113809
115667,113763
115612,113748
115584,113676
115736,113821
115772,113907
115716,113797
115749,113748
115638,113748
115728,113787
115840,113874
115772,113842
115704,113750
115630,113730
115753,113790
115812,113915
115718,113814
115642,113726
115639,113707
115751,113791
115774,113836
115684,113772
115634,113725
115576,113695
115714,113776
115748,113815
115695,113780
115563,113675
115557,113665
115688,113756
115688,113832
115679,113731
115596,113722
115566,113645
115678,113794
115758,113824
115679,113780
115631,113709
115581,113739
115691,113787
115811,113862
115723,113788
115680,113745
115632,113702
115774,113807
115848,113847
115789,113824
115731,113732
115729,113722
115895,113871
115871,113873
115859,113832
115784,113768
115775,113778
115907,113866
115958,113852
115913,113860
115796,113729
115823,113768
115935,113846
115947,113896
115924,113822
115797,113783
115872,113772
115968,113878
116002,113930
115957,113878
115893,113771
115873,113800
116004,113908
116012,113904
115947,113873
115845,113801
115773,113756
115889,113829
115747,113783
115557,113660
115293,113520
115174,113464
115182,113516
115077,113453
114913,113393
114717,113262
114670,113275
114698,113317
114668,113313
114615,113251
114496,113191
114542,113209
114615,113260
114719,113313
114648,113309
114593,113176
114645,113289
114761,113328
114850,113413
114809,113359
114732,113286
114826,113355
114979,113413
115048,113484
114995,113426
114968,113387
115052,113438
115183,113533
115224,113561
115188,113494
115089,113453
115190,113519
115356,113629
115363,113570
115333,113587
115228,113483
115312,113550
115441,113661
115475,113651
115423,113600
115289,113519
115417,113626
115556,113688
115581,113695
115524,113659
115410,113596
115498,113629
115610,113731
115684,113750
115578,113685
115446,113608
115561,113646
115636,113764
115625,113699
115598,113709
115501,113621
115542,113662
115647,113763
115595,113665
115553,113669
115449,113585
115496,113671
115595,113698
115548,113684
115518,113625
115380,113530
115493,113635
115553,113725
115529,113640
115465,113638
115406,113546
115496,113640
115567,113724
115560,113652
115493,113646
115378,113574
115509,113618
115618,113754
115598,113707
115537,113654
115435,113546
115617,113699
115678,113762
115645,113726
115618,113711
115532,113601
115664,113723
115737,113755
115741,113760
115698,113724
115568,113644
115678,113744
115840,113806
115743,113752
115754,113740
115648,113676
115805,113789
115834,113812
115842,113771
115783,113787
115693,113669
115810,113789
115912,113872
115886,113813
115824,113801
115772,113708
115879,113830
115967,113865
115890,113802
115845,113772
115770,113748
115870,113796
115952,113920
115868,113817
115731,113712
115558,113594
115560,113658
115434,113633
115217,113512
115037,113402
114897,113326
114891,113349
114916,113416
114730,113258
114619,113221
114505,113158
114565,113242
114683,113299
114578,113243
114532,113186
114470,113176
114633,113261
114780,113327
114728,113287
114692,113271
114653,113199
114863,113346
114927,113416
114926,113364
114849,113333
114862,113348
115023,113429
115174,113487
115111,113467
115102,113429
115044,113420
115223,113486
115288,113602
115267,113491
115193,113434
115216,113465
115335,113547
115394,113640
115379,113578
115305,113500
115314,113505
115413,113614
115481,113669
115436,113585
115416,113543
115397,113535
115568,113636
115586,113689
115544,113641
115442,113557
115472,113586
115557,113654
115635,113688
115530,113615
115466,113553
115448,113562
115590,113664
115635,113671
115512,113635
115407,113518
115455,113549
115529,113654
115563,113655
115466,113627
115373,113528
115353,113528
115485,113626
115502,113630
115445,113625
115320,113497
115374,113502
115484,113602
115535,113633
115442,113586
115344,113511
115346,113537
115458,113628
115534,113659
115475,113624
115372,113516
115420,113561
115514,113632
115575,113660
115496,113608
115446,113540
115473,113548
115589,113701
115625,113680
115585,113659
115483,113532
115556,113634
115660,113695
115663,113699
115619,113645
115525,113571
115631,113625
115722,113714
115700,113734
115657,113636
115581,113574
115642,113620
115760,113727
115755,113751
115732,113688
115591,113585
115702,113641
115819,113716
115812,113766
115764,113693
115657,113593
115718,113706
115810,113752
115851,113751
115780,113730
115615,113606
115740,113687
115734,113715
115702,113679
115500,113569
115234,113424
115221,113436
115133,113468
115019,113350
114866,113282
114620,113115
114643,113197
114619,113193
114549,113185
114461,113082
114338,112982
114378,113087
114499,113153
114476,113148
114436,113085
114389,113016
114465,113093
114603,113195
114646,113161
114659,113183
114546,113084
114759,113243
114830,113318
114845,113278
114852,113261
114794,113209
114905,113301
115079,113396
115013,113366
115029,113355
114940,113281
115077,113335
115196,113475
115180,113400
115164,113407
115066,113348
115209,113426
115261,113461
115327,113525
115270,113470
115175,113369
115324,113476
115429,113579
115402,113482
115365,113497
115255,113424
115446,113547
115504,113574
115430,113532
115415,113494
115316,113461
115415,113521
115530,113605
115473,113556
115429,113490
115323,113423
115417,113573
115466,113545
115426,113529
115354,113465
115269,113431
115391,113498
115406,113553
115340,113537
115284,113402
115218,113424
115355,113508
115372,113516
115305,113484
115275,113411
115218,113400
115377,113484
115411,113536
115375,113506
115273,113436
115259,113372
115381,113507
115418,113558
115409,113521
115317,113473
115327,113401
115423,113525
115497,113557
115475,113553
115369,113481
115349,113468
115487,113547
115538,113622
115524,113519
115437,113523
115421,113481
115559,113575
115616,113645
115578,113608
115522,113514
115486,113506
115632,113633
115669,113680
115670,113608
115587,113579
115569,113549
115727,113676
115745,113687
115681,113620
115642,113548
115604,113604
115720,113676
115762,113690
115667,113648
115656,113553
115653,113560
115767,113711
115787,113665
115679,113650
115598,113541
115564,113539
115575,113628
115500,113521
115287,113454
115003,113280
114956,113242
114935,113316
114830,113215
114724,113198
114521,113057
114457,113039
114494,113141
114537,113100
114429,113067
114365,112977
114336,113019
114500,113124
114558,113129
114510,113114
114459,113038
114508,113048
114682,113183
114720,113193
114726,113178
114632,113125
114741,113157
114875,113285
114927,113289
114922,113262
114903,113226
114972,113297
115061,113368
115164,113367
115129,113369
115062,113293
115148,113336
115290,113477
115266,113448
115284,113440
115216,113373
115265,113409
115420,113523
115395,113498
115414,113539
115328,113421
115358,113477
115555,113580
115552,113569
115457,113533
115382,113401
115462,113529
115570,113577
115544,113572
115493,113492
115440,113448
115423,113481
115557,113610
115516,113554
115444,113523
115347,113431
115422,113494
115498,113553
115450,113551
115375,113478
115279,113390
115338,113487
115472,113523
115396,113538
115409,113481
115237,113429
115338,113457
115463,113564
115403,113526
115409,113454
115294,113406
115383,113463
115480,113564
115385,113504
115392,113491
115259,113421
115445,113473
115526,113563
115475,113510
115431,113521
115311,113389
115481,113533
115550,113567
115495,113530
115495,113545
115405,113447
115550,113538
115594,113637
115582,113549
115564,113538
115432,113442
115605,113580
115663,113624
115599,113612
115626,113545
115475,113475
115644,113605
115713,113665
115671,113590
115682,113634
115555,113497
115701,113604
115805,113681
115728,113663
115686,113583
115634,113550
115725,113637
115835,113677
115777,113653
115727,113626
115580,113551
115744,113655
115710,113653
115602,113553
115430,113466
115223,113365
115192,113394
115135,113382
114940,113270
114815,113216
114606,113069
114655,113184
114680,113164
114589,113121
114482,113030
114392,113002
114543,113067
114620,113126
114501,113110
114482,113029
114453,113008
114569,113163
114688,113192
114693,113151
114653,113132
114614,113079
114835,113262
114891,113252
114906,113263
114850,113220
114869,113188
115002,113348
115095,113361
115082,113364
115050,113339
115061,113296
115205,113423
115318,113442
115273,113454
115211,113356
115209,113399
115400,113490
115412,113538
115406,113450
115342,113454
115290,113422
115492,113526
115506,113550
115509,113539
115412,113451
115412,113463
115552,113574
115566,113593
115527,113509
115423,113479
115430,113487
115548,113566
115577,113571
115502,113524
115432,113415
115419,113484
115500,113522
115507,113543
115429,113475
115325,113395
115298,113422
115462,113546
115435,113489
115355,113472
115245,113360
115266,113408
115409,113517
115375,113495
115347,113455
115213,113362
115241,113391
115381,113480
115412,113529
115347,113445
115248,113379
115310,113412
115398,113506
115446,113523
115371,113462
115324,113399
115327,113454
115467,113514
115481,113519
115463,113512
115388,113431
115398,113485
115547,113532
115540,113582
115492,113523
115399,113447
115460,113495
115616,113566
115612,113607
115526,113505
115481,113467
115480,113500
115596,113636
115584,113547
115591,113554
115488,113437
115552,113483
115634,113586
115651,113569
115608,113545
115478,113460
115524,113476
115631,113589
115646,113563
115597,113505
115506,113455
115519,113501
115657,113587
115559,113531
115358,113470
115143,113258
115119,113298
115076,113291
114908,113223
114767,113162
114521,113007
114507,113004
114540,113100
114397,113006
114354,112974
114207,112888
114273,112932
114360,112988
114297,112974
114278,112957
114183,112859
114319,112965
114439,113043
114415,113033
114449,112999
114355,112924
114494,113047
114622,113109
114614,113100
114653,113119
114547,113006
114718,113125
114878,113204
114839,113184
114857,113203
114820,113125
114977,113245
115095,113346
115075,113297
115083,113313
114997,113197
115111,113317
115246,113400
115203,113357
115206,113319
115119,113296
115252,113337
115331,113445
115300,113440
115321,113401
115169,113301
115337,113421
115397,113464
115359,113441
115326,113377
115227,113309
115340,113393
115388,113475
115348,113420
115320,113408
115161,113316
115291,113397
115337,113434
115271,113371
115184,113322
115043,113260
115226,113367
115250,113371
115223,113350
115155,113310
115020,113255
115140,113343
115197,113390
115215,113335
115117,113305
115024,113217
115134,113307
115248,113356
115204,113386
115148,113266
115073,113235
115213,113335
115271,113431
115216,113318
115194,113334
115105,113272
115282,113377
115374,113438
115289,113391
115263,113332
115207,113311
115339,113400
115426,113472
115365,113384
115326,113337
115253,113285
115414,113465
115494,113450
115416,113432
115369,113346
115356,113342
115449,113469
115567,113476
115542,113458
115432,113407
115411,113366
115551,113477
115569,113534
115539,113453
115460,113464
115435,113401
115574,113485
115675,113524
115553,113520
115511,113400
115362,113407
115404,113420
115324,113404
115136,113296
114940,113139
114700,113100
114751,113128
114678,113111
114501,112972
114351,112917
114259,112874
114313,112956
114313,112963
114275,112895
114198,112792
114163,112829
114280,112926
114369,112968
114326,112966
114259,112869
114313,112890
114480,113030
114528,113065
114535,112999
114414,112959
114525,112977
114652,113106
114777,113157
114711,113101
114659,113000
114757,113080
114874,113162
114932,113218
114910,113182
114850,113107
114915,113169
115034,113191
115121,113291
115065,113239
114972,113153
115058,113217
115137,113292
115207,113358
115153,113278
115065,113253
115140,113266
115218,113337
115303,113368
115216,113371
115151,113250
115160,113316
115276,113357
115327,113418
115294,113344
115137,113249
115167,113309
115303,113376
115319,113407
115216,113326
115106,113213
115143,113282
115221,113337
115203,113312
115152,113276
115032,113191
115074,113217
115139,113302
115163,113300
115040,113236
114955,113136
115011,113207
115134,113290
115096,113262
115033,113238
114969,113144
115036,113225
115139,113296
115052,113258
115065,113254
114957,113136
115037,113217
115149,113311
115114,113255
115096,113282
115025,113156
115100,113266
115250,113340
115237,113306
115167,113314
115033,113199
115152,113270
115252,113369
115299,113327
115263,113306
115150,113214
115260,113343
115342,113343
115392,113389
115268,113348
115238,113290
115363,113359
115391,113464
115401,113391
115400,113382
115249,113281
115408,113358
115488,113483
115433,113414
115400,113365
115339,113295
115442,113423
115516,113434
115368,113372
115181,113293
114966,113119
114949,113153
114836,113193
114720,113073
114568,112962
114300,112856
114315,112868
114320,112895
114287,112876
114131,112837
114014,112682
114095,112809
114208,112866
114142,112817
114151,112830
114022,112738
114225,112829
114291,112942
114304,112899
114320,112891
114202,112831
114428,112917
114495,113027
114485,113003
114524,112952
114420,112923
114597,112999
114672,113092
114657,113054
114669,113009
114607,112994
114717,113080
114825,113146
114782,113100
114732,113054
114714,113013
114817,113112
114904,113221
114810,113135
114838,113102
114753,113059
114872,113140
114929,113216
114877,113160
114890,113131
114809,113091
114960,113145
115040,113254
114977,113218
114913,113144
114853,113064
115032,113222
115072,113202
115020,113207
114923,113148
114900,113115
114968,113150
115061,113243
114928,113169
114879,113137
114806,113049
114947,113168
114977,113156
114931,113133
114835,113073
114805,113075
114895,113149
114949,113148
114925,113162
114837,113058
114778,113066
114937,113168
114984,113175
114905,113122
114859,113099
114836,113080
114937,113146
115009,113227
114936,113159
114880,113085
114885,113094
114979,113160
115061,113273
114985,113157
114949,113145
114969,113147
115106,113224
115110,113268
115087,113216
115002,113168
115041,113134
115160,113278
115245,113294
115144,113249
115050,113157
115128,113182
115235,113301
115280,113320
115245,113265
115134,113235
115146,113234
115327,113303
115328,113359
115290,113306
115197,113247
115246,113244
115369,113368
115453,113368
115327,113363
115240,113259
115243,113290
115301,113314
115269,113299
115067,113161
114822,113051
114704,113017
114694,113009
114602,113006
114356,112915
114232,112730
114123,112764
114154,112805
114139,112787
114023,112702
113924,112647
113904,112645
114043,112773
114041,112728
114010,112725
113935,112658
114010,112684
114180,112861
114245,112793
114188,112782
114102,112732
114281,112792
114405,112903
114437,112938
114431,112910
114372,112826
114472,112927
114632,112970
114621,113014
114585,112985
114538,112904
114638,112960
114761,113088
114760,113036
114752,113067
114643,112960
114766,113050
114851,113092
114904,113099
114846,113101
114731,113003
114873,113102
114964,113174
115008,113178
114948,113135
114851,113057
114960,113133
115060,113198
115018,113176
114985,113170
114880,113063
114991,113154
115045,113199
115043,113199
114961,113146
114877,113043
114955,113132
115020,113214
114959,113152
114922,113116
114831,113043
114903,113125
114972,113203
114930,113142
114899,113087
114821,113018
114910,113114
115001,113209
114942,113132
114912,113118
114788,113009
114899,113166
115018,113215
114958,113162
114925,113139
114850,113051
114983,113136
115072,113182
115036,113178
115026,113166
114885,113064
115047,113162
115130,113255
115139,113228
115066,113192
114978,113102
115139,113225
115204,113251
115163,113256
115159,113203
115050,113159
115216,113268
115239,113296
115207,113280
115206,113230
115111,113162
115251,113277
115338,113327
115277,113264
115248,113235
115179,113189
115280,113281
115373,113367
115326,113304
115320,113264
115231,113201
115385,113334
115437,113370
115375,113333
115349,113281
115295,113240
115376,113340
115470,113375
115362,113290
115218,113200
115013,113118
114996,113109
114933,113151
114727,113030
114517,112900
114361,112778
114390,112824
114318,112870
114211,112789
114081,112705
113977,112637
114122,112732
114145,112732
114081,112708
114048,112673
113978,112623
114198,112770
114268,112831
114237,112791
114221,112772
114206,112764
114384,112891
114476,112905
114439,112915
114425,112845
114467,112874
114605,112998
114728,113037
114676,113000
114662,112918
114670,112978
114781,113063
114901,113132
114864,113079
114784,112988
114814,113030
114907,113141
115030,113161
114951,113122
114863,113052
114890,113074
115000,113140
115039,113208
114983,113148
114913,113043
114964,113107
115066,113174
115137,113203
115046,113141
114987,113078
115012,113143
115096,113175
115160,113245
115098,113184
114981,113108
115045,113137
115106,113219
115188,113251
115075,113194
114935,113090
114999,113130
115047,113221
115112,113172
115015,113165
114876,113025
114874,113073
115032,113153
115054,113156
114986,113143
114866,113010
114953,113107
115045,113197
115043,113197
114986,113100
114918,113081
114986,113070
115062,113237
115076,113214
115042,113168
114983,113088
115013,113101
115130,113255
115176,113227
115151,113198
115042,113137
115123,113172
115218,113238
115248,113256
115213,113224
115115,113141
115199,113204
115308,113292
115298,113279
115294,113262
115145,113159
115232,113205
115390,113282
115370,113286
115365,113289
115209,113216
115317,113262
115426,113328
115458,113336
115391,113276
115270,113228
115408,113287
115465,113384
115453,113356
115407,113324
115301,113239
115398,113294
115512,113328
115427,113373
115432,113323
115250,113178
115275,113277
115227,113264
115011,113141
114837,113042
114581,112894
114570,112906
114488,112913
114345,112822
114232,112757
114044,112655
114088,112673
114167,112755
114023,112671
114057,112639
113905,112608
114077,112673
114150,112764
114157,112716
114143,112730
114089,112600
114193,112741
114346,112808
114374,112841
114353,112804
114257,112721
114472,112846
114514,112937
114608,112923
114551,112919
114457,112836
114607,112943
114733,112971
114748,113013
114689,112948
114576,112884
114761,113013
114877,113055
114838,113032
114820,113002
114682,112977
114914,113082
114940,113149
114943,113063
114896,113088
114836,112979
114962,113139
115029,113161
115034,113128
114971,113108
114898,113068
115033,113116
115121,113231
115068,113124
115038,113102
114908,113093
115052,113130
115143,113234
115049,113098
114997,113092
114890,113030
114986,113148
115059,113157
114959,113127
114927,113015
114822,113021
114926,113077
115045,113166
114952,113091
114857,113021
114846,113002
114965,113100
115014,113140
114959,113109
114876,113065
114864,112988
114926,113123
115009,113133
115002,113130
114896,113015
114876,113047
115013,113094
115106,113197
115028,113145
114942,113074
114949,113052
115072,113156
115137,113151
115119,113163
115021,113116
115020,113071
115154,113203
115217,113191
115168,113200
115132,113133
115094,113114
115245,113229
115297,113282
115206,113205
115202,113135
115162,113178
115274,113248
115380,113307
115324,113229
115240,113202
115251,113160
115372,113268
115439,113282
115358,113285
115276,113186
115261,113199
115447,113284
115454,113349
115401,113239
115309,113180
115324,113223
115347,113283
115385,113254
115120,113173
114911,113003
114765,112947
114761,112992
114683,112898
114430,112858
114252,112679
114164,112689
114178,112718
114224,112751
114092,112633
113963,112591
113960,112595
114065,112674
114186,112693
114115,112688
113996,112621
114111,112664
114236,112753
114307,112787
114300,112766
114230,112719
114355,112775
114431,112848
114555,112910
114495,112892
114451,112808
114539,112857
114680,112966
114719,112952
114659,112967
114619,112875
114691,112904
114812,113043
114825,113018
114820,113004
114729,112938
114804,112941
114898,113056
114909,113078
114888,113012
114785,112965
114863,112990
114976,113090
115047,113119
114953,113100
114845,112954
114969,113082
115090,113142
115041,113110
115007,113102
114931,113024
115008,113097
115077,113191
115072,113125
115033,113094
114911,113002
114961,113069
115079,113122
115057,113150
115003,113086
114887,112990
114905,113056
115014,113098
115013,113107
114980,113061
114840,112960
114910,113079
114986,113122
115010,113101
114936,113078
114816,112960
114977,113083
115001,113153
115023,113131
114993,113080
114873,112987
114963,113060
115073,113165
115051,113114
115024,113116
114903,112988
115072,113129
115133,113163
115086,113160
115118,113091
114977,113015
115111,113117
115215,113233
115202,113163
115136,113145
115039,113042
115157,113157
115286,113250
115239,113207
115203,113167
115127,113104
115252,113188
115322,113266
115297,113239
115267,113197
115127,113116
115276,113215
115386,113280
115337,113256
115288,113212
115194,113137
115311,113219
115451,113287
115361,113254
115356,113207
115209,113162
115370,113266
115408,113309
115371,113244
115263,113181
115107,113099
115124,113160
115050,113116
114852,113024
114687,112887
114478,112807
114445,112835
114438,112823
114247,112763
114120,112658
114041,112599
114073,112675
114166,112719
114066,112633
114004,112583
113992,112587
114127,112690
114201,112745
114226,112724
114166,112672
114160,112644
114318,112802
114462,112856
114425,112792
114395,112794
114379,112738
114546,112908
114650,112925
114661,112917
114636,112908
114564,112880
114766,112948
114864,113060
114827,112977
114753,112956
114745,112932
114906,113045
114952,113097
114920,113045
114904,112983
114856,112999
114998,113057
115073,113156
115012,113109
115002,112994
114964,113067
115093,113105
115163,113185
115110,113157
115076,113039
115054,113089
115199,113147
115225,113200
115178,113180
115086,113057
115132,113117
115233,113179
115267,113229
115171,113159
115074,113088
115124,113083
115182,113174
115212,113230
115163,113131
115071,113079
115091,113079
115206,113181
115238,113231
115190,113145
115044,113100
115083,113079
115224,113152
115235,113214
115198,113154
115120,113070
115104,113144
115234,113208
115294,113210
115256,113204
115110,113118
115168,113137
115256,113168
115340,113258
115287,113185
115175,113144
115226,113157
115368,113232
115378,113280
115356,113200
115266,113147
115265,113210
115402,113239
115487,113306
115393,113226
115336,113184
115367,113244
115476,113347
115488,113276
115467,113301
115373,113143
115445,113219
115502,113320
115573,113337
115488,113293
115403,113184
115476,113267
115594,113371
115577,113336
115549,113274
115435,113207
115509,113264
115630,113371
115640,113377
115586,113327
115489,113232
115521,113274
115611,113380
115593,113337
115525,113251
115374,113178
115295,113179
115262,113152
115118,113133
114913,112955
114664,112826
114588,112840
114583,112876
114471,112783
114346,112749
114157,112596
114182,112671
114280,112770
114225,112702
114184,112665
114083,112602
114225,112682
114310,112776
114334,112745
114331,112717
114278,112672
114399,112768
114572,112908
114552,112862
114545,112839
114474,112784
114636,112834
114741,112979
114726,112900
114736,112901
114628,112846
114777,112975
114890,112998
114863,113007
114803,112936
114755,112899
114886,112999
114963,113026
114945,113049
114919,112963
114823,112920
114993,113031
115066,113100
115034,113061
115020,113041
114890,112935
115059,113092
115124,113132
115129,113132
115073,113067
115007,113016
115136,113151
115248,113168
115201,113149
115119,113102
115019,113041
115164,113098
115219,113174
115170,113102
115139,113074
114992,113026
115118,113076
115167,113164
115098,113099
115085,113061
114949,112985
115095,113072
115105,113152
115094,113089
114992,113003
114953,113013
115074,113030
115130,113139
115100,113085
115057,113042
114971,113014
115112,113076
115180,113162
115118,113078
115085,113051
115000,113040
115164,113090
115219,113194
115143,113145
115106,113046
115066,113042
115187,113094
115265,113205
115206,113128
115161,113081
115128,113053
115273,113127
115347,113213
115274,113124
115209,113125
115199,113088
115297,113156
115411,113214
115351,113216
115288,113121
115275,113136
115389,113221
115417,113263
115406,113219
115327,113154
115332,113169
115429,113223
115469,113250
115452,113246
115397,113179
115331,113186
115476,113276
115525,113294
115490,113249
115363,113162
115360,113197
115497,113291
115569,113342
115483,113247
115390,113156
115411,113161
115467,113221
115449,113280
115215,113127
115014,113012
114861,112906
114854,112959
114794,112923
114563,112835
114401,112692
114299,112668
114344,112736
114350,112757
114217,112646
114063,112557
114124,112549
114195,112678
114247,112679
114195,112671
114158,112577
114198,112618
114323,112713
114435,112783
114379,112729
114366,112672
114415,112710
114601,112862
114665,112852
114643,112860
114608,112770
114642,112831
114783,112938
114856,112977
114832,112917
114736,112891
114817,112870
114925,113010
114999,113049
114920,112972
114895,112933
114914,112947
115053,113055
115098,113077
115032,113018
114984,112968
115044,113016
115150,113118
115143,113094
115144,113053
115056,113020
115099,112997
115225,113152
115243,113116
115220,113104
115047,112990
115154,113096
115244,113104
115286,113161
115174,113070
115040,112970
115117,113079
115226,113129
115152,113105
115093,113023
114978,112967
115058,113045
115127,113075
115120,113068
115039,112980
114954,112965
115009,112993
115091,113064
115114,113062
115056,113017
114916,112954
114990,113034
115113,113076
115115,113089
115080,113024
114990,112945
115079,113051
115159,113124
115134,113103
115143,113079
115039,112974
115118,113059
115192,113153
115206,113081
115168,113089
115070,112962
115215,113087
115283,113218
115244,113126
115259,113116
115144,113017
115286,113133
115382,113193
115317,113162
115346,113137
115209,113094
115318,113154
115413,113198
115407,113180
115348,113155
115269,113059
115346,113181
115473,113261
115418,113187
115399,113178
115298,113068
115410,113207
115518,113244
115491,113207
115465,113198
115366,113145
115444,113236
115572,113289
115495,113237
115452,113195
115305,113108
115478,113231
115559,113258
115452,113194
115355,113149
115130,113015
115080,113029
115009,113006
114849,112922
114680,112821
114501,112720
114516,112751
114453,112785
114344,112686
114234,112585
114129,112542
114235,112652
114271,112718
114214,112645
114225,112588
114159,112564
114285,112690
114400,112736
114348,112714
114341,112662
114366,112673
114498,112757
114630,112851
114569,112800
114601,112786
114594,112755
114708,112876
114863,112999
114807,112902
114796,112885
114756,112841
114908,112986
115016,112987
114936,112984
114891,112933
114840,112897
114997,113005
115106,113082
115039,113001
114978,112993
114911,112940
115155,113036
115220,113119
115167,113040
115124,113025
115073,113019
115228,113121
115332,113161
115228,113114
115244,113033
115199,113092
115284,113095
115314,113202
115269,113127
115205,113031
115199,113075
115267,113135
115308,113194
115218,113100
115145,113061
115144,113010
115204,113113
115244,113149
115176,113068
115110,113002
115072,113020
115187,113101
115209,113093
115145,113059
115029,113012
115065,112977
115199,113084
115238,113114
115193,113068
115045,113001
115098,113004
115230,113132
115292,113129
115209,113102
115122,112988
115159,113071
115237,113120
115360,113190
115265,113088
115164,113031
115206,113109
115327,113109
115379,113192
115345,113149
115235,113086
115299,113088
115354,113221
115427,113235
115393,113166
115324,113075
115365,113152
115431,113195
115500,113263
115462,113202
115337,113121
115434,113190
115529,113222
115575,113262
115453,113197
115431,113155
115452,113194
115582,113274
115587,113250
115519,113219
115469,113154
115486,113191
115630,113325
115626,113281
115591,113223
115470,113159
115513,113231
115674,113290
115618,113306
115459,113175
115347,113108
115279,113081
115212,113071
115065,113013
114898,112938
114714,112782
114635,112819
114636,112824
114541,112753
114404,112699
114261,112586
114278,112663
114379,112669
114374,112682
114281,112644
114184,112586
114281,112630
114459,112764
114449,112712
114435,112713
114406,112635
114523,112742
114613,112858
114724,112829
114653,112837
114594,112735
114760,112835
114843,112924
114864,112928
114876,112928
114773,112813
114906,112914
115015,113067
115023,112995
114999,112960
114907,112846
115069,113014
115153,113075
115110,113031
115112,113023
115034,112938
115144,113067
115294,113102
115252,113092
115199,113083
115099,113001
115237,113048
115375,113190
115324,113092
115288,113088
115189,112997
115320,113118
115391,113142
115329,113098
115296,113107
115166,113019
115279,113083
115374,113175
115291,113083
115242,113098
115153,112992
115274,113064
115316,113164
115227,113124
115229,113064
115095,112962
115251,113096
115311,113154
115209,113083
115186,113043
115078,112972
115244,113094
115259,113119
115196,113068
115187,113040
115125,112969
115265,113115
115336,113121
115266,113080
115260,113052
115170,113039
115311,113155
115414,113167
115354,113158
115323,113067
115233,113061
115376,113144
115464,113217
115418,113191
115392,113099
115297,113094
115433,113177
115515,113233
115518,113189
115395,113138
115386,113094
115481,113200
115598,113252
115578,113226
115472,113186
115414,113148
115593,113227
115676,113295
115606,113258
115545,113196
115482,113164
115649,113292
115733,113293
115621,113282
115587,113208
115483,113187
115664,113298
115694,113261
115647,113269
115562,113160
115536,113167
115619,113254
115622,113293
115523,113182
115389,113111
115198,113012
115156,113050
115080,112960
114934,112913
114684,112762
114605,112753
114588,112758
114593,112756
114448,112694
114299,112593
114285,112598
114373,112703
114429,112702
114390,112670
114251,112576
114320,112630
114472,112717
114531,112711
114500,112735
114409,112611
114470,112665
114630,112792
114703,112836
114655,112797
114658,112737
114657,112782
114816,112879
114920,112954
114843,112923
114784,112799
114830,112857
114967,112948
115034,112989
114963,112940
114848,112881
114921,112896
115075,113012
115112,113034
115067,112983
114947,112885
115039,112946
115107,113075
115175,113031
115142,113020
115074,112931
115123,113027
115222,113068
115272,113123
115201,113039
115162,112982
115160,113058
115307,113110
115289,113119
115266,113047
115150,112985
115213,113020
115273,113099
115288,113102
115223,113029
115134,112962
115144,113019
115259,113081
115220,113060
115187,113044
115008,112927
115123,113003
115205,113056
115232,113084
115121,113037
115033,112894
115133,113004
115185,113027
115215,113077
115133,113026
115040,112896
115168,113006
115229,113096
115280,113084
115185,113031
115090,112943
115147,113058
115285,113088
115250,113047
115260,113048
115133,112986
115254,113049
115339,113111
115357,113125
115273,113104
115204,112983
115313,113068
115365,113160
115418,113111
115359,113130
115275,112999
115383,113135
115496,113188
115422,113168
115440,113118
115313,113044
115463,113139
115533,113244
115515,113159
115479,113163
115386,113057
115454,113172
115606,113201
115494,113213
115495,113168
115408,113073
115521,113148
115606,113214
115597,113238
115510,113157
115427,113091
115544,113199
115651,113220
115588,113209
115455,113127
115333,113054
115323,113048
115284,113098
115054,112985
114919,112842
114673,112762
114730,112758
114703,112808
114544,112688
114421,112618
114246,112557
114384,112636
114381,112702
114370,112623
114302,112592
114248,112528
114377,112660
114479,112768
114465,112640
114448,112644
114404,112600
114544,112732
114648,112810
114636,112755
114648,112750
114624,112690
114772,112826
114865,112930
114862,112867
114832,112826
114804,112814
114925,112887
115050,112967
115007,112944
114959,112901
114909,112850
115066,112979
115162,113039
115109,112990
115017,112953
115022,112889
115134,113005
115251,113077
115203,113020
115116,112976
115148,112958
115278,113066
115297,113090
115279,113080
115206,113011
115159,112985
115353,113072
115392,113151
115326,113084
115236,113009
115179,113002
115371,113100
115364,113138
115315,113076
115237,113007
115215,113010
115292,113066
115367,113161
115268,113038
115168,112965
115180,112987
115219,113051
115282,113124
115258,113055
115153,112949
115155,113006
115230,113052
115334,113120
115273,113063
115184,112980
115195,112975
115324,113071
115348,113126
115307,113079
115188,112995
115248,113021
115335,113102
115442,113154
115339,113070
115277,113018
115301,113010
115406,113140
115497,113135
115402,113076
115308,113046
115372,113088
115475,113178
115539,113158
115459,113120
115386,113081
115453,113119
115535,113198
115594,113203
115532,113166
115454,113106
115499,113133
115544,113197
115637,113216
115559,113199
115454,113104
115487,113125
115606,113223
115617,113194
115598,113183
115490,113124
115577,113180
115622,113278
115715,113233
115653,113176
115556,113129
115577,113165
115723,113297
115691,113222
115642,113225
115576,113134
115614,113154
115667,113239
115590,113178
115466,113144
115243,112962
115109,112955
115109,112951
114983,112898
114793,112815
114632,112655
114605,112685
114642,112766
114581,112678
114470,112653
114340,112532
114366,112584
114533,112684
114461,112707
114449,112665
114365,112576
114467,112656
114620,112746
114660,112755
114593,112743
114576,112653
114722,112754
114816,112849
114883,112820
114889,112830
114746,112800
114922,112874
115022,112927
115049,112920
115034,112942
114947,112810
115045,112938
115184,113007
115178,112973
115150,112950
115056,112875
115175,113018
115258,113038
115298,113087
115271,112991
115148,112935
115292,113046
115386,113142
115398,113064
115353,113083
115219,112980
115382,113066
115455,113164
115418,113083
115400,113057
115278,113003
115395,113060
115490,113156
115394,113092
115374,113033
115292,112997
115380,113043
115405,113136
115366,113042
115342,113034
115149,112950
115296,113057
115342,113080
115258,113037
115252,113002
115112,112935
115245,113012
115358,113049
115250,113052
115233,112998
115109,112929
115274,113008
115341,113116
115264,113010
115271,113003
115161,112941
115324,113065
115343,113086
115359,113090
115266,112994
115206,112953
115315,113067
115380,113128
115372,113048
115356,113028
115248,112947
115421,113121
115459,113131
115426,113096
115372,113034
115332,112997
115450,113091
115535,113180
115466,113116
115405,113055
115391,113036
115546,113144
115576,113183
115549,113093
115455,113049
115422,113028
115573,113188
115577,113162
115555,113177
115484,113083
115479,113102
115593,113157
115662,113226
115593,113147
115518,113139
115508,113101
115617,113156
115697,113244
115651,113177
115547,113123
115527,113100
115634,113126
115654,113180
115580,113141
115356,113039
115197,112914
115190,113003
115085,112933
114918,112823
114746,112719
114613,112675
114645,112693
114667,112726
114491,112631
114402,112544
114347,112532
114478,112658
114474,112674
114452,112635
114371,112528
114397,112564
114538,112689
114649,112723
114567,112680
114545,112631
114593,112643
114775,112769
114841,112817
114797,112774
114713,112748
114807,112760
114955,112861
114995,112928
115026,112894
114915,112828
114989,112858
115121,112979
115165,112966
115164,112945
115067,112873
115092,112907
115263,112995
115296,113076
115284,112996
115142,112916
115236,112941
115363,113094
115383,113046
115347,113063
115277,112973
115301,113021
115457,113134
115455,113119
115445,113090
115318,112999
115370,113044
115470,113103
115483,113097
115442,113090
115329,112989
115399,113030
115442,113136
115469,113140
115410,113020
115290,112975
115302,112962
115374,113132
115370,113047
115314,113014
115183,112959
115218,112964
115369,113071
115307,113028
115280,113022
115158,112896
115242,112985
115366,113048
115370,113103
115318,113006
115208,112925
115302,113010
115379,113093
115406,113083
115328,113014
115280,112939
115316,113053
115461,113115
115450,113082
115430,113067
115281,112989
115433,113062
115505,113124
115520,113105
115416,113056
115358,112981
115442,113088
115575,113163
115541,113129
115517,113131
115396,113013
115534,113129
115623,113181
115575,113133
115558,113106
115483,113055
115551,113138
115676,113187
115629,113197
115605,113114
115538,113062
115629,113152
115757,113273
115656,113189
115673,113182
115524,113080
115671,113167
115752,113248
115725,113217
115673,113144
115569,113086
115641,113146
115715,113243
115599,113148
115453,113029
115168,112882
115198,112953
115135,112977
114973,112839
114789,112776
114634,112625
114679,112688
114652,112725
114567,112615
114477,112581
114349,112502
114425,112606
114537,112639
114531,112652
114495,112565
114398,112552
114570,112670
114657,112700
114679,112693
114651,112673
114613,112625
114754,112736
114876,112843
114839,112803
114882,112771
114811,112736
114964,112843
115047,112948
115020,112860
115024,112803
114979,112796
115102,112907
115236,112993
115165,112948
115150,112918
115101,112864
115253,112954
115317,113056
115259,112954
115230,112911
115224,112935
115366,113065
115414,113099
115391,113021
115308,112991
115299,112946
115441,113069
115507,113106
115434,113060
115386,112996
115336,112971
115465,113061
115528,113119
115448,113070
115377,113001
115344,112982
115483,113061
115522,113111
115442,113062
115348,112992
115294,112966
115423,113054
115524,113100
115400,113042
115324,112996
115281,112958
115392,113048
115443,113079
115344,113035
115301,112971
115267,112970
115387,113036
115446,113077
115406,113064
115339,112952
115280,112993
115462,113073
115469,113102
115444,113039
115361,112982
115371,112992
115452,113084
115487,113120
115487,113075
115380,112991
115449,112992
115514,113108
115579,113138
115517,113125
115467,112987
115522,113042
115605,113086
115675,113170
115597,113130
115497,113021
115561,113085
115647,113143
115708,113166
115613,113153
115543,113057
115583,113092
115671,113163
115771,113218
115693,113159
115597,113095
115597,113108
115747,113207
115752,113209
115735,113154
115579,113089
115660,113108
115768,113211
115782,113209
115691,113150
115608,113065
115592,113118
115631,113123
115538,113090
115296,112965
115070,112820
114971,112821
114985,112865
114861,112780
114723,112676
114511,112578
114501,112560
114567,112623
114519,112612
114488,112545
114364,112480
114442,112536
114550,112591
114552,112668
114549,112572
114472,112536
114559,112611
114688,112668
114734,112728
114697,112670
114663,112644
114701,112710
114919,112778
114931,112818
114888,112772
114837,112710
114881,112800
115037,112871
115053,112852
115033,112831
114943,112741
115007,112823
115152,112909
115133,112897
115120,112905
115035,112814
115101,112884
115258,112958
115251,112966
115202,112920
115103,112821
115217,112949
115330,113054
115298,112987
115331,112995
115200,112886
115353,112982
115402,113041
115404,113051
115388,112970
115246,112923
115346,112975
115459,113110
115386,113032
115376,112983
115267,112914
115367,112972
115442,113062
115380,113001
115358,112969
115180,112911
115341,112956
115395,113068
115364,112991
115331,112949
115198,112857
115301,112964
115428,113079
115341,113028
115300,112961
115172,112872
115349,112989
115411,113023
115374,112999
115327,112985
115248,112892
115375,113021
115446,113075
115410,113006
115317,113011
115268,112912
115405,113035
115494,113056
115456,113048
115411,112998
115331,112935
115463,113065
115515,113060
115497,113028
115457,113034
115396,112986
115530,113086
115603,113114
115567,113091
115572,113034
115490,113027
115590,113108
115611,113168
115637,113095
115573,113066
115515,113032
115662,113130
115718,113162
115687,113140
115617,113071
115562,113048
115683,113157
115785,113195
115695,113147
115643,113091
115612,113032
115757,113174
115847,113219
115734,113164
115678,113114
115608,113064
115685,113101
115652,113124
115540,113051
115279,112940
115121,112816
115127,112893
115075,112846
114912,112755
114705,112678
114562,112590
114685,112676
114598,112617
114563,112577
114446,112507
114392,112509
114550,112576
114597,112670
114517,112609
114522,112545
114487,112551
114644,112689
114764,112732
114722,112661
114693,112639
114733,112646
114898,112776
114964,112824
114977,112788
114898,112762
114911,112733
115072,112903
115124,112910
115117,112871
115068,112804
115054,112803
115222,112950
115244,112933
115188,112937
115138,112860
115120,112861
115308,112946
115333,112999
115275,112907
115206,112867
115241,112889
115356,112974
115463,113022
115363,113018
115350,112927
115331,112955
115469,113059
115488,113069
115415,112995
115375,112968
115344,112944
115487,113069
115511,113063
115435,113013
115340,112935
115343,112980
115481,113004
115507,113073
115414,112986
115307,112902
115338,112948
115407,112953
115429,113015
115364,112985
115256,112904
115288,112947
115420,113043
115387,113011
115357,112979
115274,112890
115296,112931
115444,113059
115456,113039
115392,112978
115341,112939
115357,112968
115423,113026
115432,113079
115454,112975
115348,112943
115386,112961
115531,113077
115499,113061
115477,113028
115364,112921
115446,113023
115539,113021
115550,113069
115532,113064
115406,112951
115507,113015
115603,113053
115617,113107
115566,113050
115433,112985
115539,113041
115640,113101
115645,113089
115606,113099
115499,112990
115597,113079
115679,113131
115688,113157
115624,113065
115515,113032
115640,113094
115720,113183
115711,113137
115683,113108
115562,113035
115689,113089
115768,113160
115719,113141
115713,113131
115625,113054
115677,113120
115777,113224
115634,113111
115603,113045
115347,112899
115343,112958
115280,112937
115152,112872
115002,112784
114795,112620
114779,112674
114794,112692
114708,112673
114605,112563
114479,112500
114570,112566
114644,112654
114627,112596
114547,112612
114494,112494
114623,112593
114737,112731
114724,112677
114732,112669
114660,112602
114791,112713
114946,112768
114936,112737
114923,112747
114892,112700
115018,112841
115156,112846
115114,112856
115108,112856
115034,112780
115173,112919
115302,112947
115257,112954
115243,112899
115140,112800
115258,112913
115373,113025
115326,112946
115337,112972
115265,112875
115398,112953
115495,113032
115426,113023
115430,112945
115322,112935
115468,113036
115571,113110
115516,113045
115449,112963
115422,112960
115476,113072
115529,113068
115510,113025
115459,112984
115351,112965
115493,112992
115514,113089
115443,113006
115381,112953
115351,112905
115413,113009
115504,113080
115371,112958
115350,112917
115303,112880
115398,112967
115482,113032
115379,112978
115305,112954
115268,112865
115378,113027
115482,113002
115418,112969
115327,112929
115287,112903
115419,112977
115487,113043
115430,112987
115364,112937
115332,112943
115461,113024
115524,113060
115475,113031
115423,112963
115386,112957
115515,113057
115568,113077
115544,113027
115448,112963
115419,112986
115557,113071
115609,113108
115554,113044
115495,112968
115478,112992
115627,113084
115621,113096
115603,113077
115515,112998
115526,113003
115693,113108
115682,113124
115651,113078
115531,113042
115583,112992
115689,113110
115767,113195
115666,113084
115600,113012
115601,113035
115753,113130
115763,113127
115718,113124
115601,113017
115630,113063
115702,113111
115707,113173
115537,113041
115360,112907
115194,112865
115195,112907
115149,112836
114965,112744
114739,112610
114699,112612
114713,112650
114681,112637
114562,112558
114447,112488
114476,112488
114530,112579
114617,112597
114554,112534
114481,112482
114523,112525
114667,112654
114726,112659
114681,112643
114650,112556
114745,112645
114857,112763
114912,112728
114903,112727
114857,112676
114940,112752
115021,112843
115138,112847
115099,112806
114998,112738
115057,112803
115196,112902
115210,112884
115174,112871
115098,112773
115173,112845
115314,112944
115331,112943
115260,112914
115196,112798
115271,112879
115414,112960
115420,112989
115380,112928
115301,112883
115390,112944
115489,113006
115480,113000
115425,112988
115321,112894
115403,112971
115501,113025
115472,112978
115435,112983
115334,112896
115367,112980
115456,113001
115427,112992
115384,112962
115227,112873
115314,112900
115408,113005
115425,112926
115358,112931
115243,112829
115319,112939
115397,112971
115339,112956
115330,112946
115223,112847
115346,112930
115394,112990
115377,112992
115348,112947
115223,112847
115371,112941
115416,113014
115440,113009
115401,112947
115292,112824
115445,112996
115510,113037
115478,112946
115450,112970
115362,112877
115470,113009
115593,113061
115495,113027
115465,112989
115407,112916
115524,113020
115641,113052
115550,113047
115556,113013
115451,112906
115584,113065
115689,113060
115636,113052
115614,113036
115479,112961
115636,113074
115745,113111
115670,113060
115649,113066
115567,112999
115675,113075
115737,113085
115688,113099
115674,113056
115558,112980
115747,113093
115766,113148
115690,113055
115692,113032
115577,113000
115655,113081
115691,113091
115507,113011
115356,112870
115110,112771
115116,112790
115063,112818
114908,112698
114708,112568
114597,112496
114592,112580
114635,112606
114535,112517
114411,112439
114364,112383
114511,112526
114568,112524
114491,112496
114474,112486
114455,112440
114605,112577
114678,112629
114671,112598
114626,112557
114631,112554
114772,112648
114888,112746
114880,112681
114808,112659
114825,112653
115003,112746
115046,112788
115026,112789
114974,112736
114954,112702
115092,112810
115155,112863
115133,112817
115088,112777
115063,112786
115202,112874
115263,112906
115177,112862
115156,112799
115146,112806
115253,112878
115321,112954
115266,112866
115229,112821
115223,112827
115361,112966
115385,112977
115319,112915
115266,112835
115265,112843
115365,112953
115432,112940
115347,112921
115265,112831
115275,112849
115382,112943
115367,112970
115327,112881
115227,112804
115226,112804
115321,112896
115344,112914
115284,112891
115166,112806
115201,112829
115314,112897
115332,112934
115310,112873
115206,112806
115197,112842
115319,112905
115375,112936
115314,112886
115213,112806
115252,112843
115355,112918
115399,112934
115328,112910
115241,112846
115289,112876
115383,112943
115441,112945
115372,112913
115301,112878
115359,112898
115410,112978
115491,113010
115450,112925
115370,112853
115414,112912
115517,113018
115559,113019
115477,112968
115418,112905
115485,112929
115536,113023
115592,113036
115559,112993
115492,112910
115527,112952
115630,113064
115641,113049
115595,113006
115496,112912
115598,112995
115702,113074
115681,113078
115650,113033
115542,112929
115602,113021
115742,113084
115730,113080
115665,113035
115538,112944
115623,113001
115700,113054
115633,113049
115516,112962
115254,112818
115201,112800
115189,112825
115054,112744
114862,112652
114642,112511
114636,112527
114671,112564
114580,112509
114504,112473
114374,112365
114427,112465
114515,112509
114495,112491
114476,112457
114378,112419
114518,112503
114623,112609
114641,112549
114638,112546
114593,112479
114706,112585
114813,112719
114814,112650
114862,112630
114733,112613
114928,112649
115066,112812
115030,112710
115058,112755
114927,112695
115105,112737
115219,112883
115177,112813
115163,112806
115046,112699
115172,112811
115322,112902
115276,112855
115233,112836
115146,112740
115272,112866
115379,112926
115337,112890
115318,112867
115232,112833
115389,112894
115463,112963
115380,112915
115378,112892
115292,112830
115406,112913
115498,112978
115412,112934
115376,112896
115240,112815
115368,112923
115447,112992
115403,112893
115340,112877
115247,112802
115320,112882
115377,112930
115323,112879
115277,112836
115178,112772
115316,112863
115387,112954
115313,112879
115243,112829
115213,112789
115339,112879
115378,112949
115317,112883
115275,112827
115241,112823
115364,112886
115414,112947
115376,112904
115312,112840
115293,112809
115414,112916
115466,112976
115403,112915
115374,112866
115310,112833
115436,112935
115521,112964
115482,112951
115408,112875
115332,112847
115501,112931
115565,113004
115518,112951
115440,112882
115400,112874
115581,112988
115623,113010
115551,112950
115483,112907
115455,112909
115604,112986
115667,113028
115568,112973
115511,112934
115496,112915
115587,112969
115670,113020
115622,112980
115555,112907
115531,112914
115603,112988
115676,113035
115639,112989
115562,112920
115570,112916
115657,112996
115713,113073
115608,112985
115518,112889
115472,112868
115434,112922
115367,112878
115139,112761
114967,112640
114879,112571
114795,112616
114770,112598
114618,112495
114439,112358
114416,112353
114459,112431
114531,112463
114399,112400
114323,112301
114336,112317
114456,112437
114546,112479
114506,112428
114468,112413
114495,112394
114658,112520
114713,112578
114700,112524
114662,112499
114711,112485
114863,112620
114899,112628
114886,112639
114816,112544
114915,112653
115004,112696
115113,112708
115024,112699
114988,112638
114991,112634
115134,112772
115171,112779
115168,112766
115103,112687
115134,112729
115258,112823
115287,112856
115216,112780
115195,112712
115258,112767
115374,112888
115360,112871
115299,112828
115248,112746
115308,112785
115373,112903
115370,112827
115329,112846
115236,112775
115260,112813
115349,112868
115349,112850
115244,112797
115163,112706
115218,112778
115284,112828
115314,112863
115242,112781
115107,112677
115133,112764
115271,112833
115232,112820
115169,112750
115062,112639
115155,112776
115258,112792
115257,112795
115176,112752
115115,112710
115177,112723
115299,112825
115253,112818
115257,112799
115092,112731
115235,112807
115346,112832
115307,112810
115307,112816
115180,112746
115323,112818
115387,112906
115401,112889
115337,112840
115252,112753
115374,112834
115419,112922
115440,112901
115416,112879
115287,112747
115439,112897
115504,112931
115512,112904
115457,112890
115306,112811
115490,112895
115549,112941
115535,112903
115461,112924
115389,112791
115540,112921
115633,113010
115557,112912
115558,112913
115411,112834
115545,112938
115661,113020
115604,112950
115580,112937
115453,112828
115564,112928
115692,113000
115673,112976
115552,112948
115424,112793
115492,112907
115485,112900
115299,112788
115072,112679
114879,112572
114853,112575
114863,112576
114620,112500
114524,112393
114347,112280
114390,112387
114465,112385
114363,112367
114296,112285
114230,112230
114327,112331
114434,112411
114395,112368
114387,112347
114336,112315
114474,112397
114591,112509
114572,112475
114563,112405
114551,112419
114696,112467
114833,112600
114784,112573
114795,112546
114737,112489
114883,112632
114990,112677
114989,112649
114901,112592
114908,112558
115023,112691
115148,112743
115092,112717
115027,112672
114993,112623
115155,112749
115234,112779
115188,112718
115149,112723
115110,112649
115252,112777
115295,112825
115281,112791
115183,112754
115150,112681
115281,112781
115366,112850
115304,112787
115236,112765
115154,112684
115270,112838
115316,112847
115292,112804
115155,112698
115128,112684
115244,112773
115299,112798
115186,112755
115165,112672
115071,112702
115232,112795
115211,112775
115158,112736
115094,112663
115080,112664
115169,112772
115247,112784
115191,112754
115066,112652
115103,112695
115237,112772
115251,112816
115214,112752
115142,112674
115132,112719
115279,112810
115301,112815
115295,112782
115180,112718
115214,112686
115305,112832
115401,112891
115327,112785
115232,112727
115236,112759
115398,112879
115426,112882
115393,112842
115276,112787
115322,112817
115481,112891
115504,112910
115490,112845
115371,112808
115429,112788
115505,112910
115570,112930
115541,112900
115389,112825
115450,112837
115562,112943
115592,112910
115565,112879
115452,112844
115493,112824
115600,112946
115594,112941
115560,112916
115504,112795
115508,112909
115644,112993
115641,112939
115581,112927
115462,112785
115486,112872
115502,112888
115317,112798
115146,112665
114936,112561
114861,112565
114822,112548
114725,112494
114543,112405
114383,112294
114362,112290
114422,112373
114398,112351
114288,112334
114191,112189
114311,112264
114399,112342
114408,112348
114358,112353
114313,112234
114433,112384
114559,112452
114589,112438
114562,112424
114483,112351
114614,112454
114773,112531
114775,112536
114768,112517
114666,112470
114840,112575
114947,112599
114950,112610
114935,112597
114816,112537
114949,112571
115008,112675
115073,112665
115044,112647
114916,112559
115033,112594
115126,112694
115114,112704
115125,112676
115016,112611
115124,112659
115190,112796
115257,112734
115178,112692
115120,112631
115194,112738
115305,112819
115246,112773
115215,112720
115113,112650
115245,112761
115282,112802
115256,112736
115184,112713
115079,112622
115199,112723
115301,112795
115209,112713
115178,112684
115014,112597
115139,112688
115239,112768
115206,112732
115134,112689
115014,112588
115150,112675
115203,112771
115206,112731
115153,112683
115052,112620
115194,112706
115275,112769
115238,112751
115168,112736
115095,112659
115243,112705
115334,112789
115297,112732
115219,112681
115183,112675
115259,112752
115323,112813
115301,112761
115301,112766
115161,112679
115345,112812
115406,112857
115327,112810
115347,112781
115263,112687
115400,112835
115446,112865
115438,112820
115369,112757
115332,112760
115457,112800
115527,112902
115468,112848
115460,112790
115408,112775
115466,112871
115570,112912
115519,112870
115456,112792
115424,112768
115527,112883
115618,112940
115574,112884
115475,112813
115478,112800
115575,112881
115604,112951
115562,112848
115528,112848
115425,112803
115516,112863
115499,112865
115258,112713
115036,112597
114920,112504
114892,112519
114844,112517
114675,112439
114438,112310
114321,112262
114397,112331
114411,112299
114301,112272
114220,112162
114145,112156
114263,112223
114370,112333
114270,112266
114273,112219
114246,112231
114410,112304
114509,112409
114463,112307
114433,112299
114477,112313
114633,112447
114691,112479
114653,112421
114629,112398
114655,112414
114796,112527
114872,112559
114799,112514
114753,112443
114788,112495
114903,112555
115012,112622
114907,112542
114869,112514
114884,112562
115039,112624
115071,112672
115031,112624
114899,112543
114969,112560
115110,112686
115147,112702
115126,112631
115039,112596
115041,112613
115215,112690
115252,112775
115177,112663
115077,112649
115078,112610
115206,112735
115239,112751
115176,112690
115070,112624
115107,112667
115181,112680
115228,112721
115121,112692
115014,112582
115054,112612
115113,112716
115158,112707
115116,112683
115008,112547
115057,112628
115172,112702
115177,112722
115123,112666
115003,112561
115088,112608
115136,112731
115197,112697
115178,112676
115036,112576
115158,112618
115225,112742
115239,112760
115219,112702
115088,112598
115190,112649
115269,112779
115301,112737
115242,112691
115192,112635
115214,112721
115387,112785
115369,112784
115280,112736
115239,112674
115280,112759
115454,112819
115424,112814
115381,112778
115286,112699
115366,112762
115489,112875
115489,112829
115443,112821
115328,112688
115416,112803
115537,112819
115525,112855
115490,112827
115372,112737
115472,112803
115553,112880
115568,112872
115541,112798
115411,112733
115507,112821
115567,112921
115591,112863
115551,112881
115430,112766
115578,112871
115627,112886
115637,112895
115569,112822
115419,112721
115496,112831
115524,112867
115308,112738
115158,112610
114877,112464
114882,112505
114829,112526
114644,112390
114554,112344
114339,112260
114392,112275
114402,112328
114338,112275
114301,112201
114124,112136
114296,112200
114369,112312
114344,112273
114337,112264
114220,112179
114420,112281
114514,112390
114526,112369
114507,112364
114480,112254
114672,112442
114796,112504
114755,112472
114778,112481
114712,112407
114818,112539
115003,112609
114964,112567
114952,112557
114850,112500
115008,112584
115105,112689
115040,112597
115063,112630
114971,112563
115138,112645
115207,112751
115150,112685
115175,112646
115103,112615
115203,112696
115305,112786
115213,112690
115253,112684
115175,112630
115275,112689
115337,112824
115318,112765
115277,112644
115216,112655
115293,112734
115373,112764
115275,112720
115230,112662
115176,112591
115245,112716
115348,112797
115225,112705
115179,112630
115130,112583
115183,112717
115300,112774
115186,112672
115075,112630
115077,112570
115154,112675
115247,112734
115185,112669
115128,112593
115057,112598
115218,112652
115307,112757
115195,112674
115174,112617
115142,112616
115251,112724
115346,112778
115269,112704
115240,112665
115185,112655
115340,112778
115395,112799
115323,112782
115285,112688
115260,112686
115409,112818
115434,112774
115387,112769
115304,112673
115332,112734
115454,112800
115481,112857
115415,112769
115387,112749
115352,112736
115472,112811
115558,112873
115467,112838
115437,112729
115440,112757
115512,112842
115600,112911
115519,112833
115436,112761
115442,112790
115572,112824
115607,112888
115574,112859
115480,112765
115466,112800
115581,112827
115648,112922
115593,112847
115499,112782
115547,112806
115601,112889
115664,112922
115595,112845
115473,112784
115485,112754
115481,112848
115374,112792
115202,112663
114982,112501
114892,112493
114845,112525
114736,112470
114669,112388
114431,112266
114401,112246
114479,112297
114474,112326
114364,112256
114280,112168
114289,112239
114422,112279
114439,112313
114442,112279
114351,112197
114454,112290
114550,112421
114643,112421
114630,112365
114589,112306
114688,112415
114808,112491
114858,112504
114825,112482
114768,112419
114862,112463
114972,112579
115024,112597
115005,112563
114922,112488
115025,112548
115117,112627
115134,112672
115106,112633
115033,112527
115094,112613
115270,112695
115221,112706
115207,112672
115100,112578
115212,112659
115338,112729
115325,112728
115273,112708
115190,112626
115275,112694
115402,112775
115386,112732
115295,112720
115174,112641
115261,112704
115406,112789
115391,112761
115291,112690
115174,112610
115246,112654
115309,112732
115284,112729
115194,112639
115122,112600
115175,112626
115214,112742
115209,112659
115200,112665
115068,112539
115170,112628
115210,112710
115178,112661
115196,112622
115037,112520
115208,112662
115285,112705
115229,112690
115236,112643
115073,112546
115220,112667
115281,112731
115249,112724
115247,112702
115169,112585
115262,112703
115392,112807
115321,112728
115284,112676
115211,112605
115329,112690
115427,112793
115401,112767
115380,112740
115267,112622
115428,112777
115514,112831
115470,112774
115430,112740
115315,112670
115476,112769
115565,112822
115535,112793
115480,112761
115338,112694
115540,112798
115566,112845
115499,112798
115486,112760
115379,112718
115580,112847
115617,112895
115573,112848
115527,112769
115462,112702
115589,112836
115620,112910
115584,112809
115558,112825
115501,112739
115597,112819
115607,112902
115548,112818
115429,112740
115245,112652
115212,112658
115145,112624
114973,112499
114768,112419
114623,112330
114636,112361
114585,112396
114457,112260
114375,112188
114246,112127
114416,112218
114411,112318
114354,112244
114268,112175
114302,112181
114423,112265
114541,112356
114482,112317
114468,112263
114445,112241
114636,112366
114721,112403
114728,112379
114621,112372
114652,112376
114850,112494
114948,112501
114898,112516
114847,112450
114862,112479
114968,112556
115104,112649
115025,112576
115000,112514
114968,112509
115101,112621
115182,112672
115133,112607
115046,112560
115080,112602
115204,112654
115268,112687
115241,112678
115189,112585
115179,112601
115277,112701
115333,112750
115291,112666
115215,112627
115268,112663
115324,112738
115402,112735
115358,112703
115209,112652
115253,112667
115329,112731
115395,112771
115296,112696
115181,112595
115206,112657
115314,112704
115355,112723
115266,112665
115116,112572
115157,112627
115270,112681
115294,112686
115224,112692
115152,112551
115148,112595
115269,112677
115327,112701
115230,112664
115145,112609
115195,112606
115254,112687
115326,112710
115258,112659
115176,112618
115218,112634
115294,112690
115327,112728
115298,112664
115250,112626
115282,112649
115357,112725
115397,112760
115314,112714
115255,112617
115324,112664
115372,112758
115424,112780
115354,112704
115254,112626
115358,112668
115437,112795
115464,112779
115393,112737
115319,112645
115331,112675
115459,112758
115441,112720
115398,112732
115316,112618
115432,112700
115470,112790
115485,112809
115429,112724
115350,112635
115426,112725
115529,112779
115539,112797
115462,112714
115334,112671
115448,112730
115501,112779
115533,112780
115402,112754
115315,112625
115334,112649
115301,112685
115181,112580
114992,112508
114728,112305
114697,112329
114646,112331
114519,112264
114386,112184
114171,112063
114199,112128
114246,112155
114196,112085
114107,112086
114008,111996
114102,112080
114142,112145
114185,112105
114179,112144
114094,112061
114218,112162
114333,112258
114323,112172
114355,112183
114248,112088
114441,112262
114571,112293
114560,112313
114526,112284
114499,112246
114631,112347
114756,112429
114731,112359
114766,112390
114637,112295
114797,112419
114927,112538
114926,112459
114887,112441
114805,112382
114926,112500
115082,112559
114973,112528
114970,112508
114877,112415
115026,112505
115096,112607
115090,112568
115036,112540
114927,112471
115119,112586
115147,112625
115117,112610
115039,112538
114941,112478
115102,112599
115151,112579
115095,112595
115080,112530
114981,112465
115104,112596
115167,112593
115080,112549
115027,112534
114932,112485
115050,112552
115135,112632
115019,112561
115011,112492
114918,112419
115049,112540
115052,112610
115059,112528
115002,112476
114951,112451
115043,112528
115090,112620
115063,112560
115049,112533
114969,112472
115061,112558
115169,112633
115070,112545
115084,112522
114991,112488
115154,112612
115229,112657
115122,112588
115105,112553
115082,112498
115174,112584
115283,112659
115215,112596
115144,112575
115125,112528
115264,112666
115361,112643
115291,112672
115186,112587
115195,112596
115301,112679
115387,112724
115309,112689
115294,112636
115179,112600
115359,112715
115439,112744
115344,112676
115317,112627
115279,112642
115386,112718
115469,112761
115401,112721
115324,112645
115301,112616
115461,112737
115469,112768
115443,112730
115315,112660
115372,112669
115434,112751
115504,112765
115433,112697
115310,112612
115220,112573
115218,112612
115143,112579
114937,112449
114707,112322
114598,112269
114557,112291
114502,112301
114392,112182
114194,112051
114184,112044
114259,112141
114266,112144
114138,112093
114043,111998
114089,112031
114237,112119
114266,112186
114245,112147
114186,112085
114257,112127
114366,112226
114440,112226
114443,112243
114358,112161
114438,112215
114609,112303
114654,112366
114638,112327
114552,112253
114622,112345
114775,112389
114858,112456
114777,112403
114760,112349
114810,112439
114910,112452
114998,112537
114951,112481
114836,112402
114921,112461
115027,112564
115083,112585
115010,112527
114970,112437
115030,112469
115140,112605
115185,112620
115118,112581
115056,112458
115094,112554
115226,112619
115175,112590
115157,112573
115050,112520
115135,112534
115216,112652
115207,112576
115166,112552
114993,112483
115105,112545
115177,112596
115159,112593
115107,112560
115015,112466
115026,112519
115160,112577
115157,112565
115094,112553
114965,112466
115063,112497
115122,112583
115143,112583
115117,112534
114955,112471
115063,112570
115160,112598
115228,112606
115101,112540
115062,112508
115144,112553
115260,112641
115226,112588
115198,112622
115079,112491
115177,112607
115305,112662
115294,112622
115264,112634
115168,112532
115269,112625
115327,112674
115354,112683
115331,112649
115228,112532
115301,112662
115433,112758
115431,112720
115369,112673
115274,112579
115400,112705
115516,112736
115460,112710
115459,112712
115329,112592
115451,112697
115572,112790
115517,112755
115456,112692
115378,112623
115504,112680
115581,112763
115564,112743
115495,112683
115421,112660
115560,112728
115639,112795
115607,112756
115531,112715
115437,112662
115578,112751
115686,112803
115571,112764
115550,112720
115446,112652
115571,112719
115606,112768
115449,112692
115253,112570
115024,112439
115015,112465
114979,112448
114772,112358
114623,112254
114454,112111
114496,112195
114490,112260
114419,112161
114307,112087
114208,112054
114309,112150
114390,112194
114370,112147
114321,112113
114285,112094
114414,112171
114498,112276
114503,112257
114472,112200
114499,112202
114658,112272
114765,112416
114728,112337
114725,112304
114725,112284
114901,112454
114980,112476
114962,112477
114905,112421
114944,112387
115036,112503
115165,112585
115069,112543
115069,112496
115007,112472
115175,112573
115248,112617
115216,112592
115124,112516
115143,112533
115283,112599
115376,112650
115301,112605
115274,112585
115238,112555
115324,112653
115438,112703
115395,112654
115303,112634
115261,112555
115394,112684
115438,112703
115380,112672
115314,112563
115240,112590
115359,112674
115402,112711
115314,112611
115229,112535
115179,112559
115301,112633
115357,112652
115243,112567
115164,112536
115186,112535
115252,112636
115345,112647
115238,112606
115186,112486
115190,112554
115307,112616
115337,112644
115296,112623
115165,112543
115242,112571
115365,112641
115382,112702
115350,112625
115248,112578
115285,112557
115400,112668
115412,112723
115386,112654
115284,112605
115347,112616
115460,112691
115473,112718
115474,112692
115353,112589
115399,112649
115543,112722
115552,112729
115504,112728
115389,112649
115462,112638
115583,112740
115619,112762
115579,112769
115446,112659
115521,112732
115604,112788
115666,112789
115577,112750
115502,112677
115531,112731
115677,112784
115713,112828
115662,112777
115547,112690
115640,112749
115741,112845
115745,112832
115676,112806
115602,112703
115671,112758
115793,112905
115786,112848
115747,112854
115654,112725
115698,112773
115770,112860
115721,112866
115624,112763
115391,112640
115300,112623
115262,112602
115178,112575
115000,112486
114755,112272
114750,112380
114767,112344
114693,112337
114587,112257
114437,112188
114513,112210
114594,112288
114605,112268
114518,112253
114431,112125
114549,112272
114681,112307
114731,112350
114667,112312
114607,112245
114765,112337
114883,112456
114889,112389
114903,112436
114815,112360
114937,112477
115048,112531
115133,112514
115078,112535
115013,112429
115120,112555
115266,112631
115187,112631
115251,112588
