11111,11111
0,0
82443,81126
130568,101431
132798,101435
132820,101433
132886,101464
132883,101466
132920,101461
132932,101460
132971,101453
132992,101490
133037,101467
133097,101533
133117,101510
133162,101545
133210,101552
133244,101571
133239,101600
133297,101557
133388,101594
133390,101621
133360,101636
133450,101612
133476,101679
133489,101659
133517,101668
133568,101679
133617,101698
133593,101726
133615,101697
133668,101667
133653,101689
133684,101711
133655,101683
133705,101694
133689,101741
133664,101704
133650,101721
133705,101691
133690,101713
133661,101673
133703,101690
133666,101728
133664,101662
133674,101664
133642,101684
133639,101673
133695,101675
133673,101707
133656,101679
133666,101665
133661,101692
133709,101696
133734,101704
133739,101716
133749,101714
133734,101684
133776,101739
133773,101716
133785,101696
133833,101730
133843,101727
133829,101726
133866,101771
133860,101743
133921,101752
133930,101775
133951,101738
133946,101784
133961,101782
133998,101794
134017,101810
134018,101785
134081,101828
134094,101824
134127,101821
134109,101817
134199,101859
134213,101871
134206,101844
134227,101881
134247,101855
134336,101893
134345,101923
134320,101894
134377,101888
134416,101907
134441,101973
134482,101942
134506,101954
134499,101961
134538,101989
134606,101982
134600,101988
134648,102016
134684,102025
134721,102034
134724,102057
134788,102067
134827,102061
134811,102088
134832,102062
134910,102132
134895,102106
134922,102056
134879,102055
134901,102065
134828,102082
134760,102012
134651,101965
134603,101971
134486,101918
134390,101847
134266,101827
134131,101805
133995,101693
133907,101662
133832,101680
133709,101588
133619,101543
133523,101551
133450,101526
133377,101457
133318,101453
133252,101398
133435,101543
134316,101812
134330,101828
134443,101845
134471,101827
134448,101826
134854,101969
134877,101969
134910,102020
134922,101997
134944,102010
135232,102099
135286,102126
135288,102109
135302,102146
135349,102162
135327,102134
135384,102129
135383,102177
135383,102159
135382,102137
135419,102134
135334,102119
135284,102105
135279,102088
135193,102062
135087,101993
134980,101942
134838,101920
134705,101883
134599,101833
134443,101787
134311,101697
134210,101655
134144,101667
134006,101601
133914,101555
133796,101536
133719,101481
133690,101500
133587,101450
133524,101400
133479,101414
133427,101383
133360,101377
133332,101385
133318,101333
133296,101338
133281,101308
133315,101344
133303,101336
133286,101346
133273,101328
133311,101350
133307,101345
133359,101347
133343,101405
133350,101356
133417,101374
133450,101413
133481,101407
133504,101415
133511,101427
133533,101437
133629,101448
133670,101472
133673,101481
133738,101489
133733,101557
133800,101517
133840,101546
133865,101585
133884,101547
133919,101606
133972,101577
134040,101590
134048,101639
134094,101630
134148,101661
134176,101646
134250,101671
134284,101695
134325,101727
134329,101747
134381,101737
134402,101734
134444,101763
134445,101766
134464,101775
134524,101774
134495,101788
134526,101779
134515,101784
134518,101772
134547,101822
134505,101783
134547,101797
134516,101786
134539,101746
134510,101783
134506,101764
134499,101755
134514,101745
134493,101790
134501,101736
134500,101739
134457,101723
134504,101718
134495,101746
134465,101737
134499,101727
134488,101722
134505,101744
134470,101767
134508,101752
134553,101748
134532,101748
134554,101760
134570,101807
134590,101775
134588,101805
134647,101776
134614,101801
134632,101788
134658,101823
134677,101796
134674,101818
134715,101796
134692,101805
134768,101844
134780,101830
134779,101817
134814,101831
134816,101888
134881,101877
134873,101871
134918,101876
134925,101885
134933,101897
134992,101943
134968,101917
135011,101918
135009,101909
135084,101914
135111,101965
135116,101977
135168,101980
135133,101957
135157,101971
135200,102005
135198,101976
135261,101994
135266,102009
135299,102044
135373,102025
135365,102064
135383,102053
135412,102073
135427,102107
135462,102080
135516,102080
135523,102121
135505,102123
135570,102102
135587,102104
135593,102118
135561,102105
135573,102086
135609,102105
135545,102079
135449,102068
135395,102009
135345,101983
133922,101461
133834,101435
133747,101409
133660,101372
133644,101407
133529,101353
133545,101315
133470,101323
133480,101271
133425,101319
133407,101276
133444,101263
133385,101289
133398,101264
133434,101329
133447,101319
133491,101301
133528,101300
133534,101350
133571,101351
133604,101340
133631,101356
133632,101342
133711,101370
133709,101395
133787,101396
133790,101436
133838,101404
133867,101453
133890,101444
133969,101471
133970,101508
134004,101511
134035,101502
134114,101523
134158,101569
134148,101556
134235,101574
134265,101581
134320,101609
134375,101622
134372,101637
134450,101633
134475,101692
134521,101678
134554,101690
134613,101704
134612,101751
134607,101713
134659,101743
134676,101756
134696,101762
134675,101733
134738,101737
134715,101805
134720,101779
134738,101738
134725,101719
134774,101756
134719,101764
134714,101728
134744,101740
134736,101760
134681,101730
134748,101732
134696,101733
134702,101703
134699,101704
134696,101731
134733,101748
134673,101757
134689,101693
134738,101712
134718,101731
134703,101732
134719,101713
134724,101745
134696,101712
134782,101726
134763,101753
134791,101763
134788,101759
134812,101773
134780,101753
134838,101782
134849,101775
134899,101762
134878,101747
134917,101823
134910,101768
134915,101787
134929,101821
134937,101783
134974,101822
135008,101825
134979,101826
135030,101835
135027,101812
135056,101865
135077,101851
135090,101862
135079,101847
135126,101835
135157,101883
135158,101861
135178,101883
135182,101871
135230,101907
135209,101944
135236,101901
135295,101896
135266,101924
135302,101898
135362,101954
135342,101955
135382,101964
135419,101971
135437,101988
135444,101982
135508,101994
135522,102015
135539,102031
135518,102015
135556,102035
135592,102033
135632,102045
135631,102072
135648,102042
135683,102073
135687,102047
135763,102092
135703,102087
135712,102043
135732,102103
135731,102096
135735,102068
135666,102055
135613,101998
135598,102002
134426,101586
134327,101517
134296,101481
134178,101458
134158,101477
134092,101465
134037,101420
134023,101402
133982,101402
134006,101403
133939,101372
133939,101371
133931,101368
133941,101362
133961,101406
133995,101405
133952,101382
133998,101405
134037,101408
134037,101424
134107,101457
134147,101445
134131,101449
134198,101474
134260,101498
134252,101506
134309,101516
134347,101529
134351,101506
134447,101566
134481,101583
134478,101586
134536,101579
134545,101588
134567,101632
134617,101619
134663,101633
134707,101661
134711,101671
134808,101690
134824,101707
134881,101713
134867,101725
134948,101735
134990,101765
135022,101789
135077,101805
135057,101802
135097,101802
135129,101811
135190,101823
135135,101803
135194,101824
135182,101807
135172,101852
135208,101847
135191,101816
135204,101830
135189,101808
135217,101824
135154,101823
135196,101824
135153,101804
135137,101788
135167,101782
135178,101798
135133,101793
135144,101791
135107,101782
135101,101769
135133,101761
135073,101790
135076,101757
135062,101753
135107,101746
135099,101774
135068,101761
135051,101736
135083,101730
135120,101780
135070,101782
135130,101742
135141,101775
135120,101807
135129,101760
135168,101779
135155,101807
135152,101783
135199,101761
135252,101804
135235,101833
135239,101799
135260,101779
135227,101822
135301,101834
135295,101869
135306,101815
135333,101842
135345,101872
135370,101875
135406,101851
135435,101887
135441,101875
135519,101913
135571,101942
135525,101955
135588,101909
135649,101949
135686,101984
135714,101991
135799,102030
135799,101997
135838,102044
135875,102048
135883,102077
136335,102190
136357,102260
136382,102254
136441,102249
136451,102299
136444,102284
136516,102305
136531,102292
136520,102300
136552,102307
136591,102298
136589,102333
136620,102310
136607,102318
136613,102311
134568,101502
134556,101456
134544,101482
134514,101499
134489,101453
134502,101487
134494,101441
134500,101460
134531,101496
134518,101453
134535,101507
134541,101498
134572,101490
134623,101518
134624,101543
134649,101528
134630,101516
134709,101580
134742,101589
134766,101576
134798,101573
134807,101567
134823,101621
134870,101625
134961,101617
134937,101649
134994,101656
135008,101680
135032,101689
135116,101671
135130,101680
135169,101716
135187,101745
135250,101764
135272,101773
135341,101787
135316,101772
135419,101814
135429,101822
135454,101834
135462,101845
135504,101849
135509,101858
135541,101892
135541,101861
135545,101846
135566,101869
135604,101866
135549,101860
135563,101885
135538,101834
135530,101853
135577,101845
135520,101837
135524,101855
135482,101815
135476,101807
135487,101816
135453,101816
135443,101798
135475,101818
135458,101789
135456,101839
135407,101815
135443,101766
135460,101793
135376,101785
135435,101777
135456,101792
135401,101753
135412,101777
135428,101778
135457,101796
135457,101817
135451,101770
135474,101797
135488,101799
135458,101825
135468,101801
135508,101838
135479,101802
135513,101809
135573,101855
135580,101874
135572,101848
135584,101854
135577,101824
135639,101885
135655,101852
135649,101870
135647,101854
135670,101847
135710,101897
135753,101891
135705,101886
135759,101879
135767,101928
135808,101938
135833,101924
135860,101954
135835,101952
135858,101924
135890,101972
135903,101985
135912,101959
135945,101983
135991,101979
135969,101993
136021,101991
136036,102018
136045,101984
136096,102035
136125,102045
136115,102061
136161,102050
136154,102082
136168,102014
136240,102075
136213,102113
136202,102070
136279,102074
136307,102068
136297,102091
136334,102104
136334,102109
136334,102095
136345,102130
136412,102157
136431,102167
136426,102156
136437,102145
136399,102143
136456,102154
136453,102148
136415,102154
136368,102111
136348,102070
136281,102039
136179,102022
136119,101961
135997,101937
135822,101853
135734,101842
135657,101771
135482,101769
135332,101671
135298,101689
135183,101642
135093,101594
135024,101574
134931,101553
134812,101526
134785,101498
134731,101495
134679,101431
134636,101455
134609,101467
134634,101426
134586,101422
134587,101439
134545,101428
134539,101387
134536,101395
134543,101420
134546,101407
134564,101391
134575,101431
134602,101434
134610,101447
134618,101426
134648,101446
134663,101467
134709,101472
134733,101449
134774,101500
134720,101478
134834,101539
134822,101544
134848,101519
134879,101522
134924,101544
134954,101583
134992,101605
135010,101613
135078,101591
135140,101638
135156,101623
135223,101670
135265,101683
135294,101707
135311,101684
135386,101734
135398,101759
135474,101747
135474,101753
135554,101794
135526,101766
135555,101775
135584,101807
135578,101798
135630,101803
135645,101846
135637,101825
135651,101795
135633,101778
135651,101792
135626,101811
135652,101811
135623,101785
135650,101772
135612,101776
135598,101780
135595,101801
135595,101768
135567,101765
135549,101758
135560,101763
135548,101767
135552,101732
135503,101739
135546,101736
135515,101762
135545,101749
135511,101731
135538,101743
135515,101719
135549,101757
135513,101761
135526,101761
135543,101752
135562,101751
135594,101747
135592,101761
135565,101783
135603,101786
135602,101751
135633,101758
135660,101813
135641,101792
135651,101772
135652,101763
135671,101806
135683,101791
135714,101792
135737,101837
135732,101803
135782,101820
135788,101848
135764,101819
135816,101817
135819,101865
135879,101856
135886,101855
135899,101895
135927,101872
135945,101895
135991,101902
135990,101930
136011,101912
136053,101920
136043,101918
136095,101946
136141,101968
136130,101955
136172,101957
136168,101997
136212,102019
136203,102010
136274,101988
136306,102029
136281,102042
136328,102060
136329,102046
136372,102017
136410,102017
136398,102089
136431,102091
136437,102094
136474,102070
136481,102127
136535,102118
136579,102116
136582,102128
136566,102134
136669,102130
136673,102161
136685,102166
136699,102176
136656,102170
136746,102144
136768,102179
136773,102160
136740,102188
136732,102181
136711,102118
136706,102161
136646,102131
136505,102058
136419,101997
136332,101937
136231,101904
136112,101852
135973,101792
135825,101789
135725,101731
135596,101720
135513,101644
135361,101617
135302,101559
135235,101567
135158,101543
135083,101504
135070,101481
135013,101466
134972,101469
134962,101457
134940,101457
134921,101458
134884,101433
134930,101435
134965,101475
134887,101470
134909,101441
134948,101459
134937,101466
134938,101484
135013,101456
135009,101503
135006,101494
135045,101502
135064,101501
135102,101540
135158,101543
135170,101528
135205,101567
135229,101591
135240,101564
135310,101605
135350,101585
135418,101630
135452,101661
135464,101680
135514,101701
135590,101725
135625,101737
135649,101764
135724,101771
135775,101785
135786,101797
135880,101813
135931,101860
135936,101848
136014,101868
136043,101912
136105,101902
136160,101944
136172,101927
136234,101942
136233,101960
136324,102015
136301,101991
136352,102003
136331,101995
136339,101971
136362,101996
136400,101993
136334,101982
136338,101959
136349,101986
136285,101951
136292,101971
136280,101946
136234,101939
136247,101897
136259,101944
136232,101934
136223,101931
136201,101915
136190,101896
136182,101876
136197,101898
136170,101897
136174,101894
136168,101870
136216,101904
136192,101934
136158,101893
136231,101917
136209,101906
136226,101892
136256,101921
136221,101911
136221,101912
136279,101917
136257,101943
136287,101930
136306,101960
136295,101955
136328,101919
136337,101987
136395,101989
136360,101967
136431,101971
136392,102005
136424,101975
136474,102023
136474,102021
136477,102019
136489,102009
136560,102040
136545,102017
136574,102083
136543,102034
136635,102059
136677,102075
136668,102105
136656,102093
136701,102091
136733,102135
136772,102140
136806,102158
136860,102137
136878,102159
136887,102154
136964,102212
136978,102233
137040,102209
137066,102217
137088,102271
137159,102269
137187,102291
137205,102301
137284,102323
137282,102326
137329,102339
137405,102374
137386,102387
137437,102370
137461,102413
137478,102426
137532,102402
137542,102458
137573,102423
137608,102462
137574,102476
137628,102440
137659,102483
137623,102481
137600,102425
137635,102483
137583,102445
137515,102377
137458,102359
137307,102295
137202,102245
137054,102157
136862,102112
136730,102022
136602,102001
136461,101929
136372,101868
136197,101804
136109,101787
135957,101743
135880,101717
135834,101698
135750,101662
135643,101661
135606,101596
135609,101633
135527,101640
135529,101601
135473,101589
135449,101561
135506,101574
135439,101605
135442,101576
135458,101573
135474,101602
135492,101587
135509,101609
135510,101602
135547,101628
135562,101627
135579,101637
135623,101625
135634,101641
135658,101659
135658,101660
135703,101706
135731,101662
135776,101681
135763,101700
135770,101693
135803,101711
135833,101718
135849,101721
135901,101698
135929,101753
135938,101776
135975,101742
136024,101748
136084,101783
136126,101791
136169,101829
136266,101833
136288,101871
136337,101865
136400,101889
136419,101932
136487,101940
136539,101974
136524,101955
136576,101979
136665,101986
136624,101985
136655,101997
136677,101998
136726,102041
136721,102027
136730,102003
136691,102048
136713,101976
136741,102014
136702,102022
136681,101977
136712,101987
136670,101983
136664,101988
136648,101972
136610,101959
136580,101948
136595,101926
136573,101944
136541,101941
136572,101886
136559,101912
136537,101915
136524,101908
136486,101925
136520,101876
136540,101882
136530,101899
136518,101865
136583,101895
136561,101933
136539,101897
136604,101898
136627,101931
136658,101960
136651,101954
136678,101942
136657,101969
136682,101975
136747,101971
136771,102000
136762,101990
136806,101998
136832,102010
136858,102024
136888,102045
136901,102048
136926,102067
136991,102077
136981,102097
137010,102098
137037,102084
137038,102088
137066,102126
137121,102144
137148,102144
137141,102140
137201,102144
137237,102183
137228,102177
137272,102198
137303,102215
137312,102229
137382,102254
137391,102264
137431,102250
137422,102277
137452,102261
137534,102312
137565,102304
137601,102322
137593,102362
137597,102337
137627,102322
137721,102371
137709,102400
137745,102359
137802,102404
137818,102450
137823,102399
137869,102449
137900,102430
137945,102449
137982,102511
137982,102459
138026,102509
138051,102476
138052,102497
136735,101895
136653,101876
136486,101815
136406,101757
136283,101737
136160,101728
136105,101635
136010,101657
135946,101599
135885,101605
135844,101628
135763,101543
135742,101532
135726,101538
135666,101538
135660,101537
135700,101525
135661,101527
135672,101550
135661,101506
135674,101557
135684,101575
135668,101544
135726,101530
135715,101566
135730,101571
135785,101591
135837,101610
135793,101606
135829,101610
135850,101625
135874,101607
135916,101615
135937,101670
135959,101636
136026,101691
135984,101683
136058,101725
136040,101678
136104,101722
136159,101727
136199,101754
136179,101767
136221,101758
136296,101775
136329,101813
136359,101821
136403,101839
136464,101837
136443,101867
136498,101854
136549,101917
136577,101896
136599,101903
136663,101934
136693,101939
136659,101954
136717,101958
136737,101933
136742,101975
136742,101968
136729,101966
136745,101940
136707,101928
136729,101919
136701,101973
136705,101888
136653,101880
136635,101895
136607,101872
136567,101897
136522,101835
136533,101835
136460,101812
136431,101803
136461,101832
136383,101794
136362,101774
136379,101801
136314,101779
136344,101787
136306,101801
136271,101769
136296,101724
136286,101778
136298,101782
136297,101762
136237,101759
136231,101734
136307,101781
136275,101796
136305,101776
136289,101750
136299,101771
136313,101777
136304,101785
136352,101785
136309,101780
136349,101788
136361,101809
136362,101816
136344,101789
136416,101808
136419,101798
136444,101807
136450,101848
136460,101853
136460,101829
136485,101842
136519,101820
136535,101836
136565,101870
136529,101886
136574,101847
136563,101909
136588,101876
136634,101912
136635,101896
136641,101894
136637,101923
136665,101915
136671,101919
136683,101933
136673,101894
136737,101931
136722,101966
136734,101961
136756,101954
136773,101966
136764,101966
136806,101944
136841,101997
136843,101953
136833,101976
136879,101969
136885,101970
136935,101984
136895,102028
136914,101986
136942,102031
136920,102026
136984,102049
136962,102047
136942,102019
137028,102038
137003,102050
136997,102058
137009,102016
137038,102026
136999,102048
136973,101997
136930,101967
136859,101919
136777,101921
136645,101861
136579,101791
136457,101771
136303,101723
136215,101655
136024,101601
135943,101585
135791,101565
135668,101475
135517,101431
135477,101429
135365,101374
135245,101338
135207,101321
135098,101281
135048,101264
135002,101236
134935,101231
134892,101252
134806,101191
134813,101210
134784,101207
134778,101176
134692,101180
134673,101123
134724,101151
134705,101163
134682,101176
134660,101175
134675,101134
134734,101170
134722,101204
134778,101181
134737,101186
134757,101199
134793,101202
134836,101192
134845,101220
134856,101218
134863,101224
134891,101266
134927,101271
134984,101261
134990,101288
134972,101269
135029,101278
135051,101332
135096,101310
135126,101308
135165,101349
135166,101376
135262,101377
135274,101397
135308,101388
135357,101424
135377,101447
135432,101436
135448,101469
135474,101493
135486,101477
135542,101469
135587,101523
135571,101506
135628,101511
135638,101520
135686,101535
135656,101561
135656,101506
135671,101490
135653,101494
135688,101499
135667,101520
135630,101510
135641,101476
135654,101512
135624,101525
135621,101482
135617,101451
135627,101490
135593,101446
135595,101448
135607,101455
135619,101494
135566,101452
135587,101458
135602,101500
135563,101484
135583,101480
135594,101476
135602,101466
135642,101514
135619,101463
135646,101501
135636,101462
135631,101493
135695,101495
135687,101543
135676,101518
135711,101508
135723,101519
135738,101556
135756,101514
135801,101513
135813,101557
135827,101555
135836,101589
135833,101579
135878,101556
135888,101611
135895,101596
135904,101595
135972,101623
135946,101597
136017,101605
135988,101586
136038,101645
136054,101639
136040,101625
136095,101639
136084,101679
136098,101644
136144,101708
136153,101658
136178,101667
136203,101713
136217,101706
136269,101709
136279,101740
136292,101713
136328,101736
136369,101761
136358,101783
136365,101747
136370,101745
136400,101761
136430,101777
136489,101774
136452,101811
136472,101771
136487,101791
136518,101826
136566,101816
136523,101836
136576,101818
136589,101830
136594,101846
136633,101844
136646,101859
136600,101837
136677,101892
136702,101874
136678,101893
136729,101890
136734,101867
136719,101885
136778,101905
136756,101901
136766,101895
136703,101879
136689,101876
136667,101843
136559,101812
136505,101744
136398,101724
136257,101677
136177,101628
136080,101558
135942,101522
135769,101424
135670,101436
135543,101364
135420,101346
135276,101307
135205,101254
135101,101238
134990,101196
134948,101191
134823,101128
134778,101132
134752,101098
134701,101118
134639,101079
134566,101040
134547,101066
134564,101049
134500,101056
134513,101028
134514,101038
134497,101013
134464,101041
134501,101036
134506,101026
134467,101036
134480,101039
134527,101048
134536,101060
134519,101074
134541,101049
134550,101058
134600,101097
134618,101116
134587,101100
134667,101081
134663,101088
134701,101131
134695,101145
134715,101117
134787,101154
134786,101151
134810,101218
134838,101182
134900,101237
134917,101166
134944,101184
134985,101223
134989,101235
135060,101275
135103,101287
135138,101265
135126,101339
135198,101293
135234,101303
135244,101323
135276,101335
135289,101349
135338,101319
135371,101331
135345,101384
135347,101349
135389,101351
135366,101381
135375,101344
135383,101352
135356,101370
135353,101348
135417,101356
135355,101379
135349,101302
135363,101318
135353,101354
135354,101334
135340,101290
135375,101341
135364,101343
135355,101366
135359,101351
135397,101315
135358,101359
135374,101340
135396,101332
135428,101355
135434,101370
135414,101337
135418,101344
135428,101367
135426,101346
135486,101358
135434,101392
135449,101341
135477,101356
135500,101393
135450,101398
135523,101372
135486,101373
135544,101401
135533,101399
135542,101406
135512,101399
135543,101380
135591,101419
135577,101401
135592,101430
135568,101442
135570,101424
135661,101417
135668,101464
135694,101420
135685,101474
135697,101457
135748,101501
135776,101467
135843,101513
135830,101514
135819,101482
135870,101556
135871,101510
135955,101558
135929,101508
135957,101561
135983,101601
135991,101575
136056,101595
136009,101583
136026,101564
136119,101614
136124,101601
136094,101632
136106,101602
136172,101618
136180,101658
136191,101664
136216,101634
136221,101658
136204,101663
136272,101651
136311,101673
136307,101655
136303,101678
136356,101695
136363,101718
136421,101706
136425,101724
136405,101699
136447,101734
136474,101748
136458,101755
136459,101706
136495,101736
136479,101730
136439,101727
136431,101702
136364,101649
136328,101634
136237,101635
136148,101569
136066,101528
135923,101492
135830,101447
135708,101372
135638,101379
135476,101328
135350,101272
135236,101214
135108,101151
135020,101160
134908,101117
134801,101114
134748,101068
134651,101041
134614,100998
134539,100992
134458,100973
134407,100954
134365,100979
134389,100927
134317,100926
134294,100938
134242,100898
134235,100919
134285,100905
134236,100905
134268,100907
134252,100896
134250,100888
134246,100904
134289,100901
134265,100893
134322,100889
134293,100955
134312,100944
134371,100972
134336,100952
134372,100968
134405,100952
134440,100995
134451,100996
134460,100975
134496,100997
134548,101004
134543,101050
134580,101029
134658,101061
134683,101035
134689,101092
134724,101072
134796,101073
134808,101137
134834,101096
134873,101141
134946,101154
134989,101188
134959,101166
135039,101172
135059,101222
135113,101233
135095,101221
135165,101229
135134,101215
135192,101231
135192,101259
135166,101221
135192,101221
135203,101231
135194,101253
135209,101215
135183,101237
135175,101202
135175,101210
135178,101199
135169,101223
135140,101214
135143,101187
135113,101186
135140,101201
135121,101202
135085,101178
135119,101186
135099,101188
135146,101200
135126,101180
135161,101187
135117,101218
135109,101167
135142,101197
135157,101189
135218,101225
135174,101221
135159,101203
135232,101211
135228,101226
135201,101211
135215,101248
135208,101235
135279,101278
135265,101267
135275,101280
135311,101247
135293,101258
135348,101285
135335,101267
135365,101267
135380,101278
135385,101285
135424,101275
135409,101304
135436,101281
135471,101328
135485,101325
135496,101338
135549,101346
135537,101371
135541,101339
135603,101356
135624,101366
135639,101378
135648,101388
135680,101373
135710,101403
135717,101428
135770,101427
135780,101420
135779,101435
135777,101427
135852,101460
135882,101490
135863,101456
135905,101445
135912,101490
135933,101479
135989,101518
135950,101493
135993,101496
135982,101509
136052,101523
136056,101531
136047,101565
136080,101505
136089,101533
136122,101590
136150,101562
136162,101542
136177,101592
136167,101586
136219,101587
136197,101594
136225,101583
136231,101594
136181,101578
136204,101563
136164,101537
136125,101542
136062,101482
136000,101457
135862,101422
135780,101348
135666,101343
135544,101283
135415,101238
135316,101212
135179,101171
135041,101101
134915,101061
134771,101048
134693,100977
134579,100947
134475,100882
134390,100885
134311,100865
134226,100808
134194,100821
134071,100793
134040,100783
133962,100763
133953,100750
133913,100738
133863,100714
133852,100711
133831,100696
133856,100699
133855,100698
133798,100694
133827,100731
133847,100692
133850,100720
133880,100725
133891,100737
133874,100695
133907,100737
133925,100743
133950,100745
133971,100753
134025,100756
133977,100765
134047,100784
134075,100792
134115,100787
134083,100807
134107,100825
134184,100838
134171,100847
134237,100846
134267,100873
134265,100867
134327,100858
134358,100899
134373,100901
134437,100917
134431,100957
134506,100973
134499,100963
134557,100948
134556,100950
134639,101002
134630,100987
134642,100995
134659,100982
134688,101016
134664,101009
134677,101002
134726,101017
134706,100999
134672,100990
134697,100979
134697,101002
134674,100998
134645,100978
134627,100966
134639,101006
134626,100960
134641,101006
134571,100958
134591,100942
134549,100946
134563,100964
134562,100950
134535,100954
134544,100913
134553,100991
134542,100952
134553,100945
134551,100918
134543,100928
134561,100991
134610,100981
134619,100936
134593,100979
134543,100974
134606,100938
134639,100979
134645,100986
134617,100936
134645,100949
134631,100977
134673,100997
134695,100994
134729,100995
134697,101009
134749,101009
134776,101016
134744,101047
134746,101028
134766,101053
134792,101043
134837,101050
134859,101048
134890,101056
134846,101053
134895,101044
134934,101062
134940,101073
134956,101079
134941,101085
135010,101105
135013,101122
135039,101105
135080,101139
135060,101130
135060,101117
135104,101134
135124,101144
135160,101151
135182,101195
135225,101150
135245,101180
135246,101202
135272,101195
135253,101177
135294,101242
135294,101219
135341,101238
135360,101240
135373,101223
135425,101260
135411,101261
135438,101295
135444,101262
135517,101238
135524,101303
135531,101308
135551,101276
135576,101333
135533,101290
135613,101320
135626,101337
135613,101299
135637,101308
135625,101321
135631,101304
135601,101309
135597,101307
135525,101289
135502,101226
135497,101244
135352,101215
135231,101112
135148,101091
135009,101050
134929,101003
134784,100999
134632,100898
134511,100842
134377,100854
134251,100793
134103,100767
134030,100734
133899,100693
133819,100623
133750,100623
133655,100577
133536,100540
133497,100519
133428,100529
133411,100515
133333,100480
133282,100454
133283,100442
133234,100473
133213,100424
133220,100413
133200,100468
133188,100429
133207,100432
133215,100429
133247,100449
133225,100432
133273,100468
133242,100479
133294,100495
133324,100484
133315,100491
133319,100471
133377,100508
133426,100524
133414,100519
133455,100548
133459,100544
133517,100517
133528,100552
133598,100568
133557,100583
133574,100588
133631,100577
133705,100622
133721,100634
133753,100621
133819,100641
133826,100655
133905,100699
133886,100711
133923,100730
133940,100693
133993,100728
134054,100738
134080,100747
134061,100756
134093,100746
134159,100777
134160,100770
134160,100825
134165,100750
134199,100775
134177,100774
134186,100787
134234,100789
134162,100776
134160,100768
134202,100781
134170,100781
134173,100754
134163,100777
134147,100733
134112,100733
134159,100735
134143,100739
134118,100758
134147,100740
134106,100736
134156,100770
134098,100774
134150,100735
134127,100755
134118,100723
134167,100735
134150,100789
134149,100732
134165,100746
134168,100770
134203,100774
134186,100775
134185,100777
134252,100760
134257,100780
134262,100784
134288,100801
134292,100836
134280,100778
134338,100813
134324,100823
134382,100820
134359,100825
134382,100816
134412,100884
134410,100852
134438,100878
134476,100863
134482,100851
134530,100900
134534,100900
134572,100893
134588,100911
134593,100885
134647,100935
134663,100944
134694,100951
134687,100922
134701,100933
134755,100983
134749,100968
134785,100957
134789,100996
134803,100960
134864,101004
134879,101017
134899,101017
134905,101040
134905,100994
134962,101063
135001,101073
134994,101028
135045,101058
135004,101063
135101,101077
135102,101103
135125,101105
135147,101117
135121,101100
135197,101097
135178,101115
135202,101125
135198,101145
135212,101108
135257,101121
135314,101174
135233,101124
135284,101146
135309,101133
135321,101170
135313,101167
135405,101200
135352,101177
135357,101144
135368,101189
135404,101183
135368,101181
135346,101145
135343,101139
135296,101125
135254,101116
135156,101102
135078,101002
134972,101003
134838,100957
134730,100924
134615,100843
134463,100781
134309,100747
134212,100737
134047,100647
133931,100635
133812,100557
133753,100561
133644,100532
133531,100495
133454,100459
133355,100416
133305,100397
133263,100387
133202,100382
133141,100338
133118,100337
133064,100319
133041,100343
133071,100334
133056,100338
132986,100309
133010,100295
133040,100309
133029,100346
133066,100302
133037,100341
133025,100311
133118,100353
133113,100369
133096,100332
133143,100356
133127,100361
133221,100393
133219,100395
133217,100369
133264,100402
133265,100416
133306,100450
133374,100440
133346,100454
133390,100445
133418,100468
133471,100479
133491,100489
133551,100506
133530,100506
133589,100529
133655,100576
133675,100555
133690,100578
133746,100574
133752,100582
133817,100619
133788,100617
133882,100637
133868,100649
133924,100621
133932,100644
133938,100630
133934,100633
133957,100645
133983,100636
133970,100676
133953,100630
133957,100625
133971,100638
133969,100616
133990,100675
133949,100617
133982,100678
133913,100599
133944,100650
133937,100633
133924,100611
133921,100613
133928,100596
133879,100599
133934,100617
133883,100625
133939,100629
133890,100603
133935,100621
133914,100626
133964,100590
133935,100615
133979,100615
133963,100670
133958,100654
133990,100626
133990,100654
134016,100684
133997,100637
134051,100665
134068,100682
134089,100671
134057,100681
134121,100668
134159,100699
134111,100689
134159,100722
134204,100701
134183,100728
134196,100756
134256,100718
134283,100716
134284,100727
134289,100788
134331,100748
134380,100765
134386,100792
134378,100803
134419,100788
134466,100810
134433,100796
134451,100811
134509,100802
134548,100836
134592,100869
134576,100850
134611,100852
134569,100880
134616,100865
134689,100871
134677,100913
134667,100908
134718,100905
134756,100909
134775,100922
134816,100953
134811,100947
134787,100938
134847,100934
134916,100963
134883,101003
134919,100976
134902,100967
134955,100972
134981,101003
134951,100967
134969,100991
135006,100986
135030,101030
135064,101004
135058,101057
135074,101014
135068,101042
135096,101042
135155,101055
135190,101045
135152,101066
135147,101046
135221,101084
135217,101083
135229,101066
135243,101052
135240,101084
135225,101064
135199,101062
135164,101021
135169,101000
135091,100977
135029,100964
134901,100937
134811,100875
134726,100853
134583,100803
134465,100772
134390,100716
134227,100695
134101,100627
134039,100577
133924,100558
133858,100546
133779,100504
133734,100486
133620,100468
133597,100452
133547,100449
133492,100424
133487,100409
133431,100364
133404,100401
133385,100402
133390,100372
133363,100367
133310,100350
133350,100361
133379,100402
133336,100383
133352,100364
133382,100394
133424,100400
133424,100439
133412,100389
133493,100407
133503,100402
133516,100420
133519,100468
133580,100446
133556,100471
133586,100458
133636,100479
133670,100499
133649,100500
133685,100480
133705,100511
133719,100534
133778,100515
133811,100550
133841,100544
133805,100541
133880,100562
133943,100603
133996,100598
133999,100593
134038,100623
134086,100640
134096,100674
134144,100663
134161,100672
134170,100690
134224,100674
134247,100720
134269,100691
134251,100700
134251,100715
134264,100727
134289,100760
134280,100700
134293,100672
134280,100728
134334,100710
134304,100707
134333,100696
134262,100721
134238,100666
134285,100682
134278,100651
134252,100671
134264,100700
134215,100660
134238,100671
134236,100676
134251,100673
134186,100664
134230,100635
134258,100674
134215,100666
134218,100671
134253,100667
134204,100658
134263,100691
134263,100676
134263,100662
134294,100691
134288,100674
134304,100709
134346,100695
134367,100730
134330,100702
134368,100703
134405,100744
134399,100757
134396,100730
134437,100700
134431,100770
134477,100760
134492,100744
134512,100755
134504,100748
134547,100745
134604,100805
134588,100815
134576,100802
134630,100822
134644,100808
134629,100843
134706,100810
134705,100840
134687,100844
134739,100841
134742,100858
134785,100870
134807,100888
134804,100859
134825,100844
134844,100911
134869,100881
134931,100885
134858,100922
134927,100899
134961,100905
134993,100921
134990,100945
135001,100900
135032,100956
135046,100958
135082,100994
135051,100942
135123,100962
135107,100980
135164,101009
135146,100995
135129,100979
135201,100994
135217,100995
135245,101030
135217,101028
135246,101004
135276,101028
135300,101027
135300,101059
135285,101034
135297,101028
135360,101030
135356,101054
135380,101073
135337,101054
135333,101026
135393,101051
135362,101019
135343,101022
134682,100761
134602,100755
134524,100699
134474,100691
134415,100665
134398,100663
134343,100641
134320,100619
134291,100601
134248,100612
134244,100588
134220,100612
134161,100569
134172,100563
134183,100574
134176,100590
134149,100595
134139,100554
134185,100595
134163,100596
134214,100622
134207,100621
134248,100612
134219,100619
134270,100579
134308,100659
134298,100665
134281,100658
134294,100618
134330,100663
134348,100666
134392,100642
134370,100659
134423,100683
134417,100660
134436,100668
134518,100713
134492,100706
134523,100704
134549,100718
134574,100730
134615,100766
134606,100744
134671,100750
134659,100769
134732,100787
134759,100804
134765,100828
134800,100834
134784,100793
134832,100845
134898,100837
134891,100841
134879,100855
134903,100847
134916,100880
134935,100886
134958,100875
134926,100847
134939,100843
134942,100839
134930,100876
134969,100845
134918,100839
134965,100853
134944,100853
134921,100845
134940,100838
134933,100830
134898,100821
134935,100855
134920,100832
134929,100839
134939,100851
134878,100847
134930,100835
134937,100852
134900,100829
134947,100825
134936,100828
134956,100882
134957,100829
134947,100843
134983,100840
134967,100863
134997,100857
134996,100847
135024,100862
134997,100885
134971,100859
135035,100851
135058,100892
135063,100894
135081,100866
135056,100903
135096,100897
135140,100911
135140,100906
135105,100906
135122,100924
135180,100910
135202,100938
135187,100947
135208,100924
135245,100968
135238,100963
135251,100953
135271,100935
135284,100982
135280,100950
135347,100979
135308,100978
135333,100951
135390,101007
135398,100981
135405,101006
135447,101014
135424,101020
135412,100970
135444,101010
135480,101005
135488,101020
135538,101018
135508,101061
135548,101062
135566,101069
135636,101083
135626,101093
135588,101066
135624,101081
135685,101088
135675,101118
135662,101106
135669,101112
135711,101107
135740,101107
135762,101136
135746,101107
135773,101110
135788,101145
135788,101165
135800,101124
135852,101155
135808,101149
135796,101140
135841,101162
135826,101154
135789,101132
135797,101124
135782,101080
135668,101082
135635,101046
135586,101000
135498,101007
135397,100971
135347,100942
135307,100876
135247,100913
135176,100820
135171,100834
135137,100849
135106,100845
135009,100801
135014,100804
135005,100820
135007,100789
135027,100801
134997,100809
134957,100773
134955,100775
135016,100807
134963,100825
135000,100782
134991,100809
135001,100799
135024,100836
135034,100830
135058,100823
135077,100854
135058,100841
135121,100847
135155,100837
135127,100853
135133,100859
135205,100862
135189,100932
135190,100881
135226,100899
135244,100889
135232,100894
135292,100905
135293,100957
135307,100917
135332,100902
135346,100946
135361,100954
135394,100964
135357,100938
135448,100974
135448,100968
135505,101016
135495,100989
135502,101000
135524,100975
135574,101030
135592,101015
135596,101045
135631,101025
135607,101065
135624,101054
135665,101062
135659,101078
135694,101058
135692,101048
135647,101073
135695,101021
135714,101058
135697,101057
135647,101042
135696,101044
135657,101010
135712,101037
135658,101043
135664,101016
135648,101052
135680,101034
135687,101038
135633,101030
135638,101005
135655,101041
135625,101065
135622,101013
135690,101045
135621,101017
135646,101030
135672,101046
135679,101035
135681,101054
135653,101028
135663,101026
135708,101042
135694,101035
135746,101028
135706,101033
135755,101062
135779,101065
135761,101074
135771,101077
135759,101088
135780,101064
135840,101110
135840,101115
135812,101071
135808,101103
135856,101092
135929,101119
135853,101118
135891,101089
135900,101111
135941,101121
135924,101155
135941,101133
136005,101162
135951,101137
136022,101130
136006,101166
136025,101150
136037,101142
136017,101171
136056,101147
136108,101171
136085,101201
136121,101199
136104,101211
136144,101177
136172,101227
136164,101210
136201,101230
136208,101232
136191,101267
136210,101202
136249,101226
136224,101221
136236,101221
136318,101253
136280,101291
136280,101259
136305,101214
136295,101270
136361,101280
136365,101260
136372,101283
136361,101271
136396,101269
136396,101282
136439,101321
136416,101272
136426,101281
136427,101302
136444,101275
136446,101292
136475,101311
136421,101276
136433,101280
136450,101268
136458,101282
136406,101292
136371,101210
136332,101228
136291,101202
136180,101183
136094,101146
136022,101079
135984,101081
135915,101040
135906,101050
135781,101047
135726,100974
135708,100964
135672,100975
135643,100971
135605,100933
135567,100914
135567,100925
135545,100956
135567,100967
135534,100946
135534,100927
135585,100918
135561,100969
135595,100962
135600,100953
135604,100961
135585,100978
135636,100951
135665,100996
135641,100957
135704,100993
135670,100972
135729,101000
135738,101025
135720,100990
135764,101024
135736,101004
135829,101058
135821,101063
135862,101010
135817,101063
135839,101062
135887,101052
135914,101057
135853,101056
135880,101040
135936,101059
135936,101108
135921,101074
135948,101062
135986,101095
135947,101113
136000,101088
136013,101110
136035,101091
136040,101096
136116,101150
136101,101135
136133,101138
136146,101162
136112,101148
136156,101154
136224,101159
136152,101165
136211,101182
136138,101154
136196,101165
136232,101194
136182,101169
136191,101170
136172,101166
136211,101168
136184,101172
136186,101152
136177,101140
136165,101127
136150,101150
136171,101161
136152,101145
136145,101158
136117,101112
136144,101140
136147,101121
136160,101127
136135,101152
136135,101109
136143,101146
136112,101139
136173,101138
136154,101147
136115,101108
136169,101113
136163,101174
136171,101140
136178,101157
136148,101134
136164,101131
136224,101193
136227,101189
136239,101162
136187,101161
136238,101143
136233,101184
136258,101160
136242,101179
136241,101157
136264,101176
136268,101207
136302,101176
136310,101172
136305,101174
136318,101233
136355,101212
136334,101202
136348,101198
136332,101192
136383,101227
136381,101225
136414,101204
136416,101211
136394,101219
136440,101253
136461,101229
136443,101231
136460,101253
136472,101242
136495,101278
136509,101261
136511,101270
136558,101277
136548,101250
136559,101309
136582,101295
136554,101267
136611,101305
136599,101264
136625,101294
136644,101320
136618,101288
136639,101304
136638,101317
136683,101307
136655,101315
136692,101332
136660,101315
136669,101285
136720,101352
136711,101324
136702,101343
136731,101317
136771,101342
136715,101331
136744,101379
136758,101345
136765,101354
136731,101338
136803,101345
136792,101349
136795,101336
136782,101357
136747,101331
136787,101337
136781,101325
136718,101307
136673,101294
136634,101251
136565,101215
136524,101191
136462,101201
136361,101123
136322,101146
136269,101130
136181,101075
136155,101110
136082,101017
136053,101043
136022,101022
135985,101039
135963,101005
135923,100976
135945,100996
135941,100987
135928,100993
135917,101025
135906,101008
135894,100992
135931,101028
135959,101014
135948,101014
135959,101024
135944,101019
135990,101038
136037,101041
136003,101038
135999,101040
136044,101037
136065,101060
136086,101085
136064,101071
136065,101059
136122,101079
136134,101083
136165,101099
136144,101104
136152,101084
136173,101117
136208,101110
136206,101142
136208,101108
136222,101117
136209,101125
136269,101148
136293,101137
136246,101139
136301,101137
136317,101160
136333,101166
136346,101136
136355,101153
136388,101154
136360,101162
136415,101185
136437,101176
136428,101194
136454,101190
136463,101195
136481,101213
136466,101199
136478,101227
136499,101198
136461,101176
136497,101218
136471,101187
136459,101191
136470,101201
136474,101195
136461,101196
136460,101192
136452,101169
136421,101157
136438,101180
136432,101187
136423,101170
136418,101176
136381,101146
136413,101178
136439,101166
136411,101162
136408,101153
136407,101160
136437,101150
136419,101172
136420,101191
136444,101158
136416,101165
136422,101166
136447,101191
136445,101167
136415,101173
136425,101166
136453,101171
136469,101178
136466,101201
136490,101193
136445,101170
136500,101190
136537,101223
136525,101214
136529,101201
136490,101181
136529,101211
136563,101212
136534,101204
136573,101233
136577,101199
136565,101228
136609,101247
136635,101226
136589,101233
136633,101213
136612,101253
136644,101247
136682,101243
136665,101248
136644,101234
136688,101263
136711,101271
136718,101278
136685,101250
136734,101281
136751,101292
136735,101256
136774,101279
136776,101282
136763,101287
136778,101297
136821,101298
136813,101295
136820,101306
136822,101295
136805,101312
136892,101318
136841,101305
136832,101308
136863,101304
136883,101332
136894,101334
136889,101336
136886,101332
136887,101324
136938,101336
136910,101334
136919,101333
136926,101339
136905,101344
136959,101341
136929,101335
136973,101356
136950,101339
136921,101333
136974,101334
136980,101354
137013,101378
137004,101340
136957,101337
136995,101330
136992,101364
137021,101351
136971,101357
137005,101350
137004,101369
137013,101369
137009,101370
136946,101327
136943,101297
136873,101275
136865,101293
136794,101244
136704,101224
136668,101188
136542,101188
136545,101163
136495,101130
136418,101115
136376,101064
136327,101077
136310,101077
136272,101059
136237,101055
136232,101006
136216,101029
136236,101050
136243,101030
136156,101011
136213,101042
136225,101043
136196,101042
136264,101049
136233,101045
136215,101041
136250,101069
136254,101083
136291,101079
136259,101055
136323,101090
136322,101116
136353,101099
136335,101086
136365,101089
136405,101086
136404,101147
136427,101140
136422,101116
136397,101142
136431,101116
136463,101133
136461,101139
136494,101156
136504,101133
136502,101144
136532,101160
136514,101162
136534,101160
136575,101175
136589,101169
136597,101207
136608,101211
136630,101180
136665,101192
136625,101191
136709,101208
136722,101242
136689,101253
136714,101242
136694,101215
136752,101257
136793,101247
136726,101233
136740,101232
136748,101211
136801,101247
136795,101261
136731,101211
136765,101216
136739,101212
136756,101261
136732,101226
136737,101197
136729,101220
136686,101198
136706,101215
136691,101225
136664,101193
136686,101209
136684,101184
136689,101219
136691,101188
136663,101159
136669,101191
136676,101177
136678,101212
136635,101181
136659,101193
136648,101176
136650,101165
136692,101173
136685,101209
136668,101161
136679,101188
136661,101184
136704,101207
136719,101203
136704,101190
136695,101186
136726,101190
136736,101222
136782,101234
136779,101225
136729,101203
136771,101214
136789,101227
136796,101223
136785,101213
136803,101229
136834,101236
136817,101235
136845,101242
136854,101250
136841,101240
136827,101256
136867,101260
136865,101289
136884,101255
136885,101265
136882,101253
136941,101316
136929,101275
136907,101264
136945,101289
136958,101293
136923,101298
136953,101305
136971,101286
136951,101269
136964,101297
136993,101303
136989,101320
137013,101300
136974,101275
137018,101324
137048,101286
137018,101312
137007,101320
137028,101308
137030,101304
137054,101307
137050,101322
137004,101298
137036,101320
137063,101320
137074,101327
137069,101342
137044,101324
137079,101311
137083,101346
137076,101332
137121,101362
137108,101339
137073,101315
137088,101341
137112,101323
137138,101356
137090,101309
137117,101310
137106,101346
137113,101314
137160,101348
137129,101334
137145,101324
137141,101320
137110,101322
137099,101281
137034,101287
137024,101252
136961,101247
136936,101230
136861,101240
136821,101192
136736,101179
136733,101146
136664,101162
136642,101100
136582,101105
136492,101105
136500,101076
136513,101073
136451,101081
136449,101065
136394,101078
136413,101045
136443,101035
136457,101082
136459,101044
136400,101072
136451,101056
136468,101037
136483,101103
136471,101083
136482,101070
136521,101103
136492,101103
136546,101083
136539,101087
136548,101089
136549,101109
136576,101111
136587,101139
136598,101131
136621,101102
136626,101149
136615,101169
136645,101133
136674,101149
136678,101150
136678,101148
136706,101152
136757,101192
136763,101173
136704,101159
136788,101166
136820,101199
136796,101206
136791,101192
136828,101195
136869,101232
136892,101219
136910,101199
136914,101232
136897,101243
136960,101248
136960,101251
136945,101245
136972,101219
136958,101242
136980,101266
136966,101228
136991,101287
136970,101271
136969,101255
136950,101254
136946,101216
136974,101240
136910,101242
136921,101206
136932,101212
136954,101236
136902,101196
136882,101196
136874,101205
136893,101204
136915,101200
136888,101213
136835,101189
136877,101174
136878,101185
136895,101232
136884,101174
136879,101183
136896,101189
136870,101174
136868,101225
136891,101187
136863,101198
136884,101210
136887,101213
136905,101231
136883,101196
136924,101182
136905,101199
136942,101245
136893,101222
136909,101201
136917,101194
136916,101175
136965,101214
136972,101246
136948,101208
136945,101210
136954,101258
136969,101225
137021,101205
136989,101230
137006,101242
137023,101256
137018,101254
137063,101272
137006,101231
137026,101238
137036,101214
137045,101263
137069,101240
137051,101276
137056,101237
137034,101241
137090,101264
137115,101258
137087,101278
137094,101258
137138,101304
137115,101288
137154,101273
137196,101267
137197,101289
137153,101268
137170,101273
137240,101306
137191,101274
137222,101289
137229,101325
137233,101331
137275,101299
137244,101312
137260,101320
137284,101291
137321,101332
137273,101353
137301,101342
137276,101317
137316,101346
137301,101308
137359,101359
137334,101302
137335,101335
137351,101331
137361,101362
137379,101348
137367,101368
137334,101366
137359,101329
137367,101348
137331,101331
137285,101311
137315,101302
137253,101276
137203,101287
137131,101229
137064,101204
137009,101182
136920,101139
136906,101150
136813,101123
136785,101098
136709,101090
136695,101074
136638,101056
136643,101059
136599,101047
136571,101017
136564,101030
136592,101050
136540,101026
136512,101032
136553,101039
136542,101017
136540,101033
136567,101046
136559,101035
136537,101036
136576,101071
136565,101050
136588,101034
136595,101048
136611,101058
136590,101050
136631,101045
136626,101071
136643,101077
136614,101045
136688,101110
136672,101080
136668,101084
136669,101076
136685,101082
136697,101108
136740,101094
136708,101100
136716,101085
136765,101102
136750,101115
136773,101110
136800,101122
136810,101108
136820,101149
136829,101156
136868,101157
136839,101148
136884,101138
136923,101148
136946,101179
136976,101191
136997,101216
136951,101188
136978,101151
137007,101194
137002,101194
136986,101185
137020,101213
136984,101142
137003,101205
137041,101201
136989,101187
136990,101180
136990,101187
137001,101192
136954,101173
136985,101158
136966,101168
136953,101128
136941,101147
136945,101145
136942,101124
136951,101130
136911,101154
136935,101177
136899,101134
136951,101149
136918,101153
136883,101108
136921,101149
136942,101133
136919,101149
136903,101101
136952,101161
136956,101173
136923,101157
136957,101146
136968,101144
136924,101134
136951,101182
137011,101148
136963,101176
136989,101145
136985,101149
137002,101143
137050,101172
137008,101201
136995,101164
137030,101173
137040,101188
137047,101180
137082,101174
137110,101226
137037,101175
137069,101211
137099,101194
137129,101227
137095,101224
137103,101160
137147,101224
137123,101231
137168,101223
137182,101250
137132,101185
137190,101226
137205,101219
137205,101223
137179,101206
137215,101257
137214,101258
137231,101234
137256,101235
137245,101254
137250,101238
137280,101274
137268,101281
137277,101278
137305,101241
137300,101251
137340,101294
137340,101308
137335,101289
137338,101277
137366,101303
137375,101322
137364,101293
137390,101286
137419,101300
137395,101276
137446,101308
137411,101323
136922,101081
136817,101034
136765,101056
136759,101025
136678,101010
136600,100957
136616,100995
136593,100963
136558,100957
136538,100980
136503,100913
136498,100966
136505,100969
136459,100966
136500,100968
136428,100901
136485,100985
136507,100965
136473,100973
136488,100939
136501,100960
136539,100955
136511,100977
136515,101016
136527,100968
136559,100947
136558,100985
136616,101016
136581,101000
136588,100976
136578,101012
136616,100998
136603,101038
136584,101024
136624,101047
136627,100964
136647,101009
136691,101034
136670,101007
136713,101011
136672,101048
136728,101046
136723,101054
136773,101081
136753,101060
136776,101079
136815,101069
136831,101088
136845,101082
136856,101103
136861,101091
136847,101103
136911,101115
136930,101127
136928,101147
136925,101096
136934,101098
136960,101153
136947,101136
136912,101131
136919,101072
136924,101133
136992,101130
136916,101124
136907,101113
136944,101094
136939,101081
136928,101109
136908,101087
136926,101093
136868,101099
136849,101087
136875,101093
136864,101070
136860,101091
136805,101023
136851,101058
136880,101050
136886,101089
136824,101068
136814,101038
136840,101071
136860,101077
136854,101077
136865,101074
136845,101078
136853,101069
136871,101061
136923,101087
136890,101078
136846,101058
136898,101087
136940,101116
136897,101096
136879,101070
136930,101092
136944,101112
136973,101111
136953,101122
136945,101083
136971,101117
136964,101136
136988,101110
137015,101150
136974,101109
137009,101123
137002,101135
137030,101136
137068,101132
137045,101116
137030,101160
137047,101148
137074,101144
137072,101141
137125,101173
137097,101126
137100,101180
137129,101210
137125,101192
137125,101147
137148,101168
137180,101184
137195,101183
137233,101199
137194,101228
137200,101167
137211,101221
137237,101241
137241,101211
137263,101187
137221,101237
137246,101236
137272,101204
137269,101228
137333,101233
137268,101178
137324,101245
137373,101241
137343,101257
137314,101246
137345,101227
137329,101242
137362,101299
137353,101244
137359,101214
137367,101218
137395,101265
137378,101264
137408,101249
137420,101267
137402,101223
137414,101278
137455,101279
137441,101287
137409,101247
137391,101255
137430,101260
137379,101257
137341,101259
137302,101171
137226,101166
137198,101150
137102,101132
137038,101085
136906,101040
136871,101038
136786,101009
136729,101001
136649,100950
136605,100974
136556,100919
136522,100925
136492,100906
136444,100888
136432,100865
136384,100837
136383,100861
136369,100834
136319,100852
136333,100801
136290,100837
136339,100855
136310,100850
136287,100846
136304,100836
136333,100841
136324,100867
136326,100876
136309,100850
136338,100848
136349,100838
136351,100886
136340,100889
136374,100862
136364,100887
136370,100881
136385,100897
136410,100879
136456,100910
136429,100905
136430,100915
136447,100916
136503,100905
136498,100931
136463,100891
136494,100912
136503,100950
136509,100933
136550,100920
136522,100940
136559,100954
136572,100960
136634,100960
136612,100984
136635,100957
136612,100959
136686,100981
136681,100988
136712,101001
136729,100977
136738,101013
136703,101046
136747,101004
136737,101026
136776,101018
136756,101035
136750,100997
136765,101018
136746,101007
136750,101005
136748,100971
136736,101018
136747,101007
136764,100989
136691,100986
136741,100968
136739,101025
136727,100950
136680,100975
136690,100956
136687,100948
136715,100978
136673,100944
136676,100946
136670,100960
136684,100978
136679,100963
136681,100965
136652,100961
136674,100961
136671,101010
136676,100949
136674,100985
136693,100968
136686,100966
136687,100970
136722,100993
136704,100991
136740,100972
136733,100971
136736,101020
136721,100992
136734,100982
136754,100960
136792,100980
136783,101017
136788,100996
136803,101007
136822,101044
136786,100998
136807,101043
136869,101019
136852,101024
136860,101014
136884,101036
136879,101069
136891,101041
136899,101062
136863,101067
136883,101020
136925,101074
136955,101064
136939,101094
136934,101060
136956,101047
136996,101083
136995,101108
136998,101094
136987,101072
137014,101060
137048,101098
137030,101121
137047,101128
137053,101111
137028,101109
137044,101082
137140,101146
137085,101135
137088,101108
137098,101083
137134,101134
137120,101138
137154,101129
137182,101134
137144,101145
137195,101127
137186,101145
137196,101151
137222,101161
137205,101165
137192,101156
137259,101161
137232,101164
137247,101136
137251,101147
137271,101192
137248,101150
137281,101160
137249,101141
137260,101142
137247,101182
137235,101128
137231,101124
137163,101106
137080,101071
137025,101062
136953,101024
136880,100987
136796,100934
136736,100943
136684,100915
136566,100892
136526,100856
136463,100837
136390,100828
136359,100813
136324,100800
136269,100793
136243,100795
136183,100742
136228,100757
136176,100774
136146,100759
136141,100759
136122,100747
136134,100731
136134,100773
136114,100750
136124,100750
136119,100752
136136,100727
136136,100788
136116,100753
136152,100778
136130,100727
136210,100799
136181,100756
136193,100777
136190,100766
136194,100783
136207,100775
136221,100811
136213,100808
136248,100830
136233,100803
136315,100791
136275,100795
136323,100801
136301,100793
136330,100802
136365,100863
136380,100835
136407,100848
136392,100844
136417,100840
136460,100899
136493,100863
136494,100876
136533,100889
136551,100890
136549,100930
136624,100939
136582,100920
136629,100931
136607,100899
136658,100950
136668,100946
136602,100924
136652,100934
136641,100929
136672,100966
136688,100927
136667,100923
136632,100914
136619,100905
136641,100931
136639,100938
136639,100921
136590,100920
136616,100867
136631,100926
136595,100897
136587,100882
136586,100910
136541,100892
136616,100881
136611,100923
136600,100878
136564,100890
136543,100857
136586,100912
136571,100897
136576,100875
136557,100882
136536,100843
136611,100922
136619,100889
136576,100908
136547,100869
136596,100898
136587,100886
136589,100913
136618,100867
136633,100907
136612,100921
136659,100913
136668,100932
136658,100933
136634,100905
136683,100901
136685,100930
136689,100938
136717,100934
136717,100945
136724,100967
136724,100924
136753,100968
136750,100972
136707,100936
136765,100943
136799,100975
136778,100979
136783,101005
136796,100962
136832,100948
136854,101026
136832,100988
136903,100988
136886,100979
136886,100991
136874,101004
136930,101016
136932,101020
136919,101021
136915,101011
136957,101043
136981,101016
137011,101033
136984,101040
136995,101055
137024,101042
137051,101042
137085,101057
137029,101065
137042,101063
137130,101103
137099,101070
137089,101079
137118,101057
137130,101084
137132,101076
137176,101097
137166,101070
137143,101101
137154,101064
137188,101133
137132,101090
137111,101089
137067,101029
137041,101024
137014,101015
136935,100995
136843,100964
136750,100940
136695,100884
136615,100861
136503,100819
136472,100803
136388,100775
136282,100747
136269,100758
136178,100734
136161,100705
136051,100672
136070,100689
136065,100687
135991,100646
135985,100658
135939,100618
135898,100629
135895,100611
135908,100652
135892,100630
135868,100611
136016,100697
135989,100656
136008,100656
135961,100662
135968,100629
136048,100677
136057,100670
136044,100696
136089,100671
136102,100691
136130,100743
136157,100733
136166,100712
136198,100764
136181,100736
136270,100770
136255,100751
136291,100754
136292,100791
136307,100785
136334,100814
136355,100827
136325,100795
136395,100809
136336,100789
136380,100809
136392,100836
136349,100775
136405,100827
136350,100779
136370,100810
136349,100789
136353,100798
136309,100730
136339,100753
136305,100742
136278,100784
136305,100751
136276,100761
136225,100756
136248,100777
136251,100731
136274,100759
136233,100749
136211,100702
136229,100766
136208,100722
136259,100743
136227,100720
136226,100701
136221,100736
136259,100736
136268,100734
136253,100720
136246,100751
136264,100717
136270,100753
136253,100740
136305,100729
136271,100743
136299,100781
136309,100749
136295,100732
136301,100760
136299,100741
136350,100792
136337,100783
136346,100786
136345,100774
136340,100769
136406,100790
136384,100797
136414,100791
136403,100776
136411,100790
136457,100808
136456,100816
136442,100824
136467,100820
136447,100809
136482,100821
136516,100816
136515,100876
136507,100847
136499,100829
136542,100843
136540,100824
136578,100848
136555,100849
136563,100867
136581,100866
136587,100896
136617,100848
136603,100852
136614,100882
136606,100880
136654,100863
136661,100907
136673,100918
136660,100904
136721,100905
136741,100928
136716,100903
136701,100876
136744,100922
136741,100920
136763,100903
136784,100928
136764,100934
136797,100902
136813,100953
136804,100936
136774,100935
136724,100894
136692,100885
136628,100868
136572,100793
136549,100823
136437,100779
136345,100759
136270,100711
136232,100731
136105,100661
135996,100625
135958,100599
135916,100591
135851,100578
135774,100520
135736,100502
135692,100517
135627,100562
135545,100471
135555,100470
135497,100441
135480,100456
135440,100441
135409,100443
135386,100429
135370,100421
135326,100434
135317,100429
135339,100392
135349,100424
135293,100417
135324,100452
135316,100410
135390,100401
135326,100440
135327,100409
135376,100428
135373,100455
135368,100397
135399,100454
135381,100405
135418,100487
135413,100465
135434,100446
135456,100477
135479,100454
135475,100454
135545,100499
135498,100515
135511,100472
135527,100479
135551,100478
135625,100523
135619,100538
135628,100517
135617,100533
135710,100556
135707,100566
135725,100571
135771,100557
135769,100570
135778,100562
135778,100579
135843,100574
135822,100617
135803,100600
135846,100586
135863,100616
135864,100600
135847,100599
135837,100582
135888,100614
135891,100606
135881,100612
135884,100588
135841,100568
135854,100579
135859,100602
135829,100545
135852,100605
135819,100557
135797,100579
135789,100550
135835,100557
135765,100562
135804,100580
135747,100562
135815,100552
135781,100588
135768,100532
135760,100556
135797,100572
135796,100547
135783,100579
135798,100548
135752,100555
135809,100559
135822,100581
135825,100591
135818,100564
135799,100564
135818,100567
135873,100566
135821,100594
135876,100571
135832,100579
135843,100587
135892,100565
135908,100620
135890,100611
135872,100574
135952,100632
135949,100641
135922,100605
135959,100622
135934,100621
135963,100641
135956,100652
135995,100610
136012,100646
135964,100615
136043,100670
136016,100661
136051,100651
136069,100669
136069,100632
136069,100705
136114,100674
136101,100697
136117,100692
136105,100674
136164,100690
136190,100714
136189,100693
136198,100706
136181,100697
136249,100701
136249,100736
136250,100715
136237,100717
136260,100719
136285,100754
136285,100728
136306,100744
136282,100761
136296,100729
136377,100783
136336,100740
136388,100785
136383,100774
136359,100770
136409,100806
136415,100768
136429,100774
136434,100783
136407,100786
136430,100767
136401,100769
136378,100762
136322,100737
136236,100676
136220,100688
136127,100651
136070,100633
135964,100579
135845,100571
135769,100534
135683,100487
135614,100469
135545,100447
135460,100384
135390,100420
135290,100358
135283,100353
135212,100304
135134,100304
135081,100296
135047,100272
134969,100262
134948,100246
134922,100240
134905,100252
134883,100220
134826,100244
134831,100211
134799,100195
134806,100190
134823,100228
134820,100201
134781,100207
134782,100213
134767,100209
134817,100182
134767,100211
134804,100231
134806,100215
134837,100238
134857,100223
134837,100238
134847,100211
134896,100226
134912,100251
134941,100253
134920,100265
134932,100284
134941,100253
135005,100308
134975,100296
135027,100297
135002,100318
135040,100303
135045,100327
135090,100272
135106,100336
135111,100310
135138,100338
135173,100362
135212,100350
135181,100353
135226,100361
135257,100353
135276,100416
135258,100409
135286,100401
135272,100344
135285,100387
135317,100385
135328,100372
135281,100361
135304,100366
135257,100365
135332,100359
135309,100401
135297,100376
135274,100354
135302,100360
135294,100382
135248,100353
135254,100367
135249,100318
135234,100359
135246,100333
135255,100386
135245,100348
135217,100356
135237,100335
135226,100350
135197,100345
135194,100333
135215,100340
135182,100322
135215,100335
135241,100352
135218,100337
135182,100340
135241,100332
135251,100369
135226,100330
135256,100349
135224,100332
135296,100372
135298,100399
135265,100362
135307,100364
135332,100365
135335,100420
135330,100386
135403,100394
135381,100398
135381,100414
135389,100433
135405,100381
135462,100450
135456,100427
135426,100399
135472,100402
135512,100448
135498,100434
135526,100454
135484,100421
135585,100453
135571,100494
135580,100488
135572,100493
135600,100445
135667,100504
135651,100525
135655,100479
135676,100497
135681,100476
135697,100512
135709,100499
135752,100506
135746,100539
135716,100524
135755,100530
135824,100542
135813,100582
135805,100538
135819,100542
135846,100569
135895,100570
135922,100562
135915,100596
135881,100567
135964,100610
135942,100607
135983,100575
135996,100603
135994,100603
136019,100642
136016,100635
136053,100606
136062,100635
136034,100638
136029,100613
136039,100599
136022,100609
135966,100588
135880,100549
135828,100528
135777,100481
135664,100486
135590,100429
135494,100421
135413,100371
135349,100342
135235,100303
135194,100284
135092,100254
135036,100256
134952,100212
134922,100194
134851,100196
134735,100135
134702,100135
134717,100138
134665,100113
134652,100116
134559,100076
134584,100108
134587,100121
134557,100074
134528,100097
134482,100047
134534,100062
134520,100120
134485,100069
134530,100089
134480,100080
134537,100083
134543,100125
134550,100081
134554,100125
134597,100069
134592,100123
134657,100140
134624,100147
134620,100134
134629,100120
134681,100158
134726,100168
134706,100167
134742,100143
134736,100177
134810,100217
134797,100207
134810,100206
134831,100193
134875,100237
134921,100242
134937,100227
134971,100256
135018,100259
135004,100272
135073,100293
135113,100311
135101,100328
135092,100283
135181,100337
135176,100336
135196,100358
135184,100316
135205,100309
135157,100352
135217,100350
135222,100356
135205,100324
135229,100319
135203,100332
135233,100325
135235,100313
135253,100314
135208,100360
135174,100282
135189,100349
135189,100321
135213,100321
135160,100294
135136,100291
135204,100304
135168,100301
135157,100317
135161,100274
135117,100285
135132,100290
135154,100306
135172,100305
135143,100294
135157,100303
135167,100337
135146,100285
135188,100301
135190,100292
135152,100315
135183,100312
135249,100345
135208,100333
135220,100324
135238,100330
135243,100336
135291,100352
135264,100349
135292,100317
135306,100349
135324,100365
135359,100362
135359,100384
135402,100376
135384,100413
135423,100402
135451,100436
135479,100398
135451,100431
135442,100407
135491,100411
135544,100454
135566,100439
135564,100461
135553,100462
135574,100465
135664,100484
135631,100503
135594,100462
135659,100499
135702,100495
135685,100509
135712,100484
135706,100521
135772,100542
135775,100536
135812,100530
135800,100531
135779,100537
135828,100522
135871,100555
135834,100565
135880,100550
135892,100565
135936,100597
135923,100576
135949,100616
135967,100590
135950,100591
135974,100628
135987,100617
136024,100629
135992,100622
136025,100604
136022,100635
136007,100634
136015,100585
135956,100591
135912,100566
135894,100563
135835,100537
135723,100498
135643,100458
135540,100403
135458,100389
135424,100392
135256,100341
135155,100277
135139,100248
135053,100252
134947,100245
134893,100213
134786,100185
134769,100123
134713,100139
134672,100115
134590,100072
134582,100088
134486,100052
134514,100070
134458,100088
134454,100066
134409,100050
134407,99998
134404,100044
134404,100032
134425,100044
134415,100038
134396,100031
134441,100046
134417,100068
134413,100044
134461,100052
134437,100058
134464,100092
134461,100091
134481,100077
134524,100082
134474,100099
134510,100075
134583,100125
134566,100102
134621,100114
134585,100140
134600,100113
134666,100140
134695,100181
134696,100168
134706,100170
134745,100178
134810,100221
134825,100200
134853,100214
134820,100190
134871,100213
134924,100248
134906,100249
134931,100223
134960,100247
134995,100262
135000,100267
135062,100284
135019,100280
135003,100287
135054,100297
135044,100277
135053,100269
135052,100259
135008,100273
135024,100263
135048,100279
135040,100242
