11111,11111
0,0
82488,82450
135786,106680
140030,106691
140039,106698
140044,106692
140019,106710
140090,106715
140135,106706
140159,106702
140120,106689
140141,106710
140193,106739
140198,106721
140178,106737
140161,106730
140112,106686
140189,106693
140176,106741
140102,106686
139986,106629
139898,106576
139886,106588
139732,106501
139578,106439
139405,106400
139226,106300
139073,106274
138965,106222
138845,106155
138705,106126
138567,106056
138514,106016
138410,106034
138304,105982
138234,105936
138148,105884
138143,105906
138176,105878
138098,105887
138043,105827
138004,105880
138023,105851
138064,105858
138050,105855
138015,105835
137999,105846
138050,105899
138090,105864
138130,105906
138069,105877
138098,105876
138148,105935
138174,105927
138189,105917
138185,105913
138218,105918
138264,105927
138340,105962
138333,106002
138297,105935
138362,105994
138420,105997
138501,106038
138476,106032
138502,106011
138565,106059
138637,106074
138748,106104
138764,106132
138699,106093
138813,106130
138913,106189
138976,106180
138961,106196
138968,106168
139036,106223
139112,106199
139161,106251
139178,106282
139161,106259
139184,106281
139263,106256
139316,106328
139263,106313
139250,106271
139296,106303
139369,106346
139375,106331
139376,106295
139295,106308
139284,106322
139323,106282
139315,106294
139284,106277
139189,106265
139144,106243
139138,106242
139117,106239
139116,106235
138995,106159
139046,106171
139029,106206
139058,106181
138992,106170
138936,106155
138936,106155
139009,106147
139017,106169
138957,106139
138928,106132
138978,106160
139024,106140
139040,106164
139017,106179
138952,106114
139024,106140
139033,106185
139075,106155
139063,106176
138978,106159
139042,106204
139110,106175
139150,106201
139136,106178
139728,106427
140086,106531
140003,106470
138169,105777
138162,105732
138120,105755
138745,105973
138862,106016
138906,106025
138960,106045
138948,106074
139479,106234
139412,106215
139381,106212
139468,106232
139471,106207
139425,106215
139384,106192
139370,106194
139423,106193
139407,106190
139373,106199
139286,106140
139269,106136
139311,106183
139321,106169
139281,106137
139247,106110
139196,106097
139276,106134
139280,106141
139268,106099
139164,106124
139145,106090
139237,106090
139246,106105
139231,106114
139184,106105
139184,106117
139237,106101
139231,106142
139263,106136
139199,106110
139212,106111
139296,106124
139314,106141
139289,106148
139260,106148
139295,106135
139370,106167
139374,106175
139382,106167
139321,106131
139386,106158
139425,106183
139484,106185
139425,106208
139400,106191
139464,106184
139542,106233
139561,106241
139575,106264
139549,106205
139620,106232
139653,106297
139693,106273
139721,106295
139671,106247
139767,106285
139773,106338
139809,106313
139832,106311
139808,106307
139895,106349
139918,106309
139958,106350
139975,106376
139955,106340
139985,106373
140036,106416
140060,106394
140129,106381
140039,106407
140093,106412
140173,106428
140224,106451
140225,106444
140171,106434
140196,106471
140225,106436
140221,106419
140143,106434
140027,106347
139997,106353
139896,106300
139746,106241
139608,106192
139374,106115
139238,106043
139122,106011
138990,105962
138912,105930
138702,105839
138602,105835
138574,105790
138503,105766
138407,105710
138289,105687
138276,105682
138275,105691
138236,105663
138175,105644
138097,105603
138139,105636
138147,105622
138150,105643
138091,105634
138059,105590
138128,105630
138155,105613
138191,105652
138209,105662
138150,105665
138192,105664
138294,105697
138279,105699
138294,105694
138312,105711
138389,105744
138418,105744
138469,105775
138408,105729
138402,105744
138511,105796
138550,105794
138579,105802
138605,105801
138545,105809
138624,105801
138693,105858
138764,105854
138735,105868
138749,105851
138884,105917
138955,105915
139028,105982
139010,105940
139019,105942
139114,106025
139212,106036
139217,106049
139246,106021
139244,106024
139295,106068
139371,106089
139347,106090
139340,106093
139281,106044
139405,106093
139421,106071
139400,106114
139370,106080
139306,106063
139405,106098
139410,106079
139370,106103
139339,106036
139280,106026
139334,106054
139325,106040
139271,106046
139256,106004
139191,106002
139207,105984
139210,106000
139221,105985
139139,105985
139134,105969
139144,105983
139174,105979
139141,105967
139131,105994
139103,105956
139152,105997
139147,105979
139146,105941
139144,105979
139112,105936
139180,106005
139213,106007
139241,105981
139192,106001
139250,105992
139297,106055
139290,106030
139374,106029
139317,106061
139320,106032
139425,106046
139483,106075
139479,106085
139431,106085
139432,106056
139557,106120
139553,106126
139594,106107
139537,106114
139577,106144
139625,106154
139675,106140
139712,106152
139685,106153
139694,106165
139808,106188
139865,106219
139840,106217
139859,106214
139861,106221
139945,106251
139978,106253
140008,106274
140003,106256
140000,106285
140099,106293
140108,106331
140122,106305
140130,106291
140099,106286
140176,106355
140170,106338
140206,106362
140177,106334
140173,106317
140203,106335
140253,106348
140253,106335
140160,106313
140127,106309
140062,106255
140000,106242
139859,106184
139655,106124
139474,106056
139378,105982
139229,105939
139053,105869
138851,105800
138742,105755
138682,105723
138558,105670
138459,105624
138294,105573
138261,105559
138246,105544
138262,105545
138134,105555
138043,105511
138032,105515
138082,105506
138059,105501
138038,105504
137959,105469
137994,105450
138028,105492
138073,105481
138028,105497
137971,105469
138033,105480
138096,105546
138098,105518
138148,105505
138052,105518
138145,105499
138195,105574
138228,105550
138224,105541
138214,105555
138250,105604
138309,105610
138330,105609
138417,105619
138376,105596
138415,105667
138486,105670
138543,105673
138554,105710
138508,105647
138627,105725
138681,105722
138748,105765
138763,105750
138743,105748
138865,105817
138914,105823
138953,105836
138972,105844
138918,105830
139023,105831
139105,105890
139117,105889
139134,105889
139060,105867
139123,105919
139175,105882
139213,105906
139173,105902
139122,105886
139141,105905
139167,105898
139183,105886
139151,105906
139050,105820
139101,105863
139102,105862
139075,105837
139010,105835
138933,105792
138962,105823
138976,105783
138936,105801
138891,105783
138837,105762
138888,105787
138868,105773
138901,105793
138871,105762
138813,105777
138859,105767
138918,105792
138889,105774
138918,105789
138845,105757
138904,105775
138964,105777
138959,105802
138912,105801
138919,105792
138922,105773
138994,105790
139053,105829
138992,105782
138999,105808
139085,105843
139116,105863
139152,105851
139187,105883
139142,105862
139231,105859
139286,105912
139312,105952
139313,105894
139341,105897
139375,105957
139448,105960
139454,105998
139462,105956
139392,105941
139503,105997
139539,106012
139562,105967
139584,105992
139541,106004
139643,106023
139706,106054
139723,106061
139751,106043
139699,106081
139789,106081
139913,106102
139899,106159
139898,106104
139918,106122
139978,106132
140015,106166
140042,106193
140050,106191
140008,106153
140086,106180
140140,106209
140124,106198
140074,106163
140071,106204
140088,106180
140081,106181
140003,106143
139871,106094
139722,106030
139633,105988
139492,105961
139336,105872
139148,105788
138967,105712
138869,105686
138789,105666
138656,105621
138469,105522
138347,105493
138343,105502
138296,105458
138229,105447
138139,105420
138084,105410
138151,105398
138096,105400
138072,105391
138038,105392
137990,105361
138072,105401
138120,105408
138081,105422
138060,105390
138028,105385
138129,105420
138169,105429
138179,105441
138151,105450
138154,105441
138235,105493
138267,105451
138282,105495
138246,105479
138213,105492
138302,105491
138362,105516
138370,105510
138313,105504
138350,105495
138427,105563
138470,105526
138549,105579
138480,105551
138514,105566
138628,105594
138704,105635
138680,105618
138678,105630
138737,105637
138831,105689
138844,105709
138880,105675
138846,105687
138901,105698
138932,105722
138945,105705
139012,105760
138923,105722
138936,105687
139007,105736
138995,105749
138979,105696
138891,105702
138894,105698
138950,105719
138904,105735
138913,105681
138823,105678
138801,105682
138826,105658
138817,105656
138791,105665
138738,105625
138712,105607
138794,105629
138735,105633
138718,105595
138663,105596
138678,105587
138728,105624
138721,105615
138703,105615
138608,105589
138638,105600
138708,105600
138717,105632
138714,105597
138613,105584
138668,105602
138698,105619
138724,105603
138714,105592
138700,105601
138676,105624
138724,105614
138766,105623
138761,105600
138744,105616
138760,105642
138835,105650
138856,105617
138874,105672
138835,105626
138819,105677
138885,105679
138930,105708
138884,105663
138903,105668
138939,105677
138993,105688
139007,105740
139034,105723
138965,105684
139066,105720
139111,105732
139121,105750
139148,105768
139106,105736
139164,105745
139224,105780
139290,105779
139290,105796
139203,105782
139312,105803
139404,105841
139414,105865
139407,105864
139340,105830
139435,105855
139504,105886
139476,105870
139497,105894
139454,105850
139476,105899
139495,105882
139565,105865
139513,105862
139352,105812
139365,105810
139350,105787
139207,105769
139076,105670
138933,105619
138837,105601
138742,105567
138617,105506
138484,105496
138299,105385
138279,105399
138201,105346
138127,105337
138027,105290
137932,105232
137949,105276
137939,105252
137889,105241
137807,105215
137721,105151
137748,105209
137784,105185
137734,105184
137666,105179
137655,105151
137726,105152
137754,105162
137734,105196
137693,105194
137683,105181
137754,105171
137784,105224
137815,105206
137792,105234
137738,105189
137819,105239
137855,105247
137907,105269
137892,105271
137894,105225
137941,105274
138015,105278
138059,105322
138011,105285
138027,105292
138118,105315
138185,105346
138220,105336
138238,105343
138246,105365
138321,105421
138382,105416
138433,105443
138414,105450
138434,105421
138537,105497
138581,105508
138629,105502
138649,105519
138601,105511
138695,105543
138711,105571
138749,105538
138749,105557
138684,105524
138771,105561
138816,105566
138740,105549
138662,105530
138700,105512
138698,105539
138688,105514
138706,105500
138624,105477
138568,105475
138586,105479
138573,105450
138525,105471
138496,105438
138465,105442
138443,105440
138456,105405
138464,105430
138412,105399
138323,105412
138383,105382
138441,105409
138390,105417
138353,105348
138346,105398
138409,105407
138413,105414
138386,105373
138333,105362
138360,105406
138424,105391
138393,105419
138414,105410
138401,105388
138415,105382
138455,105424
138499,105423
138528,105454
138476,105431
138468,105420
138576,105440
138582,105461
138603,105449
138547,105439
138599,105462
138625,105504
138647,105471
138703,105504
138662,105481
138634,105501
138700,105507
138787,105510
138743,105557
138723,105498
138759,105524
138852,105547
138867,105543
138863,105571
138862,105557
138869,105567
138934,105575
138982,105595
138990,105594
138926,105608
138997,105593
139049,105637
139089,105634
139075,105643
139062,105642
139090,105650
139155,105663
139142,105670
139155,105652
139048,105626
139057,105623
139047,105608
139007,105570
138889,105561
138763,105470
138639,105421
138604,105421
138422,105357
138310,105301
138163,105248
138035,105209
138003,105179
137905,105155
137802,105127
137690,105068
137680,105048
137605,105052
137526,105005
137494,104997
137381,104963
137342,104939
137358,104955
137317,104929
137290,104963
137215,104891
137275,104917
137283,104942
137273,104943
137301,104943
137211,104927
137244,104950
137331,104970
137325,104977
137334,104995
137261,104958
137337,104983
137381,104993
137403,104973
137425,105020
137363,104999
137445,104988
137522,105038
137516,105017
137531,105025
137499,105069
137597,105041
137641,105096
137659,105086
137684,105065
137648,105086
137701,105080
137816,105118
137826,105139
137829,105110
137847,105129
137882,105156
137963,105172
138021,105194
138054,105196
137973,105202
138112,105232
138128,105251
138278,105325
138212,105246
138133,105245
138222,105264
138269,105279
138258,105262
138234,105279
138285,105289
138403,105284
138318,105206
138183,105260
138103,105213
138102,105190
138089,105183
138098,105215
138062,105178
138044,105157
137942,105176
137972,105138
137967,105159
138013,105147
137932,105175
137911,105090
137953,105120
137989,105153
137962,105128
137949,105122
137893,105124
137916,105137
137964,105107
137951,105136
137950,105127
137880,105130
137926,105140
137976,105143
138000,105152
137971,105149
137963,105162
138014,105168
138034,105164
138117,105201
138059,105198
138057,105173
138118,105208
138227,105212
138213,105254
138186,105228
138238,105216
138290,105251
138306,105275
138361,105270
138361,105259
138356,105286
138403,105308
138474,105298
138489,105316
138474,105291
138467,105329
138531,105364
138606,105349
138619,105384
138605,105378
138626,105382
138744,105406
138808,105450
138807,105430
138841,105455
138834,105424
138950,105500
139015,105487
139004,105533
138976,105498
139030,105511
139064,105541
139102,105536
139140,105541
139088,105527
139129,105532
139184,105571
139192,105560
139184,105571
139137,105531
139043,105504
139025,105495
138932,105440
138830,105432
138647,105324
138429,105254
138365,105233
138207,105169
138059,105099
137868,105031
137762,104984
137677,104974
137637,104949
137558,104909
137385,104856
137356,104871
137328,104837
137257,104812
137226,104811
137117,104770
137094,104736
137100,104767
137098,104752
137089,104764
137043,104720
136979,104746
137101,104752
137095,104736
137068,104762
137027,104729
137029,104749
137077,104749
137091,104739
137143,104767
137073,104790
137105,104766
137153,104781
137211,104776
137221,104809
137192,104798
137224,104816
137312,104835
137328,104853
137327,104839
137308,104808
137339,104842
137413,104887
137449,104866
137441,104885
137398,104873
137434,104877
137513,104900
137602,104957
137545,104953
137530,104895
137607,104954
137720,104974
137703,104987
137751,105000
137750,104979
137792,104990
137859,105027
137868,105047
137863,105024
137837,105028
137866,105030
137852,105055
137923,105041
137896,105013
137800,105029
137843,105023
137887,105059
137873,105002
137862,105033
137765,104976
137788,104965
137807,104998
137760,104964
137770,104962
137674,104943
137711,104955
137696,104954
137737,104954
137688,104937
137614,104894
137626,104917
137615,104920
137666,104956
137598,104922
137570,104904
137612,104913
137622,104933
137650,104924
137637,104912
137567,104903
137597,104913
137683,104917
137694,104962
137683,104953
137632,104950
137666,104937
137735,104948
137769,104971
137760,104960
137682,104923
137727,104984
137797,104976
137809,105021
137809,105003
137769,104950
137831,104985
137845,105023
137850,105013
137877,104995
137807,104994
137887,104991
137947,105023
137932,105031
137940,105019
137914,105027
137969,105032
138028,105078
137999,105054
138032,105048
137984,105060
138010,105090
138038,105055
138117,105060
138104,105072
138031,105076
138102,105122
138122,105092
138164,105103
138135,105103
138136,105118
138165,105122
138230,105140
138244,105126
138217,105094
138224,105109
138272,105154
138317,105135
138289,105160
138303,105174
138211,105120
138280,105153
138265,105109
138188,105104
138094,105058
137967,105000
137919,105009
137817,104965
137680,104923
137562,104844
137401,104787
137351,104774
137306,104715
137209,104695
137116,104683
137006,104624
136968,104630
136913,104572
136849,104563
136773,104539
136632,104504
136679,104512
136639,104509
136592,104500
136570,104438
136491,104458
136513,104465
136578,104461
136533,104474
136459,104431
136488,104432
136527,104467
136536,104485
136584,104468
136517,104499
136496,104461
136606,104454
136628,104489
136632,104488
136645,104511
136607,104495
136662,104515
136722,104522
136713,104514
136711,104526
136701,104535
136808,104548
136831,104589
136818,104560
136803,104565
136820,104566
136917,104599
136946,104618
136963,104610
136971,104630
136948,104606
137033,104668
137055,104653
137101,104659
137072,104697
137069,104664
137188,104712
137158,104707
137201,104692
137203,104727
137170,104705
137260,104713
137301,104718
137262,104730
137251,104722
137260,104709
137290,104746
137324,104719
137337,104768
137257,104706
137253,104698
137264,104694
137290,104750
137224,104702
137183,104675
137160,104638
137195,104668
137167,104691
137106,104662
137050,104619
137028,104613
137096,104637
137064,104642
137038,104648
137015,104588
137015,104636
137013,104623
137087,104628
137059,104645
136998,104595
137054,104615
137071,104642
137082,104658
137105,104631
137032,104619
137063,104632
137085,104654
137100,104616
137073,104648
136991,104627
137016,104610
137113,104623
137118,104664
137115,104645
137125,104668
137164,104675
137268,104716
137360,104699
137436,104751
137407,104763
137480,104795
137553,104791
137617,104829
137580,104853
137572,104782
137616,104831
137675,104825
137683,104863
137657,104862
137622,104831
137704,104844
137734,104878
137787,104883
137772,104898
137785,104863
137798,104890
137847,104915
137926,104922
137908,104955
137875,104939
137912,104938
138022,104977
138022,105012
138004,104975
138000,104952
138019,105006
138097,105011
138091,105020
138109,104983
138108,105004
138141,105016
138216,105041
138223,105068
138254,105057
138188,105016
138297,105082
138335,105072
138352,105075
138403,105092
138321,105059
138416,105111
138417,105086
138398,105095
138319,105098
138159,105003
138088,104968
138000,104967
137867,104853
137681,104804
137473,104724
137387,104707
137257,104634
137171,104584
137021,104560
136888,104511
136845,104484
136822,104450
136719,104442
136641,104430
136530,104387
136518,104368
136535,104390
136475,104373
136399,104309
136362,104306
136348,104303
136395,104321
136319,104304
136360,104301
136268,104307
136296,104306
136360,104307
136363,104306
136358,104299
136312,104294
136389,104341
136394,104327
136455,104345
136421,104369
136409,104328
136473,104380
136512,104352
136551,104384
136548,104408
136509,104379
136628,104399
136671,104430
136668,104438
136678,104413
136690,104446
136738,104485
136794,104495
136801,104505
136817,104449
136830,104487
136908,104541
136937,104529
136986,104550
136980,104546
136966,104539
137063,104593
137120,104618
137106,104607
137150,104629
137132,104618
137217,104620
137244,104666
137256,104638
137271,104644
137171,104632
137259,104651
137231,104647
137247,104624
137190,104648
137093,104586
137185,104599
137147,104622
137082,104587
137072,104552
136995,104547
137041,104539
137049,104546
137037,104558
136956,104531
136933,104508
136973,104528
136942,104539
136960,104521
136963,104527
136914,104522
136967,104513
136987,104544
136978,104537
136963,104529
136943,104501
137009,104551
137029,104541
137054,104527
137013,104568
136989,104549
137087,104610
137105,104596
137126,104568
137114,104597
137097,104561
137147,104574
137218,104596
137199,104633
137165,104592
137189,104606
137229,104616
137298,104655
137317,104623
137275,104660
137291,104646
137354,104674
137413,104691
137445,104694
137379,104708
137355,104685
137463,104682
137496,104715
137499,104718
137459,104710
137451,104683
137534,104746
137561,104737
137575,104776
137568,104723
137546,104735
137661,104788
137653,104786
137680,104759
137654,104774
137666,104776
137676,104777
137727,104819
137726,104802
137704,104783
137737,104794
137755,104798
137825,104832
137849,104832
137777,104832
137872,104857
137927,104870
137989,104891
138014,104888
137958,104873
138048,104908
138116,104935
138150,104931
138199,104964
138164,104954
138151,104961
138239,104955
138218,104958
138180,104955
138126,104891
138056,104896
137974,104859
137901,104829
137759,104778
137571,104674
137488,104668
137376,104602
137251,104568
137178,104548
136984,104456
136930,104428
136905,104446
136816,104411
136744,104350
136614,104349
136586,104327
136566,104317
136568,104299
136509,104318
136431,104264
136396,104267
136430,104269
136410,104259
136443,104302
136365,104220
136380,104266
136430,104274
136439,104272
136479,104306
136415,104258
136461,104298
136504,104294
136570,104342
136556,104299
136544,104323
136585,104313
136672,104382
136697,104378
136714,104383
136660,104356
136747,104433
136790,104389
136825,104435
136835,104427
136786,104427
136826,104477
136937,104465
136938,104479
136955,104505
136945,104464
137059,104506
137128,104526
137151,104547
137196,104566
137140,104561
137181,104553
137295,104617
137269,104611
137301,104590
137218,104596
137251,104594
137266,104594
137279,104593
137287,104624
137173,104551
137182,104570
137212,104546
137213,104532
137156,104537
137101,104482
137098,104487
137156,104529
137076,104524
137021,104470
136958,104456
136979,104468
136953,104428
136959,104473
136853,104392
136805,104369
136849,104425
136840,104395
136802,104427
136757,104371
136749,104380
136765,104361
136801,104388
136771,104418
136778,104367
136743,104367
136794,104368
136857,104414
136834,104398
136848,104433
136799,104414
136878,104430
136911,104458
136901,104451
136908,104428
136907,104453
136972,104469
136976,104465
136993,104444
136984,104482
136944,104440
137041,104492
137076,104488
137041,104526
137068,104464
137032,104488
137099,104524
137145,104519
137166,104546
137157,104522
137190,104535
137190,104558
137265,104543
137264,104576
137245,104513
137204,104521
137257,104533
137276,104561
137288,104561
137220,104574
137226,104537
137262,104548
137292,104569
137342,104606
137317,104571
137272,104561
137339,104593
137377,104598
137395,104601
137369,104592
137372,104600
137441,104636
137445,104646
137471,104613
137412,104627
137369,104623
137452,104642
137482,104650
137481,104610
137480,104596
137449,104622
137477,104637
137509,104644
137539,104657
137507,104643
137528,104655
137538,104635
137562,104634
137515,104623
137441,104606
137308,104554
137303,104572
137221,104519
137153,104466
136972,104431
136834,104360
136815,104328
136704,104275
136636,104282
136434,104224
136367,104174
136326,104178
136266,104126
136183,104129
136064,104061
136007,104040
136006,104066
136000,104032
135933,103999
135893,104003
135807,104007
135876,103968
135877,104002
135812,103982
135774,103975
135726,103970
135819,103953
135799,103998
135762,103966
135715,103958
135762,103949
135788,103990
135829,103993
135816,103979
135758,103958
135818,103970
135853,104019
135912,104014
135951,104069
135929,104027
136033,104081
136089,104059
136148,104144
136190,104106
136153,104132
136182,104140
136261,104153
136266,104179
136278,104148
136287,104154
136242,104207
136326,104172
136350,104190
136359,104197
136320,104181
136366,104223
136435,104216
136472,104239
136507,104242
136461,104241
136457,104275
136509,104267
136546,104245
136555,104250
136454,104235
136483,104255
136507,104242
136506,104225
136484,104245
136402,104210
136393,104199
136430,104187
136430,104200
136400,104218
136314,104167
136361,104162
136394,104185
136343,104191
136330,104185
136278,104153
136323,104186
136379,104153
136400,104198
136330,104151
136300,104153
136296,104175
136322,104167
136390,104176
136332,104140
136264,104137
136304,104157
136351,104161
136384,104191
136350,104165
136278,104158
136374,104200
136388,104203
136404,104183
136447,104243
136394,104190
136492,104216
136531,104229
136537,104247
136528,104252
136516,104248
136548,104264
136651,104273
136637,104275
136652,104266
136630,104281
136639,104315
136677,104301
136739,104319
136728,104310
136719,104321
136706,104331
136769,104337
136840,104362
136829,104339
136814,104339
136867,104395
136915,104394
136974,104400
136973,104414
136941,104408
137046,104446
137065,104447
137052,104425
137081,104465
137039,104436
137113,104452
137132,104468
137166,104496
137125,104461
137100,104446
137206,104513
137242,104522
137238,104518
137255,104507
137294,104519
137333,104580
137449,104581
137458,104600
137475,104576
137483,104583
137528,104608
137615,104631
137643,104643
137623,104616
137568,104625
137666,104658
137695,104688
137692,104668
137668,104665
137617,104639
137716,104669
137731,104710
137784,104658
137710,104693
137631,104651
137659,104632
137633,104626
137494,104610
137347,104506
137242,104458
137109,104435
136984,104399
136887,104319
136713,104286
136532,104191
136529,104198
136429,104121
136353,104127
136187,104070
136121,104005
136099,104050
136042,104011
135976,103945
135926,103946
135817,103958
135854,103938
135880,103931
135831,103946
135797,103927
135716,103927
135779,103927
135751,103919
135753,103952
135708,103896
135712,103860
135770,103945
135797,103930
135788,103909
135749,103931
135722,103909
135785,103936
135788,103952
135818,103952
135769,103929
135758,103911
135847,103968
135894,103972
135880,103976
135892,103994
135884,103991
135974,103973
136012,104017
135997,104009
135993,104028
136035,104010
136089,104072
136093,104051
136144,104075
136156,104060
136123,104092
136230,104104
136276,104110
136301,104137
136261,104128
136264,104121
136331,104173
136369,104140
136383,104186
136323,104146
136340,104149
136427,104170
136429,104165
136431,104165
136357,104133
136376,104154
136416,104168
136419,104185
136371,104159
136328,104133
136315,104141
136370,104133
136350,104145
136316,104124
136241,104091
136260,104103
136268,104103
136314,104137
136261,104108
136247,104090
136248,104108
136319,104111
136280,104109
136307,104126
136271,104101
136271,104111
136304,104119
136346,104133
136351,104132
136288,104117
136300,104120
136351,104145
136413,104125
136352,104137
136326,104100
136364,104159
136426,104165
136465,104190
136458,104176
136389,104133
136500,104187
136546,104217
136581,104207
136590,104226
136548,104226
136596,104208
136666,104253
136680,104252
136673,104237
136646,104249
136663,104230
136716,104257
136746,104304
136711,104276
136688,104237
136702,104302
136778,104298
136757,104305
136780,104286
136746,104280
136816,104300
136880,104324
136898,104348
136881,104345
136861,104319
136937,104368
136957,104359
136993,104403
136961,104380
136950,104347
136990,104377
137025,104392
137034,104385
137028,104372
137002,104357
137017,104403
137065,104391
137090,104391
137090,104382
137013,104390
137090,104415
137125,104436
137137,104400
137172,104447
137136,104415
137165,104411
137235,104454
137245,104442
137276,104459
137224,104473
137233,104466
137312,104463
137304,104488
137302,104479
137285,104464
137312,104510
137345,104487
137372,104519
137315,104495
137258,104436
137279,104477
137277,104462
137196,104434
137133,104390
137011,104345
136934,104291
136871,104294
136739,104235
136632,104186
136454,104118
136424,104127
136316,104087
136255,104035
136168,104034
136007,103942
135957,103970
135954,103918
135869,103916
135760,103862
135694,103835
135717,103858
135695,103833
135619,103830
135559,103808
135532,103775
135551,103786
135574,103784
135508,103778
135514,103767
135458,103783
135521,103781
135521,103781
135561,103784
135526,103787
135474,103785
135539,103797
135630,103808
135602,103836
135599,103802
135571,103791
135680,103836
135695,103894
135698,103851
135723,103854
135665,103847
135749,103874
135796,103912
135764,103882
135756,103860
135751,103888
135805,103929
135892,103941
135886,103937
135874,103887
135909,103942
135943,103956
135999,103944
136017,103959
135993,103964
136035,103996
136069,104001
136101,103992
136117,104017
136089,103994
136070,103993
136166,104036
136164,104040
136184,104044
136140,104009
136106,104019
136160,104041
136201,104032
136157,104045
136127,104002
136094,103989
136152,103984
136127,104029
136094,103971
136057,103950
135997,103954
136017,103952
136062,103959
136004,103961
135948,103954
135915,103901
135980,103925
135965,103960
135977,103903
135883,103926
135897,103895
135936,103932
135972,103924
135929,103899
135894,103918
135889,103885
135978,103933
135963,103963
135966,103923
135960,103920
135968,103912
136046,103979
136039,103943
136074,103971
136042,103974
136060,103973
136161,103986
136172,104028
136188,104010
136155,103991
136156,103979
136248,104060
136264,104039
136266,104026
136297,104063
136281,104072
136344,104113
136413,104089
136435,104123
136382,104112
136429,104098
136498,104155
136545,104152
136569,104186
136522,104136
136545,104153
136639,104158
136668,104220
136658,104194
136662,104185
136682,104203
136784,104234
136784,104250
136771,104231
136766,104232
136816,104238
136835,104276
136845,104239
136889,104271
136827,104254
136859,104249
136929,104288
136977,104290
136950,104283
136861,104286
136918,104270
136975,104293
136981,104318
136968,104306
136949,104274
136954,104320
137020,104308
137058,104337
137046,104349
136998,104305
137041,104359
137091,104353
137151,104369
137148,104363
137110,104346
137088,104351
137125,104349
137180,104374
137103,104360
137046,104297
137009,104298
136989,104271
136931,104273
136782,104221
136642,104140
136578,104104
136530,104100
136421,104037
136307,104012
136133,103955
136119,103916
136094,103905
136017,103844
135933,103860
135758,103824
135748,103787
135739,103783
135704,103802
135629,103768
135553,103713
135529,103742
135524,103711
135545,103733
135514,103731
135403,103678
135426,103697
135488,103691
135491,103731
135461,103695
135437,103718
135482,103688
135512,103724
135534,103715
135527,103742
135461,103726
135528,103742
135594,103755
135581,103756
135617,103745
135563,103767
135630,103764
135672,103795
135683,103775
135697,103769
135695,103811
135702,103810
135762,103804
135817,103869
135774,103848
135787,103820
135844,103852
135891,103888
135918,103882
135910,103892
135896,103910
135970,103898
136055,103910
136064,103944
136038,103913
136044,103913
136097,103947
136183,103965
136180,103991
136148,103964
136130,103965
136174,103976
136240,103991
136220,103998
136245,103983
136138,103968
136206,103956
136230,104000
136216,103961
136159,103963
136100,103906
136175,103955
136130,103969
136127,103939
136095,103927
136034,103923
136078,103919
136109,103931
136081,103894
136063,103889
135954,103877
136014,103891
136048,103896
136026,103913
135972,103895
135918,103887
135995,103902
136037,103874
136046,103910
136007,103888
135998,103866
136048,103904
136097,103927
136075,103923
136064,103886
136069,103924
136128,103944
136157,103941
136197,103953
136159,103949
136137,103925
136249,103981
136269,103954
136281,103989
136264,103994
136241,103972
136341,103992
136414,104063
136406,104023
136411,104032
136399,104026
136488,104069
136508,104102
136519,104077
136485,104060
136504,104070
136556,104098
136626,104096
136606,104108
136572,104076
136551,104097
136664,104149
136672,104112
136662,104116
136676,104142
136632,104123
136715,104165
136775,104152
136784,104166
136744,104167
136750,104149
136846,104196
136900,104227
136866,104215
136839,104173
136860,104171
136938,104238
136968,104260
136972,104224
136945,104203
136990,104239
137026,104269
137014,104237
137038,104242
136979,104246
136988,104237
137020,104271
137047,104250
136962,104232
136897,104207
136867,104168
136839,104161
136813,104157
136689,104098
136531,104053
136444,103993
136397,103987
136307,103948
136199,103931
136042,103879
136003,103829
135938,103803
135898,103790
135771,103742
135702,103729
135629,103686
135615,103697
135598,103705
135525,103661
135448,103610
135406,103610
135465,103636
135411,103625
135393,103625
135306,103577
135314,103593
135343,103591
135354,103605
135308,103605
135260,103595
135268,103568
135360,103581
135363,103609
135383,103615
135328,103582
135369,103602
135452,103637
135463,103642
135466,103644
135431,103628
135439,103646
135539,103676
135573,103677
135563,103689
135540,103680
135567,103712
135620,103694
135677,103712
135663,103720
135633,103719
135708,103753
135744,103776
135798,103782
135812,103780
135801,103786
135858,103774
135946,103816
135977,103818
136031,103857
135941,103811
136027,103846
136065,103881
136129,103896
136086,103888
136055,103853
136095,103886
136142,103868
136156,103912
136158,103874
136107,103858
136095,103888
136132,103873
136115,103868
136039,103840
136002,103838
136010,103856
136037,103833
136017,103802
135964,103809
135928,103779
135940,103804
135933,103791
135937,103823
135932,103819
135853,103746
135928,103785
135917,103817
135901,103799
135931,103795
135887,103774
135888,103769
135958,103808
135946,103820
135919,103804
135910,103780
135929,103814
136012,103807
136035,103811
136013,103829
135955,103811
136018,103827
136065,103829
136097,103840
136098,103839
136065,103850
136133,103882
136164,103899
136175,103903
136207,103880
136168,103896
136225,103905
136303,103932
136311,103925
136282,103952
136253,103919
136371,103944
136380,103996
136384,103958
136406,103965
136371,103925
136450,103977
136508,103985
136529,104008
136493,104035
136483,103987
136571,104024
136626,104031
136617,104065
136598,104001
136628,104037
136649,104082
136735,104091
136722,104087
136703,104082
136663,104068
136730,104083
136809,104107
136807,104125
136774,104122
136760,104107
136871,104142
136865,104149
136917,104138
136872,104155
136867,104150
136945,104160
136983,104200
136965,104169
136969,104169
136947,104138
136950,104167
136922,104131
136870,104097
136763,104079
136639,103989
136578,104008
136504,103940
136395,103919
136212,103861
136095,103781
136064,103803
135984,103764
135853,103727
135730,103657
135651,103633
135616,103646
135577,103604
135523,103601
135405,103546
135337,103540
135359,103502
135358,103525
135315,103510
135217,103488
135180,103484
135197,103446
135247,103497
135197,103504
135148,103477
135131,103455
135181,103494
135198,103483
135217,103467
135167,103490
135162,103477
135221,103478
135296,103509
135267,103498
135230,103523
135217,103494
135302,103505
135316,103520
135334,103498
135283,103487
135325,103498
135405,103555
135388,103574
135405,103553
135416,103538
135428,103566
135482,103568
135527,103597
135543,103593
135539,103586
135524,103617
135625,103617
135647,103618
135641,103646
135630,103600
135671,103652
135763,103654
135772,103685
135810,103700
135795,103685
135785,103693
135914,103722
135941,103746
135919,103739
135871,103715
135900,103706
135928,103763
135970,103766
135950,103740
135924,103744
135873,103737
135939,103718
135911,103729
135902,103722
135840,103701
135838,103699
135890,103663
135881,103699
135823,103698
135754,103665
135747,103646
135819,103661
135811,103684
135794,103647
135703,103644
135693,103652
135759,103658
135792,103715
135779,103635
135721,103638
135757,103641
135831,103706
135844,103671
135873,103661
135802,103671
135812,103664
135914,103732
135935,103728
135924,103739
135869,103674
135949,103721
136020,103768
136035,103770
136017,103754
136011,103719
136062,103741
136087,103769
136159,103801
136129,103796
136116,103794
136174,103821
136245,103827
136274,103848
136264,103854
136222,103814
136303,103870
136342,103861
136383,103896
136332,103865
136333,103862
136399,103869
136401,103913
136412,103893
136460,103897
136374,103893
136401,103899
136443,103885
136466,103895
136467,103881
136402,103895
136443,103911
136478,103916
136474,103909
136503,103928
136415,103917
136496,103894
136550,103936
136571,103929
136520,103947
136469,103918
136554,103941
136588,103966
136581,103968
136573,103941
136521,103912
136610,103967
136623,103998
136600,103972
136656,103939
136568,103928
136611,103981
136658,103975
136632,103973
136592,103911
136541,103904
136521,103913
136467,103907
136409,103841
136332,103825
136171,103786
136138,103729
136050,103722
135945,103694
135825,103632
135650,103569
135633,103545
135570,103540
135481,103499
135369,103477
135286,103422
135224,103420
135216,103392
135178,103380
135059,103359
134987,103312
135012,103339
135007,103320
135012,103334
134929,103314
134878,103275
134931,103305
134957,103294
134932,103300
134912,103256
134858,103293
134911,103291
134948,103289
134947,103316
134887,103288
134884,103262
134955,103313
134980,103314
134959,103350
134954,103310
134919,103296
134993,103345
135007,103336
135026,103362
135007,103333
135001,103298
135065,103355
135063,103361
135066,103334
135052,103348
135034,103319
135093,103339
135163,103376
135121,103364
135147,103372
135102,103343
135217,103380
135224,103420
135223,103414
135235,103383
135240,103416
135332,103413
135332,103432
135360,103432
135301,103432
135293,103440
135342,103434
135363,103454
135384,103444
135306,103425
135246,103413
135331,103414
135333,103434
135337,103410
135287,103416
135274,103420
135285,103383
135301,103414
135284,103424
135210,103388
135163,103369
135246,103384
135275,103390
135237,103362
135186,103376
135182,103335
135256,103410
135278,103391
135275,103404
135227,103378
135186,103359
135280,103403
135314,103396
135268,103402
135233,103361
135236,103364
135294,103426
135316,103402
135320,103403
135289,103406
135255,103433
135343,103402
135376,103438
135407,103412
135328,103418
135382,103437
135445,103442
135457,103473
135470,103485
135453,103457
135473,103463
135538,103499
135564,103501
135599,103502
135555,103496
135599,103493
135631,103519
135671,103550
135671,103542
135640,103523
135668,103520
135714,103562
135730,103564
135738,103565
135724,103541
135681,103546
135802,103585
135816,103598
135779,103585
135789,103546
135821,103601
135866,103625
135900,103613
135910,103635
135846,103616
135860,103602
135924,103613
135995,103615
135952,103634
135896,103623
135920,103617
136003,103653
136009,103668
135984,103612
135972,103625
136010,103640
136056,103674
136044,103688
136065,103652
136005,103657
136065,103662
136136,103698
136110,103713
136148,103684
136091,103666
136102,103674
136191,103698
136181,103689
136127,103730
136079,103666
136128,103667
136139,103679
136096,103646
135993,103660
135867,103570
135812,103550
135783,103544
135694,103487
135584,103433
135441,103383
135386,103379
135333,103385
135245,103302
135176,103295
135014,103267
135013,103236
134972,103216
134946,103209
134848,103200
134768,103141
134740,103168
134757,103137
134756,103157
134707,103127
134637,103089
134638,103101
134697,103110
134638,103155
134656,103094
134592,103081
134618,103099
134654,103138
134666,103111
134612,103115
134551,103069
134625,103068
134672,103099
134681,103137
134637,103117
134617,103094
134635,103120
134710,103117
134746,103146
134718,103113
134675,103109
134779,103154
134801,103194
134786,103154
134803,103191
134775,103168
134826,103162
134867,103180
134888,103197
134855,103199
134855,103166
134908,103205
134938,103197
134975,103225
134966,103208
134940,103182
134990,103265
135031,103255
135027,103253
135025,103236
135020,103223
135077,103266
135118,103273
135107,103273
135084,103286
135037,103247
135130,103274
135132,103286
135129,103246
135088,103247
135051,103214
135047,103251
135073,103255
135058,103233
135020,103190
134976,103214
134998,103192
135039,103201
134991,103208
135012,103181
134932,103188
134975,103187
134974,103215
134971,103203
134959,103176
134957,103177
134979,103229
135044,103213
134999,103220
135035,103210
134976,103184
135044,103215
135047,103237
135003,103203
134976,103191
134986,103215
135047,103233
135013,103227
135053,103202
135019,103183
135029,103197
135087,103217
135135,103255
135113,103273
135113,103229
135126,103232
135201,103257
135276,103287
135281,103271
135289,103262
135302,103317
135354,103341
135388,103319
135395,103334
135395,103330
135361,103339
135438,103359
135488,103387
135474,103359
135465,103370
135441,103336
135550,103393
135598,103434
135603,103378
135590,103397
135604,103410
135660,103453
135683,103443
135713,103445
135722,103446
135735,103452
135823,103495
135851,103531
135841,103474
135852,103493
135853,103467
135908,103519
135954,103540
135935,103513
135887,103508
135930,103529
135961,103563
135985,103546
136009,103565
135969,103548
135973,103533
136040,103571
136065,103612
136046,103564
136057,103573
136030,103572
136114,103579
136112,103587
136066,103563
136000,103533
135921,103522
135887,103504
135808,103440
135720,103424
135559,103326
135462,103318
135401,103296
135333,103246
135194,103233
135092,103145
135018,103146
134999,103115
134938,103123
134836,103072
134747,103057
134697,102995
134727,103019
134676,103060
134627,102975
134546,102980
134523,102988
134547,102969
134556,102984
134508,102957
134473,102926
134455,102932
134534,102935
134523,102980
134505,102944
134460,102950
134473,102958
134529,102994
134543,102965
134549,102988
134534,102997
134540,103001
134622,102998
134630,103018
134670,102990
134597,103001
134635,103031
134725,103047
134685,103054
134714,103019
134716,103017
134713,103047
134767,103057
134828,103076
134803,103088
134778,103064
134825,103074
134886,103114
134881,103113
134914,103112
134895,103094
134941,103154
134999,103152
135059,103161
135069,103157
135016,103138
135103,103181
135165,103202
135138,103209
135138,103187
135080,103187
135111,103163
135138,103201
135141,103201
135073,103186
135021,103135
135032,103115
135085,103169
135109,103160
135065,103170
134968,103128
135020,103137
135060,103162
135082,103160
135026,103161
134939,103129
135030,103123
135046,103139
135039,103134
135030,103140
134933,103130
134999,103114
135043,103123
134997,103145
135007,103141
134969,103142
135003,103133
135044,103146
135075,103156
135050,103131
135047,103125
135058,103134
135138,103162
135117,103210
135114,103168
135092,103155
135141,103208
135206,103190
135242,103241
135190,103225
135206,103177
135235,103213
135312,103235
135310,103218
135286,103209
135258,103232
135335,103239
135354,103263
135329,103250
135357,103261
135298,103225
135374,103258
135411,103258
135408,103283
135369,103263
135337,103231
135403,103257
135440,103294
135452,103272
135423,103270
135411,103272
135469,103284
135500,103320
135532,103327
135466,103307
135458,103289
135519,103298
135582,103336
135584,103326
135563,103308
135504,103297
135582,103350
135618,103358
135645,103383
135606,103340
135592,103329
135620,103338
135683,103335
135691,103411
135649,103366
135663,103351
135732,103392
135789,103411
135795,103416
135755,103413
135746,103391
135813,103426
135801,103411
135822,103428
135760,103404
135708,103386
135709,103367
135676,103317
135621,103344
135489,103274
135371,103220
135350,103220
135261,103178
135178,103115
135069,103093
134935,103070
134934,103046
134859,103050
134819,102982
134693,102941
134642,102961
134655,102952
134633,102949
134511,102913
134459,102863
134454,102862
134494,102879
134456,102891
134411,102888
134341,102849
134332,102819
134401,102876
134408,102890
134373,102841
134319,102805
134340,102858
134401,102873
134421,102860
134415,102855
134316,102841
134380,102831
134455,102895
134425,102904
134428,102873
134430,102846
134421,102889
134486,102908
134519,102903
134550,102915
134485,102910
134485,102866
134565,102929
134612,102938
134576,102941
134562,102947
134591,102928
134650,102955
134677,102964
134672,102957
134682,102986
134694,102969
134730,102998
134760,103003
134777,103004
134752,103008
134770,102990
134826,103007
134859,103041
134832,103040
134754,103010
134829,103007
134831,103028
134856,103024
134873,103008
134807,103007
134797,103012
134843,103010
134869,103041
134812,103025
134757,102974
134795,103016
134811,103000
134802,103003
134795,102968
134731,102977
134697,102949
134725,102968
134767,102998
134696,102964
134672,102940
134678,102960
134738,102938
134704,102951
134702,102972
134671,102929
134674,102933
134767,102944
134741,102944
134771,102973
134695,102946
134696,102986
134784,102960
134808,103010
134769,102985
134750,102953
134801,103006
134810,103021
134833,103031
134812,102995
134805,102975
134820,103005
134897,103024
134889,103050
134890,103032
134872,103031
134899,103007
134973,103065
134949,103040
135025,103053
134929,103071
135013,103053
135016,103111
135074,103093
135050,103075
135027,103113
135087,103091
135111,103103
135155,103128
135135,103137
135046,103100
135128,103134
135177,103162
135162,103134
135206,103135
135151,103129
135169,103151
135266,103146
135264,103190
135232,103163
135202,103132
135262,103201
135303,103203
135352,103165
135322,103179
135259,103197
135322,103195
135404,103185
135438,103213
135419,103215
135341,103179
135398,103199
135489,103260
135476,103235
135489,103245
135380,103203
135488,103278
135498,103237
135554,103290
135540,103272
135466,103255
135559,103260
135553,103268
135593,103284
135555,103254
135520,103244
135521,103263
135494,103262
135438,103203
135335,103150
135262,103142
135189,103129
135148,103094
135033,103055
134899,102977
134811,102942
134750,102946
134708,102907
134640,102871
134532,102847
134432,102819
134398,102808
134383,102766
134326,102781
134218,102733
134184,102712
134133,102702
134188,102739
134103,102703
134057,102668
133994,102678
134030,102680
134050,102708
134004,102684
133962,102631
133980,102653
133993,102668
134004,102679
134020,102695
133965,102646
133963,102644
133997,102666
134036,102680
134017,102692
133996,102635
134016,102684
134039,102692
134106,102682
134113,102720
134079,102724
134039,102677
134106,102737
134141,102731
134154,102721
134132,102713
134091,102741
134156,102733
134229,102752
134230,102793
134202,102744
134199,102743
134232,102767
134293,102798
134298,102761
134332,102789
134329,102788
134365,102829
134412,102829
134422,102859
134380,102805
134420,102818
134462,102879
134463,102851
134513,102865
134412,102857
134398,102806
134503,102852
134504,102854
134459,102852
134437,102824
134423,102819
134464,102851
134439,102812
134481,102828
134360,102800
134388,102812
134386,102814
134425,102837
134373,102828
134371,102791
134311,102767
134409,102827
134423,102824
134391,102820
134338,102798
134289,102777
134391,102814
134390,102800
134361,102796
134375,102819
134332,102777
134396,102828
134405,102822
134416,102820
134394,102800
134375,102805
134418,102856
134443,102804
134485,102855
134446,102871
134419,102842
134493,102835
134573,102899
134565,102856
134535,102857
134557,102860
134608,102929
134603,102884
134662,102905
134585,102858
134579,102907
134686,102925
134704,102961
134664,102936
134695,102905
134681,102936
134743,102933
134771,102956
134769,102965
134702,102935
134761,102923
134848,102965
134824,103000
134854,103002
134833,102953
134854,102994
134913,103035
134909,103049
134963,103035
134904,103025
134927,103007
135045,103057
135028,103086
135049,103080
134993,103041
135036,103034
135106,103102
135100,103066
135104,103068
135061,103089
135089,103090
135119,103100
135168,103108
135141,103092
135083,103106
135114,103059
135177,103117
135171,103076
135135,103110
135136,103090
135144,103113
135239,103125
135220,103138
135234,103117
135211,103153
135214,103121
135316,103144
135318,103162
135359,103176
135292,103149
135325,103140
135436,103218
135373,103169
135374,103154
135308,103141
135272,103147
135223,103079
135152,103097
135096,103035
134919,102985
134866,102963
134812,102966
134697,102884
134596,102842
134450,102819
134433,102781
134361,102779
134324,102754
134227,102749
134083,102672
134062,102668
134068,102647
133995,102637
133924,102624
133821,102558
133844,102585
133839,102602
133787,102569
133795,102560
133694,102559
133694,102521
133782,102553
133755,102560
133738,102550
133628,102536
133707,102536
133781,102583
133722,102555
133707,102555
133726,102551
133720,102576
133762,102596
133755,102569
133785,102537
133714,102565
133781,102583
133826,102576
133812,102585
133808,102626
133749,102571
133786,102593
133877,102632
133899,102622
133846,102627
133792,102572
133918,102599
133924,102661
133943,102657
133929,102644
133901,102619
133944,102664
134014,102662
134017,102694
134057,102665
133997,102668
134073,102704
134123,102703
134110,102710
134085,102717
134037,102663
134089,102688
134125,102744
134100,102717
134116,102670
134072,102688
134101,102718
134151,102700
134142,102738
134084,102686
134051,102686
134100,102721
134096,102732
134133,102721
134090,102701
134036,102713
134064,102705
134097,102678
134099,102691
134073,102690
134058,102699
134057,102703
134099,102707
134108,102692
134085,102722
134024,102667
134116,102695
134110,102734
134110,102726
134127,102698
134075,102681
134134,102735
134164,102727
134176,102725
134137,102747
134136,102723
134194,102760
134247,102749
134221,102783
134221,102722
134217,102760
134254,102753
134332,102820
134323,102805
134285,102790
134282,102782
134383,102823
134392,102859
134437,102838
134402,102819
134386,102818
134519,102885
134504,102863
134557,102871
134521,102873
134527,102877
134571,102883
134646,102926
134637,102930
134613,102907
134665,102906
134765,102979
134804,102967
134792,102995
134785,102971
134785,102992
134906,103018
134952,103051
134945,103046
134958,103051
134958,103037
135047,103098
135096,103084
135068,103095
135054,103086
135039,103062
135113,103074
135142,103111
135138,103105
135107,103110
135107,103098
135185,103134
135218,103134
135254,103148
135189,103127
135210,103138
135264,103157
135320,103181
135337,103160
135330,103189
135314,103168
135366,103188
135445,103204
135436,103242
135394,103195
135411,103188
135475,103244
135493,103269
135449,103230
135485,103228
135467,103227
135511,103251
135519,103242
135519,103243
135412,103199
135401,103191
135413,103195
135367,103178
135286,103144
135122,103055
135065,103031
135014,103011
134938,103015
134812,102950
134685,102879
134579,102832
134563,102858
134491,102832
134407,102775
134275,102751
134177,102712
134178,102698
134162,102683
134095,102665
133975,102630
133933,102646
133954,102607
133922,102626
133887,102620
133787,102568
133800,102587
133788,102581
133824,102603
133785,102570
133761,102564
133744,102583
133787,102587
133817,102605
133780,102583
133754,102551
133753,102583
133811,102588
133851,102599
133863,102603
133765,102562
133836,102590
133857,102619
133886,102624
133899,102646
133832,102602
133887,102642
133932,102650
133953,102665
133990,102649
133924,102626
133971,102665
134034,102684
134040,102696
134051,102692
134012,102688
134067,102704
134121,102717
134153,102737
134189,102738
134117,102714
134202,102751
134238,102743
134233,102772
134285,102788
134227,102735
134256,102775
134321,102786
134302,102796
134302,102794
134264,102764
134318,102801
134368,102804
134354,102809
134353,102814
134284,102789
134336,102803
134397,102811
134356,102828
134352,102818
134313,102780
134355,102802
134335,102811
134349,102813
134320,102793
134247,102759
134282,102785
134299,102781
134297,102777
134310,102777
134224,102744
134289,102790
134334,102787
134317,102775
134297,102802
134249,102774
134295,102778
134345,102807
134340,102803
134362,102830
134318,102797
134348,102799
134423,102843
134422,102836
134402,102819
134360,102817
134399,102839
134463,102829
134501,102872
134463,102867
134424,102839
134532,102889
134544,102881
134567,102892
134565,102888
134540,102877
134610,102902
134649,102901
134675,102919
134679,102939
134639,102911
134718,102934
134779,102990
134788,102974
134746,102968
134746,102958
134822,102970
134831,103008
134829,102998
134819,102985
134823,102979
134875,103007
134913,103019
134940,103038
134901,103023
134916,103040
135001,103036
135013,103067
135064,103099
135061,103081
135009,103060
135074,103087
135149,103104
135115,103089
135159,103121
135111,103094
135172,103122
135183,103141
135222,103114
135153,103103
135174,103144
135210,103163
135243,103140
135277,103167
135272,103150
135207,103137
135287,103161
135339,103181
135345,103188
135326,103152
135289,103163
135385,103196
135391,103210
135384,103224
135351,103168
135294,103147
135324,103165
135251,103125
135173,103104
135097,103047
134912,102983
134903,102998
134812,102930
134701,102908
134608,102866
134499,102828
134440,102813
134397,102806
134325,102787
134199,102734
134157,102690
134171,102693
134097,102698
134052,102681
134020,102630
133935,102653
133971,102666
133971,102631
133943,102614
133850,102635
133781,102600
133851,102621
133917,102623
133880,102627
133820,102602
133784,102579
133872,102640
133876,102643
133873,102614
133857,102630
133836,102618
133943,102643
133954,102684
133974,102635
134004,102667
133964,102677
134046,102692
134083,102711
134111,102715
134081,102702
134085,102711
134168,102737
134152,102760
134164,102721
134149,102730
134158,102749
134202,102749
134216,102754
134280,102760
134228,102740
134245,102755
134337,102800
134344,102820
134358,102802
134357,102812
134390,102831
134434,102850
134516,102857
134514,102890
134481,102861
134509,102880
134528,102914
134500,102887
134569,102885
134486,102857
134482,102858
134497,102873
134490,102906
134474,102828
134428,102791
134395,102816
134460,102853
134411,102869
134426,102813
134378,102785
134360,102829
134400,102828
134435,102810
134417,102860
134356,102833
134359,102820
134415,102825
134437,102849
134389,102797
134360,102774
134361,102816
134425,102852
134457,102837
134430,102828
134380,102822
134415,102833
134487,102869
134469,102875
134458,102823
134430,102841
134442,102870
134495,102873
134553,102873
134536,102895
134525,102858
134529,102881
134629,102934
134617,102931
134628,102928
134551,102901
134602,102923
134670,102905
134684,102978
134709,102941
134663,102923
134707,102921
134768,102981
134793,102981
134785,102934
134773,102950
134756,102995
134837,103004
134857,103033
134897,103021
134863,103012
134935,103055
134981,103077
134974,103054
135040,103055
134982,103077
135022,103074
135109,103103
135129,103112
135097,103087
135080,103084
135125,103076
135163,103139
135169,103117
135177,103143
135124,103083
135127,103132
135202,103165
135244,103143
135234,103128
135207,103135
135252,103162
135294,103198
135350,103189
135381,103185
135331,103181
135368,103199
135454,103203
135482,103229
135471,103218
135376,103202
135449,103209
135483,103240
135402,103220
135349,103186
135243,103141
135185,103101
135145,103083
135100,103074
134972,103011
134804,102969
134760,102954
134695,102912
134639,102889
134536,102831
134366,102800
134369,102795
134313,102791
134252,102766
134193,102751
134079,102691
134071,102667
134075,102703
134012,102682
133926,102650
133854,102593
133887,102652
133869,102650
133879,102629
133835,102571
133780,102595
133787,102589
133835,102606
133824,102612
133823,102578
133803,102581
133862,102639
133861,102645
133925,102658
133893,102619
133858,102608
133928,102646
133937,102639
133998,102668
133941,102660
133913,102626
133973,102655
134000,102689
134053,102677
133994,102687
133952,102682
134061,102715
134064,102729
134094,102697
134092,102703
134034,102686
134147,102739
134214,102756
134205,102742
134233,102750
134196,102765
134239,102790
134289,102781
134327,102841
134313,102798
134271,102775
134314,102802
134328,102829
134307,102812
134296,102779
134299,102800
134306,102800
134332,102810
134335,102788
134325,102793
134241,102812
134309,102798
134321,102807
134352,102815
134282,102795
134233,102731
134279,102781
134282,102790
134291,102775
134237,102768
134160,102745
134229,102774
134240,102755
134236,102756
134183,102731
134174,102725
134191,102760
134208,102781
134210,102763
134200,102751
134165,102777
134242,102788
134282,102779
134284,102801
134243,102791
134228,102762
134310,102786
134266,102783
134315,102806
134304,102798
134233,102769
134330,102802
134374,102803
134371,102831
134337,102813
134323,102798
134404,102823
134445,102856
134449,102841
134386,102848
134422,102849
134533,102870
134554,102903
134569,102914
134520,102909
134564,102874
134641,102945
134697,102971
134664,102958
134669,102952
134702,102956
134773,102963
134797,102974
134791,102985
134716,102972
134760,102969
134822,103016
134803,103018
134812,102981
134776,102965
134789,103002
134845,103015
134873,103006
134889,103007
134831,102989
134853,103015
134903,103055
134955,103056
134953,103066
134888,103021
134910,103041
134972,103074
134974,103068
135028,103079
134951,103070
134968,103033
135060,103065
135067,103106
135069,103084
135045,103064
135040,103100
135128,103100
135158,103117
135178,103118
135127,103137
135166,103120
135208,103139
135195,103142
135161,103131
135084,103085
135038,103077
134971,103041
134890,103043
134786,102981
134666,102892
134560,102886
134520,102864
134431,102849
134312,102758
134202,102725
134101,102725
134069,102707
134012,102694
133920,102628
133818,102616
133737,102530
133723,102588
133650,102532
133583,102518
133463,102506
133441,102463
133407,102467
133406,102464
133341,102437
133241,102411
133247,102415
133279,102450
133278,102403
133246,102402
133195,102401
133203,102419
133233,102433
133256,102423
133245,102411
133186,102397
133244,102414
133271,102417
133276,102436
133275,102441
133219,102411
133255,102407
133321,102456
133324,102457
133333,102469
133273,102419
133345,102472
133397,102469
133407,102453
133430,102492
133361,102487
133457,102499
133496,102534
133536,102536
133531,102499
133528,102530
133603,102530
133661,102581
133700,102581
133682,102579
133659,102595
133711,102596
133781,102631
133756,102639
133749,102621
133742,102607
133812,102638
133834,102648
133852,102660
133870,102652
133778,102640
133861,102683
133916,102660
133929,102682
133928,102690
133838,102643
133902,102675
133955,102686
133909,102701
133916,102656
133847,102685
133862,102675
133888,102666
133923,102644
133903,102672
133836,102635
133870,102662
133909,102668
133911,102691
133887,102676
133840,102626
133922,102698
133943,102701
133950,102695
133932,102675
133944,102696
133992,102728
134048,102699
134031,102760
134007,102736
134010,102695
134076,102709
134084,102756
134092,102772
134078,102724
134076,102746
134128,102765
134156,102771
134206,102778
134174,102797
134153,102757
134275,102785
134290,102822
134333,102855
134365,102823
134329,102866
134441,102901
134503,102907
134528,102929
134499,102887
134500,102921
134592,102931
134629,102930
134619,102940
134624,102972
134579,102921
134659,102980
134712,102962
134686,102989
134698,102986
134656,102939
134764,103005
134778,103006
134808,103012
134803,102993
134848,103044
134885,103057
134955,103074
134941,103086
134932,103053
134915,103088
134982,103089
135013,103122
135002,103100
135024,103072
134967,103079
135069,103106
135102,103105
135164,103139
135067,103168
135103,103120
135159,103157
135243,103173
135239,103176
135252,103160
135220,103187
135323,103185
135374,103196
135369,103232
135372,103182
135374,103232
135416,103265
135380,103209
135340,103181
135227,103167
135092,103099
135081,103061
135025,103087
134878,103017
134692,102961
134592,102898
134584,102907
134458,102828
134373,102828
134264,102798
134173,102768
134171,102744
134146,102726
134045,102697
133992,102682
133914,102665
133891,102669
133915,102690
133829,102645
133767,102590
133717,102596
133768,102615
133710,102604
133732,102591
133685,102551
133649,102545
133686,102599
133704,102594
133692,102580
133679,102600
133669,102588
133744,102602
133780,102613
133772,102622
133731,102613
133750,102607
133859,102653
133853,102669
133896,102645
133880,102642
133894,102675
133977,102671
133997,102739
134042,102690
133980,102688
134042,102706
134128,102756
134122,102765
134160,102759
134143,102765
134190,102765
134275,102794
134315,102822
134344,102823
134322,102833
134367,102833
134515,102908
134541,102902
134577,102930
134591,102943
134624,102942
134696,102953
134743,102977
134748,102984
134684,102954
134719,102986
134782,102980
134781,102998
134751,103000
134693,102982
134696,102954
134718,102962
134742,102972
134715,102986
134600,102921
134656,102934
134673,102960
134688,102962
134641,102952
134618,102928
134638,102904
134659,102947
134687,102944
134658,102974
134616,102899
134666,102953
134698,102944
134697,102965
134702,102947
134643,102942
134652,102947
134701,102950
134732,102961
134699,102951
134628,102924
134717,102962
134753,102984
134785,102990
134783,103005
134778,102967
134834,103017
134877,103029
134965,103081
134919,103081
134904,103014
134949,103070
135019,103066
135047,103091
135066,103065
135034,103091
135085,103095
135163,103138
135167,103151
135166,103159
135120,103112
135225,103143
135279,103182
135324,103216
135323,103196
135315,103165
135422,103213
135435,103281
135490,103240
135498,103285
135458,103252
135547,103268
135642,103310
135626,103318
135653,103328
135611,103292
135700,103349
135729,103349
135779,103366
135744,103345
135729,103327
135795,103371
135816,103407
135862,103406
135887,103392
135871,103387
135944,103420
136013,103459
136012,103431
136009,103428
135999,103458
136028,103475
136128,103471
136114,103477
136121,103479
136076,103483
136113,103499
136167,103509
136170,103497
136152,103498
136117,103481
136155,103521
136160,103496
136187,103501
136079,103480
135983,103447
135992,103447
135928,103397
135856,103365
135716,103300
135558,103253
135516,103226
135399,103192
135327,103154
135141,103119
135019,103007
135007,103044
134901,102971
134814,102972
134721,102944
134551,102888
134533,102864
134528,102869
134484,102823
134409,102803
134353,102781
134311,102821
134317,102751
134294,102789
134246,102763
134194,102731
134256,102779
134321,102784
134253,102777
134251,102777
134216,102769
134272,102799
134299,102777
134296,102769
134281,102815
134247,102753
134306,102785
134331,102831
134346,102820
134294,102791
134283,102793
134376,102824
134381,102801
134403,102834
134367,102819
134384,102832
134426,102893
134511,102881
134528,102892
134532,102887
134535,102898
134598,102921
134678,102969
134675,102944
134673,102935
134683,102955
134759,102968
134840,103004
134823,103025
134794,102999
134759,102988
134863,103004
134895,103022
134882,103036
134847,102988
134824,103007
134912,103005
134921,103042
134900,103022
134895,103010
134855,103018
134929,103033
134922,103044
134909,103019
134876,103010
134860,103007
134925,102993
134909,103033
134862,103011
134811,102973
134811,102966
134827,102985
134851,103002
134813,102980
134779,102968
134775,102966
134780,102986
134809,102984
134802,102991
134725,102950
134743,102959
134774,102984
134807,102976
134815,103003
134758,102960
134769,102976
134830,102997
134844,103004
134863,102995
134794,102987
134816,102970
134909,102998
134906,103018
134931,103028
134876,103014
134890,103038
134997,103040
135005,103059
135013,103031
135019,103054
134990,103095
135046,103074
135089,103114
135122,103104
135087,103116
135094,103103
135212,103121
135247,103145
135249,103150
135216,103149
135214,103181
135313,103165
135359,103189
135344,103205
135300,103180
135345,103170
135442,103236
135474,103236
135451,103244
135420,103210
135462,103211
135530,103292
135567,103290
135589,103284
135583,103269
135669,103313
135707,103312
135749,103336
135776,103366
135742,103338
135820,103342
135916,103422
135963,103424
135942,103416
135917,103404
135974,103415
136028,103475
136053,103456
136074,103436
136016,103419
136059,103441
136039,103423
136016,103389
135944,103388
135798,103336
135770,103321
135643,103270
135578,103246
135457,103204
135289,103136
135214,103101
135185,103095
135076,103072
135013,103030
134886,102982
134822,102950
134800,102967
134784,102948
134668,102912
134627,102897
134577,102919
134620,102891
134581,102879
134557,102856
134488,102831
134494,102864
134521,102842
134541,102884
134502,102848
134506,102844
134512,102887
134558,102868
134611,102901
134578,102889
134580,102866
134613,102922
134689,102940
134701,102939
134755,102979
134671,102950
134778,102963
134817,102969
134864,103006
134853,102996
134877,103005
134951,103049
135006,103046
135055,103071
135034,103052
135041,103069
135158,103114
135211,103129
135276,103175
135302,103177
135302,103161
135424,103239
135461,103225
135556,103237
135580,103263
135575,103255
135675,103274
135705,103340
135697,103332
135725,103309
135689,103301
135727,103367
135791,103337
135827,103383
135763,103316
135722,103303
135738,103357
135757,103351
135773,103331
135713,103323
135643,103260
135715,103306
135720,103316
135692,103282
135630,103288
135548,103248
135637,103267
135624,103288
135612,103275
135555,103251
135540,103226
135567,103270
135555,103272
135544,103238
135536,103262
135470,103234
135525,103227
135580,103243
135585,103259
135522,103232
135522,103231
135537,103266
135591,103246
135632,103302
135581,103267
135534,103234
135617,103307
135650,103309
135682,103295
135678,103309
135648,103283
135721,103328
135792,103345
135805,103345
135766,103328
135749,103312
135883,103385
135888,103386
135926,103406
135922,103386
135938,103383
135992,103444
136054,103414
136087,103471
136086,103456
136080,103458
136200,103506
136234,103534
136235,103486
136244,103495
136252,103511
136336,103554
136384,103551
136396,103570
136371,103526
136369,103553
136467,103570
136482,103604
136532,103604
136494,103591
136542,103606
136586,103622
136614,103667
136605,103658
136594,103636
136600,103615
136701,103683
136707,103665
136725,103663
136697,103670
136647,103636
136770,103680
136763,103710
136737,103690
136712,103664
136620,103609
136668,103654
136604,103613
136499,103591
136350,103505
136165,103456
136086,103437
135963,103362
135840,103294
135654,103258
135532,103198
135484,103193
135378,103132
135288,103128
135117,103075
135044,102998
135050,103020
135005,102992
134906,102990
134801,102949
134740,102895
134742,102935
134721,102893
134683,102903
134598,102892
134549,102833
134628,102865
134600,102884
134562,102877
134532,102849
134512,102832
134532,102867
134562,102886
134534,102837
134518,102847
134544,102838
134579,102875
134598,102888
134605,102879
134572,102850
134622,102903
134680,102904
134723,102933
134708,102917
134673,102883
134743,102937
134784,102976
134834,102967
134845,102992
134814,102959
134884,102999
134935,103042
135020,103023
135008,103035
135028,103019
135033,103056
135119,103079
135207,103103
135176,103107
135179,103075
135201,103094
135313,103147
135304,103169
135295,103128
135275,103113
135323,103136
135357,103177
135366,103188
135390,103158
135349,103164
135333,103155
135365,103202
135410,103187
135339,103158
135296,103157
135321,103150
135341,103149
135338,103164
135288,103136
135241,103095
135209,103125
135228,103101
135250,103113
135238,103091
135195,103090
135185,103081
135223,103104
135265,103142
135221,103095
135179,103086
135229,103112
135244,103108
135263,103123
135261,103117
135220,103102
135222,103128
135281,103113
135332,103137
135314,103165
135243,103102
135296,103114
135368,103147
135365,103171
135355,103136
135334,103149
135360,103143
135461,103154
135446,103164
135461,103188
135421,103203
135464,103183
135540,103227
135543,103234
135525,103223
135506,103201
135549,103248
135591,103244
135643,103246
135627,103253
135597,103243
135641,103258
135747,103294
135734,103330
135727,103296
135720,103297
135788,103329
135856,103320
135877,103371
135901,103349
135859,103337
135910,103350
135982,103389
135986,103404
136003,103383
135985,103395
136003,103394
136073,103426
136052,103414
136091,103423
136033,103410
136062,103396
136136,103454
136143,103457
136124,103443
136080,103427
136172,103471
136202,103485
136201,103468
136164,103462
136114,103411
136142,103448
136094,103428
136065,103384
135958,103370
135805,103321
135708,103288
135634,103268
135533,103189
135410,103151
135242,103101
135237,103072
135116,103034
135041,102997
134937,102955
134797,102899
134761,102910
134741,102906
134681,102855
134564,102830
134484,102804
134490,102787
134474,102807
134450,102795
134347,102752
134330,102738
134357,102761
134315,102749
134314,102731
134288,102752
134255,102735
134326,102742
134342,102741
134361,102769
134344,102770
134316,102754
134385,102776
134393,102803
134426,102799
134450,102797
134426,102807
134522,102821
134565,102853
134535,102830
134528,102829
134562,102855
134602,102844
134645,102884
134678,102892
134654,102920
134648,102873
134746,102910
134792,102949
134825,102940
134813,102951
134823,102954
134938,102990
135016,103034
135047,103039
135044,103025
135051,103036
135140,103080
135170,103046
135215,103094
135186,103088
135186,103066
135294,103123
135307,103146
135322,103132
135308,103107
135312,103119
135373,103140
135391,103161
135369,103155
135325,103135
135284,103128
135355,103152
135340,103132
135350,103127
135245,103105
135264,103108
135301,103119
135331,103137
135269,103083
135252,103097
135228,103072
135296,103088
135312,103112
135293,103105
135260,103086
135252,103102
135334,103133
135314,103118
135327,103123
135283,103092
135272,103129
135329,103120
135392,103132
135381,103146
135356,103145
135351,103132
135424,103153
135478,103174
135457,103168
135467,103181
135452,103171
135539,103211
135539,103223
135599,103203
135533,103210
135597,103213
135647,103272
135692,103309
135730,103283
135688,103245
135749,103300
135831,103301
135851,103330
135880,103323
135837,103323
135877,103286
135940,103361
135988,103410
135977,103368
135961,103369
135993,103354
136061,103373
