11111,11111
0,0
82271,81473
107238,103454
107236,103477
107237,103431
107203,103424
107255,103454
107222,103450
107205,103490
107206,103433
107209,103481
107222,103417
107261,103470
107214,103447
107224,103450
107211,103437
107276,103463
107205,103467
107233,103437
107198,103477
107210,103435
107218,103431
107207,103465
107247,103425
107217,103455
107214,103414
107209,103426
107217,103474
107222,103421
107241,103442
107191,103457
107190,103447
107226,103421
107217,103475
107239,103411
107209,103468
107258,103399
107275,103446
107242,103421
107277,103432
107236,103416
107265,103438
107275,103473
107278,103429
107264,103441
107293,103452
107282,103467
107262,103403
107287,103460
107286,103412
107301,103436
107267,103425
107290,103432
107280,103468
107243,103413
107262,103413
107267,103399
107262,103401
107239,103438
107238,103376
107221,103426
107226,103375
107170,103368
107212,103395
107181,103373
107221,103396
107178,103398
107149,103360
107175,103370
107174,103375
107154,103345
107198,103380
107162,103336
107201,103385
107189,103365
107218,103401
107192,103369
107197,103402
107186,103364
107214,103357
107244,103359
107224,103387
107256,103343
107256,103404
107261,103375
107262,103361
107266,103405
107298,103359
107325,103419
107328,103394
107379,103414
107380,103449
107335,103405
107379,103417
107380,103406
107439,103440
107435,103444
107455,103452
107478,103433
107511,103466
107481,103424
107490,103484
107496,103450
107519,103465
107518,103476
107519,103455
107554,103473
107550,103475
107583,103483
107549,103515
107584,103478
107601,103504
107590,103495
107589,103496
107597,103478
107603,103504
107608,103501
107631,103504
107673,103489
107644,103519
107680,103485
107713,103511
107681,103493
107684,103528
107729,103501
107985,103631
108214,103713
108251,103706
107008,103187
106921,103159
106869,103104
106356,102904
106338,102871
106354,102886
106334,102889
106326,102891
106320,102841
106338,102860
106302,102818
106347,102878
106278,102868
106323,102860
106275,102844
106309,102857
106295,102853
106315,102825
106304,102857
106348,102852
106304,102858
106339,102859
106376,102851
106379,102875
106386,102892
106393,102848
106386,102861
106393,102861
106436,102883
106396,102904
106412,102854
106438,102896
106415,102911
106424,102903
106447,102871
106422,102924
106417,102885
106460,102900
106457,102880
106462,102914
106424,102896
106428,102887
106405,102884
106464,102878
106404,102875
106412,102860
106397,102874
106413,102906
106410,102844
106392,102878
106389,102859
106387,102872
106347,102811
106378,102861
106415,102849
106397,102832
106393,102865
106384,102870
106396,102835
106381,102846
106411,102870
106397,102839
106421,102860
106426,102842
106458,102868
106462,102846
106482,102884
106463,102844
106506,102880
106496,102894
106544,102893
106512,102893
106554,102929
106615,102881
106590,102928
106628,102963
106641,102972
106661,102989
106660,102976
106683,102969
106727,103000
106722,103010
106742,102996
106755,103025
106750,103047
106775,102998
106795,103044
106803,103036
106804,103073
106774,102988
106820,103049
106782,103026
106793,103047
106807,103018
106795,103020
106838,103047
106836,103013
106781,102997
106857,103014
106841,103032
106874,102984
106857,103029
106847,103041
106851,103004
106902,103050
106912,103053
106885,103049
106924,103057
106933,103040
106970,103083
106951,103074
106948,103050
107002,103069
106997,103075
106983,103108
107009,103060
107025,103076
107022,103071
107042,103047
107065,103081
107033,103061
107075,103108
107041,103086
107026,103078
107023,103069
107064,103065
107102,103087
107067,103064
107081,103059
107112,103082
107082,103115
107089,103056
107160,103108
107121,103085
107143,103082
107167,103076
107198,103082
107204,103094
107209,103115
107205,103072
107193,103115
107254,103114
107232,103124
107243,103101
107271,103138
107278,103082
107280,103118
107310,103145
107325,103141
107300,103150
107350,103117
107364,103171
107377,103170
107357,103158
107375,103194
107397,103167
107457,103194
107424,103182
107461,103192
107479,103199
107481,103217
107472,103231
107512,103196
107540,103249
107545,103241
107577,103236
107554,103242
107542,103253
107567,103245
107570,103285
107555,103251
107561,103265
107529,103245
107535,103218
107468,103226
107452,103178
107386,103176
107354,103154
107265,103096
107228,103089
107115,103030
107070,103028
106985,102997
106915,102951
106798,102935
106733,102869
106695,102865
106562,102792
106525,102812
106446,102761
106368,102730
106314,102683
106258,102693
106185,102650
106188,102641
106124,102595
106120,102603
106086,102590
106062,102579
106000,102609
106005,102558
105981,102523
106005,102568
105944,102556
105973,102545
105992,102563
105972,102569
105952,102519
106001,102546
105931,102571
105973,102539
106033,102564
105961,102557
105994,102558
105995,102570
105970,102579
106010,102542
105961,102593
105999,102547
105981,102566
105983,102564
105970,102569
106015,102547
106016,102596
105992,102564
105975,102560
106008,102537
105991,102542
106031,102526
105981,102591
106023,102531
106004,102568
106009,102574
106008,102558
106033,102554
106008,102542
106049,102561
106025,102567
106067,102562
106026,102569
106113,102551
106082,102603
106059,102573
106112,102574
106114,102580
106118,102579
106192,102608
106154,102578
106207,102613
106168,102586
106184,102597
106233,102609
106189,102591
106228,102606
106212,102606
106189,102609
106239,102636
106230,102604
106253,102616
106234,102617
106202,102597
106243,102593
106256,102641
106177,102607
106209,102598
106204,102620
106193,102586
106227,102592
106177,102580
106206,102612
106197,102578
106194,102583
106189,102576
106180,102569
106194,102545
106173,102606
106162,102534
106181,102603
106195,102555
106161,102558
106177,102575
106123,102524
106197,102582
106153,102578
106156,102550
106143,102547
106209,102542
106154,102555
106178,102528
106193,102580
106226,102531
106204,102546
106240,102527
106259,102570
106466,102460
106475,102460
106488,102452
106499,102441
106517,102429
106527,102466
106511,102441
106501,102473
106529,102466
106541,102446
106518,102458
106537,102449
106565,102481
106581,102445
106583,102470
106532,102480
106558,102454
106520,102445
106560,102476
106495,102447
106476,102397
106465,102449
106424,102412
106372,102386
106252,102336
106234,102338
106162,102274
106078,102265
105981,102245
105946,102150
105862,102143
105760,102074
105692,102052
105600,102058
105523,101975
105465,101995
105386,101956
105283,101882
105268,101844
105188,101823
105158,101789
105118,101790
105066,101780
105009,101719
104966,101742
104947,101704
104944,101731
104941,101688
104882,101667
104915,101695
104896,101659
104853,101685
104864,101652
104865,101637
104890,101634
104863,101675
104852,101620
104884,101651
104850,101650
104827,101646
104813,101644
104874,101652
104823,101636
104875,101612
104853,101655
104803,101635
104841,101619
104879,101656
104834,101589
104894,101641
104818,101632
104866,101656
104835,101636
104845,101581
104871,101635
104834,101618
104820,101624
104823,101588
104832,101625
104791,101570
104795,101572
104791,101604
104820,101571
104786,101602
104789,101602
104784,101559
104800,101592
104756,101576
104826,101590
104827,101547
104822,101603
104811,101549
104841,101564
104825,101619
104868,101573
104862,101598
104846,101570
104897,101600
104868,101619
104911,101610
104905,101620
104877,101570
104940,101601
104876,101612
104924,101610
104911,101572
104891,101593
104917,101584
104952,101578
104926,101623
104901,101598
104917,101563
104898,101594
104912,101586
104910,101601
104864,101549
104871,101573
104873,101583
104884,101571
104869,101546
104855,101557
104884,101558
104869,101565
104842,101511
104873,101583
104841,101565
104847,101557
104868,101584
104822,101518
104902,101557
104856,101562
104886,101542
104894,101587
104876,101573
104898,101551
104917,101572
104893,101572
104913,101575
104938,101599
104926,101565
104957,101580
104964,101603
104978,101564
105023,101616
105021,101643
104969,101591
105022,101630
104989,101610
105068,101646
105061,101648
105083,101645
105046,101638
105106,101639
105110,101649
105132,101641
105118,101685
105181,101646
105189,101692
105171,101713
105183,101669
105165,101679
105209,101708
105217,101689
105220,101672
105234,101675
105278,101723
105254,101676
105314,101722
105309,101733
105306,101749
105286,101698
105349,101745
105328,101708
105348,101779
105374,101742
105342,101777
105360,101709
105416,101752
105400,101779
105418,101782
105412,101785
105455,101790
105467,101814
105461,101762
105462,101820
105494,101813
105483,101791
105532,101825
105523,101874
105539,101797
105579,101847
105550,101807
105595,101867
105611,101857
105612,101894
105599,101850
105628,101879
105649,101896
105636,101886
105666,101874
105715,101910
105699,101883
105717,101900
105743,101927
105774,101920
105774,101984
105754,101899
105817,101938
105829,101953
105824,101934
105815,101968
105830,101963
105873,101962
105859,102002
105862,101979
105889,101950
105869,101961
105885,101971
105894,101990
105939,101976
105930,101985
105921,101976
105898,101992
105882,101990
105821,101947
105803,101937
105724,101921
105714,101890
105668,101876
105612,101869
105516,101756
105465,101790
105413,101719
105302,101696
105251,101679
105145,101593
105096,101621
104998,101546
104990,101544
104885,101481
104847,101429
104728,101426
104703,101384
104672,101379
104615,101345
104598,101351
104534,101292
104505,101254
104468,101314
104457,101238
104469,101262
104453,101251
104411,101250
104420,101243
104385,101254
104386,101205
104401,101206
104400,101224
104397,101208
104423,101232
104356,101200
104412,101222
104424,101231
104388,101250
104358,101184
104412,101217
104390,101217
104379,101187
104357,101230
104356,101186
104408,101184
104379,101221
104363,101168
104399,101224
104366,101194
104388,101208
104367,101245
104370,101185
104433,101195
104390,101210
104372,101176
104353,101198
104374,101191
104334,101202
104351,101155
104423,101215
104369,101226
104410,101174
104432,101235
104360,101216
104432,101179
104419,101214
104393,101170
104460,101223
104415,101207
104499,101210
104453,101272
104478,101194
104518,101268
104500,101247
104551,101215
104550,101262
104502,101243
104582,101285
104551,101276
104568,101275
104583,101260
104532,101263
104592,101284
104579,101294
104583,101292
104591,101280
104590,101279
104627,101300
104598,101300
104597,101272
104574,101300
104588,101266
104603,101250
104635,101329
104592,101244
104598,101280
104617,101272
104621,101288
104581,101238
104607,101284
104595,101282
104597,101266
104602,101234
104640,101276
104616,101229
104674,101263
104614,101317
104649,101280
104657,101303
104669,101287
104668,101273
104698,101279
104721,101311
104714,101312
104750,101328
104745,101320
104741,101316
104788,101319
104817,101330
104791,101347
104826,101368
104827,101368
104873,101378
104846,101373
104881,101370
104929,101373
104902,101396
104953,101408
104920,101401
104968,101422
104983,101412
104986,101451
104991,101440
105030,101437
105021,101449
105076,101457
105072,101464
105100,101473
105067,101462
105123,101485
105130,101481
105104,101491
105158,101487
105168,101529
105175,101489
105218,101507
105213,101541
105207,101532
105273,101521
105252,101598
105242,101563
105287,101586
105304,101584
105301,101606
105366,101573
105341,101608
105388,101635
105372,101612
105381,101613
105397,101669
105433,101674
105428,101627
105434,101618
105486,101649
105456,101664
105509,101681
105497,101680
105536,101696
105562,101709
105543,101674
105573,101711
105612,101727
105597,101742
105595,101732
105653,101756
105630,101758
105654,101745
105715,101764
105661,101763
105718,101767
105707,101795
105726,101763
105763,101806
105760,101818
105779,101774
105792,101829
105797,101812
105810,101831
105797,101847
105845,101826
105821,101851
105859,101845
105837,101882
105866,101823
105860,101897
105845,101865
105876,101871
105886,101868
105931,101884
105920,101859
105952,101890
105916,101905
105942,101885
105967,101886
105994,101926
106002,101919
105986,101899
106052,101933
106023,101953
106024,101913
106019,101947
106026,101963
106064,101938
106124,101961
106104,101979
106117,101985
106142,101977
106145,102006
106106,101958
106167,102013
106118,102006
106111,102001
106062,101951
106050,101941
106009,101912
105996,101914
105912,101916
105859,101868
105824,101849
105774,101806
105739,101825
105670,101795
105607,101785
105557,101759
105527,101683
105449,101678
105458,101673
105370,101677
105323,101629
105313,101635
105246,101610
105234,101612
105203,101577
105239,101591
105178,101549
105152,101585
105118,101555
105167,101595
105143,101552
105133,101571
105157,101573
105187,101576
105163,101598
105195,101586
105179,101595
105199,101553
105228,101632
105211,101592
105265,101640
105249,101595
105260,101640
105296,101666
105303,101676
105264,101627
105319,101672
105333,101662
105310,101648
105344,101649
105303,101702
105301,101653
105348,101683
105342,101703
105348,101713
105305,101657
105322,101702
105365,101670
105341,101691
105326,101697
105326,101681
105352,101706
105340,101742
105367,101704
105389,101728
105394,101736
105406,101720
105398,101764
105421,101727
105448,101773
105444,101766
105440,101756
105488,101778
105503,101820
105500,101802
105553,101854
105579,101824
105577,101871
105586,101861
105576,101850
105635,101899
105625,101913
105640,101910
105638,101917
105611,101923
105657,101901
105648,101960
105659,101915
105655,101977
105616,101947
105641,101935
105650,101934
105703,101949
105695,101944
105683,101953
105663,101925
105738,101983
105646,101985
105692,101934
105689,101953
105682,101992
105697,101957
105730,102015
105709,101953
105714,101968
105712,101954
105728,101982
105749,102003
105716,101971
105771,101992
105765,102033
105780,102017
105736,102021
105822,102003
105805,102047
105788,102033
105842,102010
105849,102083
105862,102028
105892,102061
105860,102095
105897,102061
105960,102099
105953,102101
105979,102118
106020,102136
106016,102176
105979,102120
106053,102209
106047,102196
106105,102187
106112,102195
106070,102203
106148,102230
106169,102280
106185,102255
106204,102281
106209,102268
106254,102271
106238,102288
106233,102252
106289,102286
106297,102313
106255,102305
106277,102267
106326,102348
106320,102314
106329,102295
106344,102357
106328,102314
106403,102392
106374,102350
106403,102385
106380,102377
106427,102393
106462,102395
106452,102397
106465,102388
106471,102439
106503,102420
106508,102463
106515,102398
106532,102457
106491,102409
106562,102442
106566,102461
106558,102462
106550,102481
106569,102458
106602,102476
106589,102502
106623,102501
106656,102523
106648,102497
106673,102510
106682,102566
106685,102533
106716,102534
106711,102568
106709,102554
106789,102614
106745,102551
106763,102577
106756,102626
106795,102589
106836,102622
106841,102599
106865,102594
106856,102638
106870,102668
106874,102615
106904,102625
106864,102664
106873,102623
106894,102650
106844,102619
106850,102638
106839,102613
106810,102634
106736,102561
106727,102554
106677,102534
106612,102544
106588,102480
106573,102478
106471,102415
106481,102446
106445,102439
106363,102429
106314,102383
106294,102356
106205,102336
106215,102292
106166,102305
106154,102292
106159,102262
106115,102282
106065,102211
106066,102255
106051,102238
106021,102235
105994,102209
106042,102190
105956,102200
105991,102184
106023,102227
106012,102230
105996,102229
106007,102179
106001,102224
106018,102185
105997,102218
106044,102210
106027,102235
106072,102220
105997,102203
106054,102228
106055,102223
106064,102255
106071,102213
106079,102247
106039,102257
106071,102227
106071,102245
106085,102232
106047,102228
106095,102220
106074,102272
106066,102219
106082,102231
106077,102228
106103,102225
106053,102261
106063,102215
106091,102242
106093,102257
106085,102249
106094,102221
106088,102221
106090,102267
106116,102249
106072,102248
106109,102283
106106,102220
106155,102219
106138,102285
106141,102254
106094,102253
106118,102249
106149,102239
106160,102271
106145,102230
106161,102275
106133,102254
106165,102237
106145,102283
106123,102244
106189,102267
106150,102242
106168,102230
106152,102224
106145,102213
106112,102230
106121,102213
106133,102209
106079,102228
106102,102233
106101,102190
106124,102209
106117,102238
106065,102183
106095,102198
106083,102185
106084,102209
106049,102161
106107,102183
106055,102203
106093,102185
106054,102210
106087,102153
106084,102205
106065,102176
106093,102160
106121,102182
106086,102168
106164,102198
106125,102172
106158,102199
106171,102212
106159,102197
106148,102188
106186,102191
106154,102199
106209,102187
106204,102234
106201,102199
106219,102236
106227,102216
106282,102256
106236,102254
106287,102275
106230,102242
106279,102248
106292,102228
106344,102280
106313,102242
106312,102303
106319,102284
106335,102301
106370,102305
106368,102304
106404,102301
106421,102309
106386,102322
106440,102332
106416,102314
106460,102340
106406,102320
106461,102337
106446,102338
106489,102349
106472,102347
106500,102352
106508,102349
106485,102358
106537,102353
106505,102355
106541,102370
106563,102366
106542,102373
106567,102387
106604,102382
106560,102397
106621,102418
106587,102426
106671,102435
106673,102429
106646,102440
106669,102452
106701,102454
106713,102467
106676,102448
106703,102457
106710,102481
106788,102476
106763,102496
106733,102493
106820,102504
106833,102507
106793,102521
106806,102489
106885,102525
106850,102549
106855,102548
106895,102546
106922,102536
106945,102579
106908,102556
106954,102568
106914,102546
106988,102586
106983,102590
106991,102585
106992,102600
106940,102618
106976,102567
107024,102625
106997,102598
107063,102638
107048,102636
106993,102609
107012,102591
107022,102589
107035,102582
106978,102586
107030,102590
106978,102594
106939,102532
106913,102525
106852,102523
106796,102465
106804,102463
106703,102470
106651,102391
106622,102392
106572,102367
106497,102313
106475,102264
106396,102273
106324,102273
106289,102223
106243,102182
106215,102196
106141,102155
106106,102136
106089,102088
106028,102093
106053,102115
106014,102062
105984,102062
105977,102013
105961,102060
105902,102020
105938,102027
105904,101991
105911,102010
105930,102033
105902,101991
105891,101995
105888,102000
105876,101977
105851,101990
105909,101996
105882,101968
105883,101956
105849,101962
105885,101984
105839,101985
105886,101937
105861,101982
105834,101978
105829,101941
105865,101944
105835,101977
105823,101907
105824,101957
105840,101927
105763,101925
105827,101930
105767,101932
105772,101876
105782,101925
105769,101911
105698,101866
105724,101913
105715,101836
105732,101907
105724,101853
105738,101883
105689,101848
105735,101865
105693,101835
105725,101876
105708,101850
105752,101886
105735,101862
105749,101846
105729,101914
105728,101861
105795,101901
105761,101896
105811,101864
105833,101926
105790,101897
105818,101906
105821,101938
105836,101907
105889,101961
105850,101951
105889,101936
105885,101959
105874,101934
105853,101942
105909,101953
105924,101974
105929,101984
105900,101973
105927,101969
105877,101945
105957,101999
105940,101987
105943,101971
105926,101947
105945,101988
105878,101956
105931,101971
105919,101974
105939,101942
105938,101983
105915,101931
105951,101975
105935,101975
105919,101984
105925,101935
105932,101981
105915,101956
105901,101957
105953,101964
105966,101985
105970,101978
105945,101966
105991,101933
105972,101942
105984,101954
105996,101976
105975,101995
105978,101940
105997,101987
105996,101993
106014,101999
105989,101983
106071,101965
106045,101993
106049,101992
106049,101953
106086,101992
106074,102010
106085,101983
106146,101997
106138,102046
106204,102063
106173,102032
106236,102051
106214,102051
106255,102125
106252,102087
106294,102107
106305,102074
106362,102125
106346,102155
106326,102149
106364,102162
106362,102188
106390,102166
106414,102218
106389,102150
106477,102213
106454,102183
106473,102211
106485,102232
106461,102194
106514,102241
106487,102210
106509,102224
106545,102223
106533,102233
106589,102259
106578,102266
106547,102243
106590,102270
106568,102254
106597,102259
106638,102265
106651,102304
106643,102251
106624,102285
106671,102294
106691,102313
106655,102275
106698,102317
106705,102301
106728,102276
106716,102317
106755,102312
106726,102337
106747,102314
106791,102385
106762,102345
106778,102363
106798,102330
106849,102391
106817,102375
106820,102367
106839,102383
106853,102404
106879,102389
106854,102424
106900,102387
106919,102444
106878,102412
106912,102430
106900,102445
106912,102442
106962,102422
106980,102464
106949,102465
107002,102486
106989,102479
106976,102504
107028,102464
107028,102504
107019,102495
107038,102515
107022,102490
107080,102514
107053,102547
107069,102495
107104,102532
107151,102535
107118,102559
107121,102589
107132,102505
107160,102560
107131,102515
107150,102579
107181,102551
107172,102591
107152,102573
107195,102556
107203,102573
107236,102566
107218,102572
107242,102581
107209,102579
107234,102587
107233,102556
107188,102581
107185,102572
107128,102525
107123,102529
107059,102498
107053,102479
107011,102470
106962,102457
106946,102436
106871,102425
106831,102366
106788,102371
106726,102323
106677,102323
106672,102307
106575,102256
106570,102234
106557,102230
106482,102233
106509,102226
106471,102178
106442,102175
106388,102198
106403,102178
106362,102174
106400,102152
106372,102177
106330,102125
106392,102152
106353,102154
106341,102133
106347,102148
106318,102127
106330,102129
106372,102187
106351,102139
106348,102134
106356,102147
106378,102122
106368,102154
106318,102139
106342,102154
106380,102140
106362,102154
106360,102154
106383,102171
106350,102157
106370,102113
106361,102120
106379,102151
106371,102122
106373,102156
106347,102138
106350,102145
106339,102144
106328,102132
106367,102127
106310,102136
106355,102133
106338,102141
106349,102121
106352,102139
106308,102079
106341,102131
106314,102143
106336,102128
106343,102141
106344,102118
106366,102139
106308,102130
106378,102144
106351,102133
106378,102162
106386,102134
106390,102155
106357,102134
106401,102171
106419,102149
106395,102159
106402,102202
106389,102182
106413,102136
106400,102188
106406,102141
106457,102170
106395,102216
106390,102181
106421,102158
106398,102196
106388,102163
106423,102173
106408,102221
106396,102139
106393,102170
106379,102167
106385,102152
106396,102161
106375,102154
106365,102169
106365,102122
106368,102167
106366,102168
106324,102161
106348,102134
106382,102186
106373,102141
106353,102159
106364,102146
106381,102151
106373,102172
106380,102128
106370,102172
106367,102132
106408,102157
106351,102164
106423,102161
106434,102201
106411,102156
106426,102194
106463,102187
106427,102191
106417,102183
106470,102191
106453,102234
106473,102200
106438,102177
106473,102225
106484,102215
106496,102239
106493,102187
106488,102239
106522,102209
106531,102248
106523,102210
106568,102279
106549,102233
106587,102263
106583,102236
106605,102246
106582,102275
106629,102293
106598,102276
106636,102262
106613,102274
106644,102325
106659,102309
106630,102313
106691,102310
106706,102343
106692,102337
106674,102329
106718,102334
106715,102362
106742,102362
106758,102376
106757,102390
106799,102399
106745,102388
106811,102451
106823,102433
106852,102468
106863,102488
106864,102490
106900,102474
106878,102483
106896,102498
106892,102520
106928,102515
106957,102520
106964,102510
106978,102549
106957,102557
106985,102541
107017,102527
107022,102542
107068,102596
107026,102600
107044,102555
107055,102590
107043,102629
107072,102600
107078,102578
107118,102613
107097,102594
107114,102622
107108,102637
107149,102636
107114,102641
107162,102643
107178,102671
107151,102653
107188,102655
107171,102681
107170,102671
107266,102705
107245,102685
107259,102705
107260,102723
107242,102718
107293,102709
107310,102730
107278,102748
107325,102702
107335,102770
107305,102727
107326,102729
107384,102768
107333,102774
107371,102768
107327,102743
107311,102766
107260,102706
107294,102736
107242,102704
107174,102664
107177,102651
107150,102667
107074,102597
107042,102621
106984,102590
106978,102565
106934,102507
106850,102543
106837,102503
106791,102488
106774,102462
106800,102493
106742,102419
106714,102452
106694,102449
106693,102445
106681,102401
106616,102414
106659,102406
106629,102398
106663,102415
106612,102427
106640,102405
106645,102429
106679,102418
106606,102412
106684,102413
106640,102455
106611,102409
106691,102459
106697,102454
106690,102435
106732,102458
106700,102493
106692,102433
106694,102476
106728,102464
106698,102447
106747,102477
106717,102477
106726,102452
106735,102464
106687,102492
106735,102461
106752,102488
106729,102514
106699,102437
106734,102471
106703,102464
106723,102494
106704,102472
106702,102422
106728,102484
106731,102462
106740,102471
106715,102413
106767,102488
106712,102446
106731,102439
106734,102483
106699,102461
106789,102475
106738,102476
106706,102446
106777,102507
106799,102482
106728,102481
106795,102487
106767,102468
106772,102457
106793,102493
106745,102500
106780,102470
106742,102458
106781,102479
106796,102462
106747,102498
106734,102486
106755,102450
106752,102438
106761,102457
106697,102433
106777,102455
106739,102435
106734,102485
106716,102447
106742,102460
106697,102444
106749,102421
106713,102492
106721,102473
106761,102458
106736,102476
106716,102449
106801,102510
106788,102464
106761,102515
106767,102508
106801,102502
106789,102508
106789,102483
106834,102544
106863,102526
106824,102537
106886,102541
106864,102575
106856,102522
106881,102563
106919,102588
106923,102580
106955,102619
106906,102584
106954,102591
106931,102629
106957,102615
106993,102622
106981,102665
106985,102617
107005,102622
107055,102663
107027,102653
106992,102644
107055,102639
107066,102699
107014,102646
107069,102644
107097,102689
107057,102682
107115,102671
107062,102714
107091,102678
107107,102725
107117,102702
107145,102688
107155,102713
107096,102720
107160,102688
107134,102674
107136,102702
107194,102720
107189,102692
107175,102715
107217,102739
107228,102742
107180,102734
107227,102720
107183,102761
107238,102730
107238,102769
107208,102774
107240,102734
107236,102755
107248,102743
107309,102810
107260,102739
107241,102746
107304,102737
107274,102792
107300,102771
107301,102848
107301,102777
107358,102796
107354,102787
107313,102796
107371,102819
107345,102790
107391,102822
107342,102806
107418,102820
107389,102836
107385,102810
107425,102849
107401,102864
107465,102845
107439,102850
107422,102888
107452,102839
107450,102880
107440,102860
107475,102851
107473,102891
107470,102892
107440,102876
107545,102868
107478,102904
107501,102886
107479,102912
107479,102840
107484,102893
107446,102831
107466,102866
107375,102809
107363,102802
107352,102807
107290,102791
107274,102765
107195,102721
107152,102722
107087,102653
107079,102637
107025,102660
106968,102585
106931,102575
106841,102572
106837,102529
106824,102508
106735,102503
106718,102435
106681,102477
106679,102441
106620,102435
106623,102410
106596,102377
106610,102431
106589,102386
106562,102394
106528,102379
106546,102395
106572,102396
106475,102393
106529,102357
106499,102371
106547,102390
106540,102384
106518,102413
106501,102351
106526,102391
106486,102409
106508,102362
106539,102377
106583,102418
106498,102372
106556,102379
106500,102388
106537,102374
106551,102354
106508,102364
106544,102352
106500,102396
106510,102384
106526,102372
106471,102357
106523,102361
106481,102358
106467,102339
106446,102328
106453,102352
106447,102336
106436,102318
106471,102314
106465,102325
106428,102292
106475,102317
106463,102351
106431,102311
106465,102303
106465,102321
106449,102324
106409,102340
106438,102291
106495,102317
106445,102331
106478,102331
106437,102310
106464,102341
106477,102310
106450,102289
106519,102342
106469,102307
106500,102319
106539,102340
106491,102310
106487,102296
106513,102337
106489,102315
106482,102315
106489,102294
106474,102294
106457,102329
106471,102282
106488,102305
106461,102266
106478,102285
106443,102264
106484,102279
106464,102329
106444,102296
106462,102288
106426,102289
106419,102277
106437,102310
106482,102272
106473,102293
106451,102287
106464,102315
106470,102299
106502,102301
106484,102345
106497,102319
106478,102330
106517,102301
106535,102353
106510,102313
106583,102346
106569,102333
106591,102357
106586,102355
106592,102376
106590,102322
106641,102389
106597,102354
106618,102392
106646,102389
106638,102371
106668,102379
106672,102426
106671,102402
106729,102404
106686,102419
106737,102420
106687,102405
106752,102448
106769,102418
106773,102449
106752,102433
106790,102472
106758,102447
106807,102455
106805,102456
106809,102431
106783,102473
106783,102469
106815,102438
106811,102515
106813,102474
106832,102465
106837,102446
106843,102470
106832,102457
106874,102475
106842,102474
106851,102491
106864,102471
106878,102501
106863,102496
106926,102513
106921,102517
106899,102512
106956,102515
106937,102540
106927,102468
106973,102530
106989,102542
106945,102524
106966,102522
107002,102576
106963,102531
107038,102540
106977,102577
107009,102529
107043,102571
107047,102564
107048,102568
107045,102568
107043,102585
107103,102606
107093,102605
107102,102624
107114,102579
107142,102624
107127,102612
107160,102604
107134,102611
107160,102633
107180,102654
107214,102667
107209,102652
107201,102653
107229,102697
107245,102678
107246,102688
107265,102694
107267,102691
107303,102732
107340,102719
107317,102720
107344,102727
107332,102734
107351,102730
107387,102743
107385,102774
107387,102768
107412,102790
107410,102780
107425,102762
107435,102790
107449,102775
107475,102805
107458,102804
107460,102824
107481,102796
107460,102839
107509,102805
107514,102848
107491,102829
107550,102829
107534,102822
107568,102817
107544,102818
107535,102815
107567,102869
107562,102835
107580,102834
107576,102865
107595,102832
107632,102921
107655,102876
107622,102861
107649,102858
107644,102868
107650,102893
107670,102904
107696,102900
107690,102877
107693,102866
107712,102923
107730,102903
107688,102935
107682,102882
107730,102881
107668,102922
107669,102887
107628,102866
107634,102874
107576,102854
107549,102816
107495,102796
107461,102785
107456,102754
107372,102774
107333,102683
107271,102684
107249,102696
107157,102664
107083,102639
107080,102562
107026,102577
106984,102571
106929,102502
106898,102550
106873,102468
106852,102467
106795,102465
106804,102451
106775,102458
106756,102422
106752,102431
106750,102410
106714,102450
106673,102393
106743,102432
106713,102423
106711,102402
106698,102439
106686,102395
106706,102423
106700,102404
106683,102400
106714,102431
106712,102415
106745,102413
106725,102401
106686,102419
106702,102375
106745,102433
106676,102379
106685,102392
106739,102410
106723,102366
106712,102385
106677,102367
106691,102401
106677,102402
106683,102401
106697,102384
106658,102384
106644,102357
106704,102382
106653,102371
106663,102368
106668,102392
106653,102393
106628,102362
106629,102372
106649,102361
106613,102345
106653,102360
106625,102395
106656,102382
106653,102376
106640,102344
106674,102380
106652,102403
106680,102390
106687,102406
106658,102366
106733,102411
106684,102430
106722,102409
106723,102392
106669,102375
106728,102368
106706,102439
106703,102369
106732,102371
106688,102388
106723,102403
106760,102417
106671,102368
106687,102400
106729,102377
106726,102390
106718,102379
106727,102412
106671,102399
106670,102377
106676,102398
106648,102370
106668,102375
106698,102400
106627,102347
106673,102357
106646,102367
106663,102403
106615,102322
106682,102404
106614,102350
106642,102352
106625,102364
106666,102356
106684,102356
106674,102347
106662,102373
106705,102365
106728,102398
106688,102337
106696,102405
106700,102393
106704,102375
106705,102375
106706,102413
106721,102393
106761,102391
106752,102423
106747,102440
106774,102393
106786,102437
106822,102426
106796,102446
106755,102428
106841,102446
106799,102454
106831,102438
106850,102459
106818,102510
106869,102468
106862,102476
106836,102476
106868,102484
106905,102441
106867,102512
106891,102466
106950,102508
106898,102479
106947,102507
106888,102456
106927,102488
106939,102457
106974,102477
106946,102495
106968,102500
106949,102497
106971,102484
106988,102512
106985,102527
107009,102503
106982,102509
106987,102534
106990,102487
107006,102495
106996,102498
107019,102514
106992,102501
107064,102534
107011,102522
107054,102521
107053,102561
107096,102536
107099,102587
107086,102545
107118,102549
107129,102578
107106,102571
107143,102599
107154,102585
107145,102578
107193,102611
107168,102660
107197,102609
107244,102654
107224,102618
107262,102641
107254,102634
107309,102688
107261,102713
107276,102673
107336,102701
107280,102699
107321,102717
107348,102749
107332,102696
107385,102744
107404,102734
107352,102743
107447,102735
107415,102786
107405,102752
107441,102770
107418,102767
107479,102807
107458,102788
107473,102780
107515,102827
107506,102799
107486,102789
107535,102841
107552,102815
107513,102864
107508,102819
107530,102834
107550,102861
107587,102861
107585,102862
107556,102854
107640,102844
107578,102840
107634,102873
107628,102865
107633,102892
107616,102855
107621,102875
107658,102877
107640,102881
107672,102892
107647,102891
107717,102888
107662,102923
107679,102912
107685,102921
107712,102916
107703,102934
107681,102893
107737,102924
107741,102901
107765,102942
107733,102944
107746,102906
107773,102938
107746,102956
107734,102901
107712,102905
107688,102893
107669,102879
107668,102898
107560,102826
107563,102843
107536,102829
107459,102783
107426,102758
107400,102800
107337,102709
107297,102733
107261,102695
107214,102682
107171,102621
107139,102663
107073,102630
107055,102585
107045,102611
106992,102597
106966,102577
106975,102572
106946,102561
106942,102547
106966,102574
106938,102542
106938,102537
106931,102582
106916,102534
106924,102541
106926,102554
106966,102542
106961,102598
106957,102576
106997,102559
106975,102548
106981,102583
107023,102586
107015,102602
106986,102572
107020,102598
107041,102619
107023,102591
107059,102595
107002,102608
107038,102611
107065,102625
107044,102609
107011,102608
107050,102621
107012,102616
107032,102635
107031,102573
107057,102602
107051,102627
107027,102618
107034,102602
107061,102640
107036,102590
107043,102584
107050,102601
107044,102647
107027,102586
107092,102601
107036,102659
107022,102609
107102,102623
107072,102642
107093,102611
107092,102675
107081,102632
107128,102616
107124,102651
107087,102670
107157,102660
107136,102688
107104,102662
107139,102657
107148,102672
107146,102677
107151,102679
107149,102628
107130,102672
107118,102676
107111,102677
107129,102623
107134,102683
107103,102635
107124,102635
107091,102673
107089,102655
107092,102640
107057,102610
107118,102641
107045,102671
107035,102621
107076,102667
107046,102615
107075,102598
107084,102672
107067,102633
107039,102658
107060,102645
107040,102623
107083,102652
107073,102689
107085,102632
107084,102643
107121,102694
107131,102668
107080,102679
107142,102645
107138,102702
107169,102672
107153,102683
107199,102749
107157,102680
107235,102704
107200,102745
107212,102720
107214,102718
107257,102768
107230,102753
107306,102767
107259,102779
107247,102755
107265,102746
107294,102753
107346,102807
107314,102769
107315,102783
107338,102773
107336,102782
107357,102787
107336,102799
107383,102803
107370,102836
107378,102835
107380,102787
107432,102860
107403,102841
107430,102787
107435,102843
107419,102845
107458,102815
107449,102854
107429,102848
107487,102851
107452,102859
107472,102847
107455,102856
107497,102867
107504,102877
107451,102845
107515,102871
107511,102860
107472,102871
107520,102872
107517,102859
107498,102873
107530,102877
107525,102873
107501,102868
107564,102895
107551,102872
107515,102885
107564,102882
107547,102869
107594,102880
107566,102868
107598,102895
107578,102886
107601,102917
107611,102937
107616,102888
107620,102891
107640,102944
107635,102921
107654,102936
107626,102878
107683,102898
107668,102975
107677,102949
107659,102956
107683,102964
107703,102939
107709,102992
107751,102987
107731,102981
107788,103008
107743,102983
107816,103030
107812,103002
107778,103022
107789,102995
107799,103019
107806,103010
107852,103008
107836,103045
107799,103010
107861,103017
107869,103064
107845,103025
107895,103050
107844,103068
107881,103034
107943,103073
107922,103058
107910,103043
107942,103040
107941,103099
107906,103018
107932,103060
107954,103044
107971,103084
107946,103079
108004,103083
108001,103072
107953,103058
107982,103087
107979,103056
107951,103065
107910,103034
107936,103013
107924,103025
107869,103019
107821,102963
107740,102955
107705,102926
107675,102891
107653,102890
107537,102838
107527,102842
107433,102838
107405,102749
107416,102775
107281,102717
107247,102688
107216,102686
107154,102620
107152,102619
107092,102625
107058,102572
107035,102583
106984,102558
106976,102560
106973,102525
106899,102539
106896,102509
106917,102476
106899,102468
106901,102522
106873,102487
106852,102510
106844,102452
106897,102472
106860,102485
106850,102487
106855,102462
106880,102443
106912,102523
106838,102468
106870,102482
106861,102473
106851,102444
106867,102478
106825,102448
106878,102443
106847,102479
106876,102445
106851,102474
106876,102472
106885,102470
106826,102487
106825,102429
106831,102468
106811,102420
106839,102422
106808,102469
106789,102434
106807,102410
106803,102460
106783,102449
106774,102403
106833,102444
106788,102465
106786,102458
106766,102426
106765,102434
106756,102397
106820,102458
106784,102406
106770,102423
106819,102412
106779,102430
106794,102448
106859,102424
106794,102429
106809,102439
106842,102463
106866,102440
106808,102442
106866,102420
106823,102473
106825,102481
106818,102441
106874,102457
106855,102486
106843,102424
106848,102457
106830,102429
106867,102466
106852,102418
106820,102477
106786,102421
106857,102437
106847,102442
106833,102450
106813,102399
106818,102428
106781,102416
106795,102414
106818,102449
106783,102458
106786,102405
106809,102423
106784,102437
106779,102392
106789,102446
106786,102427
106780,102410
106804,102464
106762,102426
106831,102421
106807,102429
106809,102446
106822,102416
106853,102435
106826,102464
106846,102437
106886,102454
106891,102493
106839,102457
106877,102458
106884,102470
106918,102445
106886,102499
106906,102492
106935,102511
106954,102505
106941,102460
106954,102524
106928,102500
107016,102539
106975,102505
106978,102518
107038,102536
106979,102561
106986,102504
107009,102531
107033,102527
107025,102577
106994,102537
107055,102557
107072,102555
107038,102583
107043,102561
107103,102579
107067,102593
107103,102575
107133,102571
107106,102604
107107,102603
107124,102642
107108,102590
107166,102619
107166,102595
107155,102646
107206,102632
107172,102674
107163,102590
107228,102655
107220,102616
107197,102658
107217,102624
107272,102688
107243,102658
107243,102656
107250,102686
107227,102699
107266,102697
107279,102662
107305,102682
107321,102715
107299,102716
107357,102689
107309,102692
107329,102735
107334,102709
107381,102750
107341,102700
107359,102744
107422,102762
107368,102770
107365,102746
107434,102758
107446,102783
107426,102779
107437,102785
107440,102742
107512,102816
107485,102758
107488,102800
107497,102779
107514,102828
107530,102819
107529,102811
107554,102828
107531,102815
107555,102831
107604,102838
107571,102843
107600,102853
107626,102858
107611,102885
107643,102847
107649,102870
107649,102867
107623,102879
107686,102894
107658,102897
107676,102891
107702,102900
107666,102908
107699,102907
107699,102904
107713,102890
107743,102908
107685,102926
107734,102906
107745,102963
107778,102938
107718,102906
107773,102954
107743,102923
107813,102945
107799,102940
107818,102932
107826,102939
107782,102972
107830,102932
107849,102955
107816,102959
107824,102980
107807,102946
107880,102977
107881,102968
107853,102994
107879,102951
107874,103004
107889,102950
107903,102993
107913,103020
107913,102973
107938,103006
107917,102991
107882,102978
107910,103016
107874,102974
107877,102946
107824,102988
107813,102934
107791,102935
107710,102898
107711,102894
107631,102826
107602,102834
107542,102782
107522,102792
107476,102777
107414,102709
107356,102705
107335,102719
107268,102669
107189,102643
107203,102626
107137,102594
107071,102613
107039,102540
107053,102565
106994,102510
106975,102515
106969,102529
106965,102483
106946,102493
106906,102489
106908,102499
106933,102480
106888,102484
106934,102474
106868,102463
106905,102492
106854,102474
106875,102446
106943,102472
106851,102479
106864,102484
106883,102470
106905,102465
106906,102494
106882,102429
106885,102441
106906,102434
106906,102433
106907,102486
106869,102415
106868,102445
106844,102439
106899,102432
106853,102402
106888,102452
106850,102433
106860,102385
106862,102420
106844,102434
106820,102394
106853,102395
106817,102419
106798,102404
106848,102362
106847,102448
106856,102423
106796,102403
106864,102414
106806,102437
106823,102381
106854,102420
106796,102418
106841,102410
106845,102390
106829,102386
106856,102385
106840,102423
106856,102389
106880,102401
106857,102393
106875,102419
106870,102421
106874,102400
106845,102395
106882,102409
106884,102437
106847,102396
106914,102423
106843,102438
106839,102395
106875,102409
106838,102428
106812,102405
106860,102368
106830,102432
106851,102391
106796,102368
106803,102361
106865,102406
106815,102353
106831,102366
106848,102398
106806,102402
106788,102391
106800,102362
106781,102358
106809,102366
106782,102336
106790,102380
106798,102383
106773,102375
106824,102357
106816,102395
106792,102363
106832,102347
106798,102394
106845,102335
106830,102408
106792,102382
106882,102422
106843,102408
106848,102365
106890,102404
106884,102437
106882,102393
106906,102421
106877,102456
106883,102414
106968,102448
106933,102441
106945,102465
106953,102470
106981,102473
106939,102430
106992,102453
106999,102449
106965,102456
106996,102469
107007,102476
107046,102498
107040,102503
107016,102509
107052,102503
107058,102509
107086,102499
107075,102525
107094,102522
107099,102506
107106,102527
107094,102507
107084,102548
107136,102558
107138,102533
107154,102549
107139,102556
107147,102541
107142,102579
107142,102570
107157,102598
107209,102601
107164,102591
107207,102559
107243,102608
107208,102636
107227,102596
107223,102614
107204,102636
107220,102641
107270,102598
107247,102626
107276,102597
107243,102597
107292,102607
107262,102677
107307,102657
107296,102644
107298,102659
107285,102620
107353,102670
107351,102640
107353,102663
107370,102699
107353,102696
107396,102703
107390,102664
107406,102673
107388,102656
107411,102677
107438,102730
107441,102705
107439,102748
107475,102710
107492,102738
107456,102730
107502,102780
107502,102734
107494,102750
107551,102755
107494,102790
107555,102766
107519,102767
107567,102798
107556,102800
107609,102773
107593,102793
107619,102793
107604,102812
107614,102822
107589,102796
107619,102826
107608,102818
107642,102795
107680,102852
107621,102805
107636,102849
107674,102866
107715,102823
107704,102872
107685,102840
107712,102873
107725,102856
107697,102855
107727,102869
107740,102903
107772,102892
107751,102892
107767,102895
107759,102875
107805,102932
107812,102922
107784,102924
107811,102908
107787,102908
107842,102950
107841,102886
107843,102934
107839,102939
107877,102970
107882,102927
107889,102926
107876,102949
107919,102928
107878,102973
107885,102935
107900,102982
107900,102974
107912,102946
107967,102980
107907,102991
107985,102982
107934,103023
107990,103003
107953,102994
107964,103011
107940,102998
107954,103003
107941,102958
107941,102943
107921,102940
107837,102968
107777,102895
107789,102891
107721,102867
107677,102851
107609,102783
107603,102783
107516,102795
107490,102719
107453,102727
107425,102685
107344,102681
107333,102658
107265,102672
107249,102580
107212,102610
107212,102614
107166,102602
107120,102560
107133,102567
107082,102549
107089,102546
107150,102553
107080,102544
107096,102513
107074,102545
107053,102508
107063,102544
107100,102538
107089,102518
107115,102546
107085,102580
107105,102521
107114,102545
107117,102529
107107,102496
107164,102585
107118,102548
107152,102551
107149,102587
107161,102597
107156,102570
107183,102567
107183,102622
107182,102541
107181,102587
107174,102571
107189,102557
107220,102591
107198,102572
107197,102567
107242,102603
107204,102551
107233,102611
107216,102570
107258,102645
107187,102607
107219,102609
107250,102625
107282,102608
107259,102639
107256,102613
107289,102619
107292,102644
107312,102646
107327,102630
107297,102675
107299,102620
107375,102674
107326,102651
107351,102655
107325,102684
107335,102676
107338,102639
107384,102676
107354,102663
107364,102702
107357,102666
107344,102647
107357,102650
107379,102668
107342,102673
107345,102651
107306,102639
107326,102666
107323,102618
107337,102678
107292,102619
107300,102625
107266,102649
107248,102617
107282,102637
107259,102618
107249,102607
107303,102632
107312,102612
107257,102611
107319,102625
107272,102656
107280,102636
107253,102626
107307,102624
107316,102639
107289,102651
107340,102630
107327,102648
107336,102645
107298,102662
107357,102637
107345,102703
107323,102658
107395,102704
107401,102659
107453,102723
107412,102677
107445,102698
107458,102746
107477,102745
107498,102721
107471,102738
107474,102750
107517,102759
107567,102762
107553,102763
107529,102778
107519,102759
107556,102775
107520,102756
107559,102757
107577,102762
107601,102772
107580,102805
107548,102792
107584,102744
107593,102813
107623,102774
107606,102788
107627,102800
107604,102831
107649,102775
107649,102821
107606,102789
107623,102823
107631,102785
107617,102787
107621,102816
107630,102789
107635,102812
107642,102815
107678,102791
107689,102831
107656,102816
107690,102813
107662,102821
107706,102856
107673,102801
107713,102852
107678,102829
107760,102829
107722,102884
107702,102835
107720,102873
107702,102830
107804,102890
107748,102859
107744,102885
107789,102887
107741,102899
107805,102865
107817,102928
107818,102881
107835,102895
107850,102925
107848,102908
107885,102899
107905,102916
107871,102932
107890,102942
107936,102947
107885,102927
107934,102966
107939,102980
107923,102976
107956,102966
107946,102978
107993,102999
107980,102963
107983,102963
107986,103022
108008,103015
108018,103003
108019,102979
108066,102997
108005,103040
108049,103016
108072,103009
108049,103013
108072,103035
108073,103065
108040,103025
108068,103002
108104,103072
108115,103049
108092,103048
108047,103025
108041,102986
108042,103036
108034,103006
107983,102991
107940,102914
107919,102937
107844,102896
107841,102866
107775,102852
107749,102852
107691,102877
107650,102770
107619,102803
107533,102764
107518,102715
107444,102720
107407,102700
107314,102669
107320,102634
107278,102647
107268,102604
107229,102630
107161,102595
107157,102548
107156,102563
107151,102566
107149,102578
107144,102536
107105,102560
107077,102517
107084,102504
107099,102552
107071,102517
107094,102498
107109,102541
107054,102554
107083,102516
107088,102513
107094,102510
107060,102571
107050,102538
107076,102527
107092,102560
107074,102521
107103,102565
107089,102530
107122,102541
107071,102535
107068,102491
107077,102527
107104,102518
107048,102539
107060,102485
107101,102528
107053,102478
107054,102508
107043,102511
107039,102500
107058,102510
107030,102530
107050,102479
107035,102528
107034,102511
107077,102492
107023,102505
107061,102514
107037,102482
107045,102517
107055,102486
107039,102499
107077,102503
107042,102541
107046,102486
107083,102523
107077,102540
107100,102532
107070,102531
107085,102508
107095,102553
107083,102515
107101,102527
107105,102528
107119,102571
107092,102506
107118,102543
107084,102529
107137,102577
107094,102534
107094,102527
107084,102538
107087,102542
107054,102517
107071,102499
107037,102518
106997,102477
107073,102475
107022,102528
107029,102487
107035,102497
107011,102502
107017,102458
107068,102490
107011,102482
106995,102494
107043,102469
107006,102480
106979,102446
107025,102436
106993,102470
107028,102433
106991,102441
106995,102468
106986,102430
107049,102439
107023,102478
106996,102451
107051,102460
107027,102462
107016,102459
107068,102478
107037,102474
107060,102446
107068,102478
107092,102466
107072,102483
107123,102512
107115,102496
107122,102509
107101,102494
107175,102530
107196,102538
107165,102510
107165,102525
107193,102526
107214,102564
107236,102547
107201,102538
107248,102573
107269,102578
107243,102580
107292,102607
107279,102591
107276,102578
107308,102594
107255,102574
107309,102641
107313,102620
107314,102582
107361,102658
107352,102652
107350,102616
107371,102613
107375,102632
107353,102598
107392,102623
107377,102655
107383,102658
107424,102671
107393,102636
107405,102621
107458,102645
107433,102700
107430,102632
107453,102638
107469,102698
107467,102667
107486,102703
107455,102689
107497,102685
107467,102652
107534,102710
107506,102671
107533,102721
107532,102691
107514,102737
107535,102700
107525,102684
107550,102708
107507,102695
107558,102706
107551,102736
107532,102721
107554,102716
107555,102695
107579,102735
107560,102767
107619,102751
107596,102717
107630,102747
107619,102778
107638,102737
107616,102757
107647,102769
107649,102758
107651,102786
107655,102763
107683,102776
107710,102780
107659,102792
107738,102808
107694,102837
107761,102832
107748,102841
107732,102857
107768,102845
107800,102860
107802,102850
107775,102848
107804,102898
107792,102868
107853,102870
107836,102887
107854,102872
107884,102907
107872,102936
107860,102876
107873,102905
107910,102875
107869,102914
107906,102941
107908,102892
107869,102917
107936,102946
107921,102890
107901,102905
107925,102930
107912,102910
107856,102891
107900,102904
107864,102876
107805,102861
107799,102841
107777,102834
107665,102791
107657,102790
107592,102756
107516,102718
107504,102712
107456,102680
107365,102639
107348,102626
107264,102583
107197,102555
107162,102537
107142,102505
107053,102499
107028,102472
106982,102456
106960,102440
106921,102415
106885,102393
106905,102414
106869,102378
106819,102379
106818,102372
106786,102355
106795,102350
106810,102360
106776,102325
106794,102367
106794,102350
106774,102350
106797,102368
106789,102371
106782,102372
106798,102353
106814,102375
106785,102361
106794,102372
106804,102381
106805,102387
106814,102353
106770,102355
106793,102352
106802,102378
106759,102354
106797,102389
106802,102359
106762,102347
106767,102357
106765,102362
106753,102345
106759,102349
106746,102369
106745,102332
106742,102315
106752,102321
106734,102306
106720,102322
106742,102301
106710,102318
106747,102341
106738,102324
106713,102303
106713,102322
106732,102285
106695,102298
106727,102314
106738,102330
106696,102321
106741,102336
106739,102325
106724,102333
106765,102359
106745,102327
106740,102334
106768,102320
106754,102329
106762,102333
106769,102346
106772,102354
106761,102315
106773,102354
106751,102337
106769,102335
106772,102366
106762,102364
106768,102345
106753,102329
106776,102345
106728,102333
106761,102361
106735,102339
106748,102331
106740,102311
106754,102324
106741,102341
106726,102314
106739,102334
106741,102330
106752,102366
106707,102333
106744,102330
106760,102329
106711,102347
106753,102362
106762,102350
106747,102355
106760,102342
106746,102353
106755,102335
106775,102381
106806,102354
106757,102363
106799,102388
106805,102395
106774,102369
106832,102396
106829,102396
106839,102383
106841,102391
106876,102400
106874,102405
106868,102418
106882,102420
106880,102424
106891,102406
106926,102455
106887,102411
106920,102418
106923,102416
106944,102443
106952,102449
106946,102429
106952,102461
106992,102455
106963,102462
106990,102486
107029,102467
106977,102451
107005,102466
107021,102469
107009,102500
107026,102490
106980,102470
107057,102516
107059,102478
107017,102488
107082,102497
107078,102505
107091,102527
107079,102508
107077,102530
107084,102526
107140,102549
107120,102527
107128,102524
107143,102557
107144,102553
107130,102556
107193,102569
107216,102595
107178,102581
107217,102593
107203,102607
107246,102591
107244,102629
107294,102630
107288,102624
107276,102641
107307,102647
107305,102639
107282,102652
107326,102648
107328,102661
107357,102668
107353,102682
107340,102680
107378,102690
107373,102683
107374,102660
107412,102698
107383,102702
107391,102688
107399,102745
107421,102720
107423,102731
107402,102719
107450,102690
107463,102750
107494,102726
107479,102754
107489,102744
107457,102741
107516,102716
107514,102777
107526,102758
107559,102750
107519,102774
107576,102753
107548,102767
107627,102779
107593,102780
107651,102808
107633,102797
107624,102792
107652,102825
107631,102838
107634,102808
107671,102834
107652,102834
107677,102823
107704,102827
107692,102860
107718,102850
107709,102842
107741,102853
107780,102879
107732,102866
107740,102872
107761,102861
107779,102888
107781,102885
107797,102869
107772,102923
107822,102872
107831,102916
107794,102906
107862,102902
107879,102924
107848,102943
107853,102912
107897,102952
107860,102948
107877,102928
107902,102934
107928,102961
107944,102978
107903,102977
107963,102943
107927,102947
107956,102969
107964,102966
107979,102973
107921,102958
107937,102951
107923,102964
107827,102946
107834,102895
107807,102896
107776,102867
107690,102864
107686,102834
107615,102800
107587,102763
107495,102756
107496,102701
107377,102695
107378,102682
107309,102655
107263,102650
107194,102595
107157,102577
107119,102542
107076,102521
107038,102509
107023,102512
106949,102490
106961,102449
106942,102481
106893,102469
106871,102447
106844,102415
106851,102407
106863,102476
106895,102426
106864,102388
106880,102441
106827,102411
106839,102391
106859,102382
106824,102419
106832,102427
106826,102412
106896,102429
106849,102405
106875,102416
106891,102407
106892,102430
106865,102438
106874,102431
106846,102442
106871,102409
106894,102405
106861,102406
106865,102434
106839,102393
106866,102445
106838,102404
106875,102402
106840,102380
106892,102386
106845,102407
106847,102390
106870,102423
106856,102388
106860,102438
106849,102415
106834,102367
106886,102421
106880,102422
106876,102409
106878,102430
106893,102405
106912,102386
106897,102405
106916,102448
106891,102404
106931,102438
106904,102444
106916,102418
106979,102455
106933,102432
106945,102433
106952,102431
106968,102436
106944,102450
106979,102470
106946,102452
106959,102460
106923,102423
106948,102412
106912,102410
106935,102413
106906,102438
106879,102388
106896,102422
106850,102412
106890,102410
106826,102358
106838,102375
106853,102391
106796,102376
106770,102337
106842,102373
106798,102367
106767,102337
106800,102359
106794,102329
106764,102363
106780,102359
106753,102351
106775,102326
106816,102359
106802,102321
106822,102346
106826,102368
106787,102364
106774,102316
106833,102367
106829,102332
106826,102360
106803,102373
106832,102337
106863,102382
106856,102394
106890,102396
106888,102374
106898,102398
106923,102398
106919,102431
106913,102384
106915,102401
106964,102413
106929,102428
106960,102427
106974,102451
106961,102439
106953,102446
107020,102440
107008,102473
107025,102439
106996,102466
107040,102471
107045,102483
107061,102499
107081,102470
107055,102491
107061,102509
107066,102492
107087,102507
107129,102495
107124,102559
107096,102520
107156,102504
107169,102536
107155,102560
107124,102546
107166,102525
107173,102598
107179,102572
107195,102557
107194,102541
107235,102571
107189,102552
107256,102572
107255,102568
107271,102598
107220,102570
107293,102618
107262,102633
107285,102613
107276,102623
107309,102635
107302,102652
107307,102610
107332,102657
107339,102638
107312,102650
107342,102648
107365,102657
107353,102677
107370,102675
107369,102662
107418,102697
107382,102689
107443,102693
107403,102667
107409,102698
107416,102689
107400,102702
107416,102688
107440,102691
107461,102669
107464,102690
107450,102681
107468,102714
107476,102706
107421,102718
107441,102682
107515,102700
107470,102750
107493,102715
107504,102708
107565,102730
107520,102779
107500,102692
107508,102740
107529,102721
107596,102767
107556,102766
107576,102727
107591,102758
107589,102774
107613,102754
107631,102769
107616,102806
107625,102784
107607,102753
107653,102791
107617,102769
107580,102773
107570,102737
107492,102740
107445,102681
107452,102692
107347,102709
107312,102641
107307,102653
107225,102591
107193,102574
107089,102543
107061,102530
107019,102497
106931,102457
106896,102432
106874,102441
106807,102394
106780,102385
106705,102339
106730,102336
106634,102361
106589,102325
106606,102325
106587,102288
106565,102295
106572,102300
106510,102255
106562,102243
106516,102266
106539,102289
106503,102255
106482,102239
106527,102235
106497,102249
106500,102213
106517,102261
106481,102233
106457,102246
106480,102224
106518,102231
106498,102251
106493,102214
106472,102215
106530,102231
106484,102229
106524,102265
106514,102214
106483,102225
106505,102191
106508,102241
106531,102238
106471,102242
106510,102238
106523,102210
106484,102217
106532,102225
106475,102240
106522,102246
106540,102230
106497,102229
106545,102250
106493,102241
106530,102258
106562,102261
106525,102256
106559,102282
106552,102279
106607,102278
106555,102303
106569,102230
106617,102317
106608,102313
106618,102305
106643,102307
106670,102327
106643,102319
106613,102320
106653,102297
106665,102333
106631,102326
106666,102303
106662,102343
106687,102339
106648,102348
106630,102355
106639,102297
106654,102320
106629,102319
106611,102317
106595,102286
106630,102289
106583,102301
106570,102305
106568,102265
106608,102292
106539,102244
106594,102251
106530,102251
106572,102253
106542,102244
106587,102280
106569,102316
106577,102283
106570,102292
106536,102266
106574,102280
106552,102276
106596,102279
106601,102287
106616,102315
106602,102264
106646,102324
106641,102313
106647,102323
106665,102333
106648,102298
106686,102338
106659,102357
106681,102324
106725,102357
106736,102343
106730,102360
106733,102346
106765,102357
106759,102369
106786,102396
106821,102397
106772,102393
106816,102442
106791,102383
106866,102432
106844,102436
106850,102427
106849,102453
106853,102397
106864,102463
106882,102429
106902,102429
106875,102431
106924,102455
106897,102437
106929,102483
106952,102451
106933,102507
106918,102520
106971,102472
106946,102485
106984,102510
106991,102496
106961,102496
106991,102478
106993,102495
107018,102506
107020,102499
107051,102542
107016,102515
107050,102512
107057,102552
107025,102547
107081,102513
107082,102572
107081,102561
107057,102533
107142,102576
107098,102598
107132,102599
107088,102574
107156,102595
107147,102593
107150,102560
107204,102621
107203,102591
107166,102581
107227,102625
107200,102576
107222,102642
107255,102632
107256,102636
107278,102627
107284,102623
107295,102649
107275,102650
107283,102639
107340,102665
107296,102705
107337,102686
107343,102693
107350,102693
107398,102700
107369,102700
107377,102737
107387,102728
107405,102761
107386,102717
107478,102738
107441,102727
107455,102756
107467,102750
107438,102727
107501,102791
107507,102756
107495,102764
107514,102744
107537,102769
107491,102751
107501,102800
107536,102788
107569,102829
107540,102805
107559,102789
107582,102795
107615,102814
107558,102792
107622,102816
107598,102859
107612,102805
107637,102839
107664,102829
107662,102848
107632,102818
107657,102861
107668,102831
107682,102875
107655,102873
107722,102860
107707,102869
107723,102890
107705,102879
107685,102891
107751,102880
107721,102888
107757,102880
107720,102891
107686,102855
107696,102847
107682,102835
107589,102818
107611,102801
107548,102808
107493,102741
107448,102750
107359,102700
107326,102664
107236,102672
107161,102563
107130,102594
107008,102543
106976,102543
106859,102473
106860,102478
106797,102425
106760,102414
106646,102375
106610,102346
106558,102348
106516,102311
106462,102282
106440,102294
106394,102227
106429,102230
106386,102243
106313,102241
106325,102182
106298,102176
106313,102214
106292,102209
106303,102178
106305,102202
106241,102185
106262,102203
106265,102189
106297,102170
106225,102162
106302,102165
106255,102199
106241,102184
106265,102188
106284,102181
106220,102166
106262,102163
106259,102149
106216,102176
106224,102150
106257,102150
106190,102151
106194,102154
106226,102158
106209,102130
106198,102178
106190,102101
106204,102131
106215,102136
106168,102154
106149,102140
106203,102126
106190,102117
106134,102128
106181,102105
106167,102131
106136,102102
106133,102107
106092,102104
106136,102121
106160,102143
106145,102076
106137,102139
106117,102126
106150,102113
106219,102141
106156,102137
106154,102134
106218,102154
106184,102164
106161,102124
106230,102153
106224,102164
106222,102175
106254,102165
106196,102200
106252,102131
106232,102144
106215,102131
106235,102173
106244,102150
106191,102122
106185,102129
106209,102116
106157,102119
106169,102108
106176,102117
106212,102136
106135,102133
106161,102096
106185,102127
106120,102133
106103,102120
106136,102130
106124,102097
106168,102118
106121,102072
106116,102118
106121,102105
106127,102095
106160,102146
106128,102090
106170,102136
106148,102160
106202,102136
106157,102123
106193,102167
106155,102149
106213,102156
106213,102161
106228,102177
106246,102152
106286,102166
106274,102209
106249,102151
106294,102169
106317,102225
106282,102192
106298,102213
106312,102201
106351,102204
106333,102221
106350,102230
106323,102231
106364,102207
106422,102256
106390,102224
106414,102250
106422,102274
106414,102243
106458,102252
106420,102249
106445,102288
106499,102277
106463,102293
106506,102318
106491,102265
106524,102293
106511,102328
106521,102319
106524,102312
106561,102343
106524,102336
106566,102340
106615,102353
106559,102366
106618,102387
106579,102357
106624,102351
106632,102364
106632,102404
106684,102364
106657,102409
106675,102370
106718,102420
106680,102450
106706,102418
106716,102422
106704,102454
106731,102440
106747,102492
106771,102413
106790,102448
106789,102470
106800,102477
106793,102496
106825,102491
106810,102464
106804,102504
106841,102491
106838,102517
106895,102526
106874,102517
106929,102537
106869,102530
106909,102513
106918,102496
106936,102514
106947,102557
106949,102567
106952,102516
106936,102570
107011,102564
106987,102576
106978,102534
107050,102597
107008,102553
107036,102597
107041,102597
107065,102590
107019,102587
107075,102629
107056,102627
107114,102638
107084,102620
107080,102598
107149,102648
107156,102648
107123,102647
107155,102666
107177,102656
107207,102681
107210,102691
107189,102685
107234,102717
107258,102711
107244,102706
107280,102721
107311,102717
107292,102746
107309,102760
107344,102726
107341,102781
107383,102758
107346,102775
107403,102781
107436,102777
107408,102796
107456,102801
107397,102809
107442,102808
107454,102811
107450,102825
107484,102814
107449,102823
107516,102812
107495,102839
107506,102834
107549,102856
107506,102864
107537,102857
107549,102826
107541,102854
107509,102834
107559,102841
107552,102849
107532,102850
107552,102843
107574,102875
107539,102857
107616,102850
107561,102854
107590,102869
107571,102854
107601,102868
107606,102896
107617,102853
107581,102880
107600,102856
107560,102874
107492,102791
107475,102790
107443,102785
107383,102758
107348,102726
107281,102747
107226,102692
107161,102656
107094,102638
107020,102622
106977,102559
106888,102526
106792,102493
106769,102460
106653,102450
106592,102369
106541,102374
106502,102343
106411,102294
106400,102266
106316,102304
106303,102247
106229,102231
106220,102221
106184,102220
106195,102182
106162,102199
106159,102198
106118,102146
106097,102156
106090,102199
106126,102161
106095,102164
106096,102153
106126,102138
106079,102146
106121,102162
106135,102164
106095,102147
106118,102168
106112,102154
106112,102173
106129,102153
106131,102207
106102,102174
106127,102171
106156,102180
106112,102181
106167,102197
106126,102197
106169,102160
106143,102207
106112,102192
106145,102183
106165,102209
106121,102143
106108,102160
106154,102192
106126,102186
106129,102174
106152,102183
106167,102173
106120,102209
106096,102178
106167,102205
106168,102196
106149,102219
106129,102146
106159,102196
106157,102185
106212,102221
106167,102234
106168,102172
106179,102223
106204,102190
106223,102191
106240,102256
106214,102207
106244,102226
106208,102221
106236,102242
106253,102268
106242,102222
106256,102259
106305,102224
106242,102251
106239,102195
106305,102237
106234,102226
106270,102246
106242,102224
106249,102220
106257,102249
106247,102220
106233,102227
106201,102205
106224,102201
106196,102261
106197,102201
106185,102176
106223,102221
106193,102214
106177,102230
106195,102185
106197,102250
106164,102173
106193,102189
106167,102197
106190,102201
106226,102207
106184,102227
106204,102227
106220,102216
106215,102206
106232,102222
106255,102205
106268,102230
106278,102225
106278,102255
106316,102228
106281,102209
106336,102248
106302,102266
106336,102235
106386,102270
106330,102264
106358,102264
106384,102333
106393,102280
106418,102290
