11111,11111
0,0
81522,80662
103739,100320
103703,100311
103713,100283
103667,100278
103697,100286
103658,100267
103651,100284
103647,100270
103684,100305
103620,100239
103666,100245
103603,100270
103657,100247
103630,100227
103653,100253
103585,100270
103601,100199
103646,100293
103594,100252
103643,100228
103616,100269
103621,100212
103657,100275
103614,100233
103632,100251
103644,100269
103652,100253
103738,100279
103689,100286
103676,100285
103690,100257
103678,100268
103738,100283
103737,100315
103770,100269
103781,100290
103743,100287
103818,100332
103807,100354
103866,100322
103879,100369
103863,100317
103932,100372
103958,100347
103986,100383
103952,100383
103974,100386
104039,100413
104018,100421
104038,100442
104090,100401
104083,100453
104095,100448
104142,100455
104148,100469
104164,100436
104205,100476
104213,100488
104247,100495
104243,100486
104221,100486
104281,100470
104341,100531
104332,100512
104380,100528
104353,100506
104344,100509
104422,100547
104402,100533
104449,100567
104408,100576
104445,100561
104497,100590
104543,100582
104524,100582
104536,100607
104547,100591
104587,100623
104609,100651
104571,100622
104611,100607
104614,100652
104648,100627
104678,100639
104689,100678
104698,100647
104679,100685
104702,100661
104747,100699
104739,100691
104694,100636
104732,100707
104739,100674
104775,100715
104744,100702
104774,100661
104769,100715
104800,100697
104863,100749
104836,100673
104853,100710
104871,100732
104899,100730
104945,100758
104922,100789
104891,100704
104978,100783
105003,100767
104999,100787
104991,100770
104980,100795
105035,100749
105116,100819
105036,100815
105084,100800
105049,100761
105127,100831
105128,100847
105172,100820
105151,100838
105155,100804
105185,100833
105257,100870
104030,100309
103317,99996
103307,100016
103834,100198
103897,100253
103920,100268
104150,100361
104159,100313
104166,100367
104173,100334
104131,100342
104143,100330
104145,100319
104209,100355
104171,100358
104207,100324
104211,100359
104223,100346
104253,100362
104283,100394
104287,100371
104266,100397
104299,100373
104316,100391
104313,100381
104387,100427
104367,100396
104408,100420
104402,100427
104402,100447
104449,100492
104447,100425
104531,100465
104500,100471
104542,100469
104609,100502
104627,100528
104615,100506
104722,100514
104782,100551
104781,100563
104776,100580
104799,100549
104886,100619
104912,100611
104967,100600
104942,100646
104992,100651
105012,100641
105084,100666
105078,100672
105096,100705
105144,100674
105153,100666
105181,100722
105231,100740
105230,100724
105210,100713
105273,100773
105275,100760
105331,100762
105305,100775
105352,100794
105390,100789
105394,100834
105418,100799
105462,100797
105410,100811
105472,100837
105478,100822
105511,100832
105519,100811
105513,100830
105529,100858
105583,100860
105582,100866
105538,100854
105563,100848
105624,100873
105620,100885
105596,100893
105617,100846
105664,100877
105649,100874
105658,100905
105688,100897
105683,100917
105638,100907
105727,100920
105729,100920
105740,100928
105732,100956
105670,100888
105782,100949
105754,100962
105773,100938
105791,100919
105714,100915
105824,100970
105818,100945
105800,100978
105827,100956
105796,100913
105868,101000
105881,100987
105873,100958
105901,100976
105857,100965
105886,101019
105931,100997
105925,100969
105979,101045
105897,101000
105977,101007
106005,101011
105987,101031
105954,101064
105963,100986
106041,101069
106014,101063
106029,101038
106020,101026
105976,101014
106001,101029
105883,101011
105822,100921
105751,100871
105591,100853
105461,100778
105296,100683
105094,100626
104851,100508
104677,100413
104528,100403
104372,100333
104295,100250
104147,100247
104035,100157
103968,100145
103936,100122
103872,100074
103847,100103
103711,100050
103739,100069
103718,100036
103663,100039
103687,100010
103636,99990
103700,100014
103696,100039
103662,100030
103677,100035
103687,99978
103712,100075
103701,100043
103739,100065
103770,100040
103772,100078
103844,100071
103884,100104
103881,100131
103944,100133
103934,100142
104020,100157
104083,100166
104038,100221
104088,100171
104128,100203
104157,100237
104224,100262
104224,100262
104284,100274
104235,100257
104326,100288
104380,100301
104362,100311
104368,100315
104426,100324
104413,100333
104471,100361
104465,100356
104454,100361
104513,100340
104525,100397
104555,100363
104598,100409
104584,100386
104628,100379
104688,100456
104693,100420
104744,100464
104737,100453
104790,100485
104868,100495
104847,100535
104865,100456
104862,100509
104848,100474
104898,100518
104892,100499
104871,100503
104833,100474
104878,100513
104876,100520
104828,100489
104850,100512
104812,100477
104768,100486
104812,100464
104760,100471
104809,100491
104730,100448
104737,100422
104744,100472
104712,100447
104692,100465
104667,100404
104674,100414
104709,100450
104647,100417
104704,100432
104641,100401
104637,100420
104701,100436
104676,100402
104661,100462
104622,100401
104670,100416
104681,100409
104717,100457
104710,100433
104680,100442
104745,100420
104746,100464
104807,100471
104815,100472
104795,100488
104792,100447
104887,100499
104876,100498
104878,100518
104861,100466
104939,100546
104947,100517
104994,100535
104967,100558
104979,100531
105061,100567
105103,100568
105086,100560
105136,100606
105132,100609
105166,100591
105227,100614
105235,100656
105240,100622
105299,100631
105298,100672
105345,100681
105376,100695
105368,100641
105412,100696
105399,100724
105448,100727
105487,100708
105496,100748
105447,100720
105515,100742
105517,100743
105560,100728
105533,100775
105564,100747
105568,100745
105590,100798
105612,100797
105599,100811
105614,100763
105651,100761
105696,100816
105665,100830
105674,100804
105662,100775
105680,100843
105741,100815
105687,100850
105725,100795
105706,100835
105752,100839
105758,100856
105725,100859
105761,100823
105743,100854
105753,100819
105785,100880
105739,100849
105800,100862
105769,100867
105822,100843
105803,100874
105810,100868
105798,100857
105796,100876
105840,100853
105867,100914
105841,100887
105883,100880
105823,100869
105867,100875
105907,100872
105916,100931
105893,100888
105877,100907
105916,100923
105954,100916
105928,100935
105922,100892
105898,100898
105843,100902
105814,100860
105762,100845
105636,100795
105457,100676
105384,100670
105169,100570
104968,100482
104768,100407
104603,100308
104432,100281
104318,100187
104191,100161
104087,100139
103970,100041
103927,100107
103854,100022
103835,100007
103760,99988
103693,99955
103706,99937
103715,99963
103611,99936
103630,99924
103576,99908
103621,99914
103624,99933
103585,99897
103623,99922
103586,99912
103653,99922
103679,99934
103625,99959
103679,99920
103688,99941
103706,99956
103764,99962
103776,99975
103807,99995
103803,100029
103890,100004
103901,100064
103921,100079
103948,100053
103989,100072
103994,100075
104082,100100
104072,100121
104109,100106
104138,100148
104159,100129
104197,100164
104168,100132
104205,100169
104227,100157
104251,100179
104263,100201
104283,100199
104304,100211
104293,100195
104340,100223
104379,100243
104419,100250
104412,100247
104451,100234
104454,100271
104524,100274
104557,100323
104569,100300
104569,100284
104650,100339
104642,100327
104684,100342
104692,100340
104661,100333
104701,100330
104689,100359
104699,100373
104690,100323
104671,100358
104670,100345
104718,100374
104682,100363
104653,100340
104642,100315
104632,100312
104660,100342
104599,100343
104568,100295
104590,100289
104610,100339
104582,100314
104586,100303
104542,100318
104514,100255
104557,100281
104582,100306
104532,100259
104539,100251
104524,100300
104570,100290
104560,100307
104528,100280
104524,100264
104621,100322
104603,100280
104639,100334
104603,100327
104632,100291
104689,100343
104686,100330
104743,100379
104758,100376
104759,100402
104733,100364
104829,100415
104820,100405
104831,100415
104853,100386
104956,100440
104958,100423
105008,100468
105022,100501
105003,100435
105092,100470
105110,100497
105142,100545
105165,100533
105154,100494
105237,100524
105241,100523
105270,100548
105284,100558
105310,100587
105335,100558
105362,100621
105382,100615
105425,100619
105459,100617
105434,100673
105490,100648
105491,100641
105520,100670
105512,100643
105537,100704
105608,100701
105593,100709
105655,100718
105580,100717
105648,100703
105654,100728
105715,100722
105688,100716
105692,100743
105691,100735
105709,100744
105737,100747
105730,100759
105749,100744
105754,100753
105795,100807
105758,100762
105760,100763
105766,100756
105794,100777
105791,100767
105810,100754
105798,100763
105781,100738
105809,100756
105861,100797
105813,100828
105843,100775
105808,100777
105838,100786
105873,100821
105822,100808
105882,100810
105834,100804
105894,100806
105893,100814
105894,100840
105883,100826
105899,100774
105879,100860
105916,100838
105956,100834
105915,100809
105945,100812
105936,100869
105981,100849
105957,100830
105981,100861
105939,100798
106018,100865
105995,100867
106019,100835
106010,100837
105939,100804
105964,100838
105935,100838
105783,100742
105718,100742
105541,100636
105440,100607
105250,100534
105010,100410
104782,100352
104555,100229
104454,100196
104289,100145
104186,100110
104072,100020
103969,99973
103915,99985
103852,99950
103799,99916
103723,99891
103671,99838
103690,99886
103627,99838
103600,99828
103609,99818
103517,99836
103575,99785
103581,99855
103524,99795
103556,99840
103504,99790
103593,99824
103594,99840
103597,99846
103637,99858
103632,99828
103638,99868
103720,99899
103680,99933
103723,99882
103769,99926
103823,99930
103856,99934
103832,99961
103883,99936
103893,99985
103930,99961
103961,100014
104014,100022
103993,100011
104005,99990
104049,100053
104104,100033
104104,100046
104072,100063
104107,100037
104147,100083
104172,100059
104148,100090
104126,100047
104167,100065
104180,100104
104225,100099
104192,100054
104230,100140
104213,100106
104316,100120
104323,100151
104280,100153
104301,100107
104336,100117
104366,100152
104394,100186
104391,100138
104375,100175
104341,100164
104405,100178
104396,100145
104381,100173
104384,100138
104370,100157
104363,100118
104396,100169
104362,100155
104335,100123
104353,100134
104328,100169
104314,100127
104316,100128
104278,100138
104254,100107
104271,100097
104290,100088
104298,100139
104248,100095
104261,100113
104286,100093
104300,100117
104251,100113
104260,100077
104251,100103
104251,100081
104303,100089
104234,100105
104288,100084
104302,100151
104312,100122
104299,100122
104350,100143
104334,100122
104329,100109
104422,100170
104391,100138
104387,100177
104412,100153
104423,100153
104463,100168
104490,100205
104512,100222
104535,100228
104570,100243
104593,100221
104660,100246
104622,100285
104663,100237
104720,100285
104753,100323
104759,100275
104816,100347
104802,100270
104870,100347
104912,100322
104942,100347
104931,100387
104926,100357
104993,100389
105027,100411
105059,100398
105092,100407
105079,100434
105092,100399
105159,100465
105166,100435
105184,100449
105153,100447
105228,100442
105244,100503
105289,100465
105262,100488
105276,100489
105331,100520
105320,100518
105383,100535
105349,100571
105339,100524
105386,100539
105465,100569
105444,100555
105440,100590
105452,100535
105481,100565
105465,100575
105481,100590
105524,100596
105426,100561
105512,100565
105533,100615
105495,100587
105530,100579
105501,100585
105523,100613
105576,100611
105535,100606
105544,100617
105517,100596
105586,100587
105567,100636
105576,100603
105559,100626
105573,100630
105613,100631
105659,100642
105645,100650
105620,100631
105619,100618
105627,100649
105668,100652
105666,100624
105644,100682
105652,100610
105705,100657
105709,100693
105741,100666
105743,100622
105741,100656
105759,100717
105788,100704
105796,100717
105783,100715
105758,100662
105837,100729
105796,100686
105835,100706
105787,100716
105745,100719
105763,100663
105719,100688
105647,100605
105544,100579
105390,100522
105258,100449
105040,100367
104858,100284
104661,100189
104429,100113
104320,100063
104196,100005
104014,99936
103950,99902
103842,99831
103769,99854
103728,99826
103607,99775
103590,99742
103543,99705
103545,99721
103503,99714
103441,99707
103423,99694
103391,99658
103416,99673
103393,99679
103400,99669
103402,99662
103388,99681
103411,99671
103449,99703
103428,99724
103472,99702
103439,99666
103542,99745
103551,99736
103560,99758
103546,99742
103575,99770
103654,99767
103647,99792
103695,99796
103711,99800
103725,99828
103748,99812
103766,99836
103803,99825
103798,99823
103844,99827
103816,99868
103858,99872
103893,99886
103882,99894
103880,99856
103938,99907
103956,99902
103957,99870
103967,99917
103945,99917
103997,99907
104049,99951
104033,99964
104058,99915
104093,99941
104099,99987
104159,99948
104173,99983
104123,99946
104189,99967
104228,99997
104204,100015
104209,99976
104193,100016
104185,99971
104220,100005
104210,100033
104229,100019
104167,99990
104192,100003
104224,100038
104194,100011
104149,99971
104183,99972
104172,99983
104175,99994
104120,100001
104135,99957
104073,99930
104111,99941
104093,99956
104110,99943
104084,99932
104063,99913
104086,99913
104083,99949
104064,99935
104059,99938
104088,99936
104065,99937
104111,99944
104125,99940
104096,99947
104084,99933
104119,99940
104170,99987
104156,99979
104144,99966
104151,99966
104207,99988
104228,99991
104225,100010
104229,99993
104275,100012
104286,100035
104328,100010
104380,100059
104342,100046
104383,100023
104379,100052
104420,100091
104413,100045
104457,100069
104474,100072
104459,100092
104536,100096
104564,100096
104570,100123
104542,100124
104603,100128
104620,100158
104615,100131
104701,100169
104636,100143
104744,100170
104744,100202
104755,100173
104797,100195
104755,100178
104843,100215
104848,100232
104855,100222
104906,100216
104857,100222
104941,100254
104989,100261
104981,100311
104985,100254
104952,100274
105019,100292
105022,100308
105017,100291
105052,100301
105052,100308
105046,100309
105104,100339
105059,100324
105123,100295
105065,100333
105125,100301
105141,100316
105164,100359
105103,100369
105122,100341
105120,100358
105152,100374
105152,100389
105159,100321
105165,100357
105211,100372
105209,100359
105217,100369
105192,100372
105204,100365
105233,100371
105224,100361
105263,100384
105230,100403
105230,100338
105246,100399
105291,100405
105235,100375
105276,100385
105260,100392
105320,100403
105319,100413
105310,100416
105345,100377
105298,100412
105359,100433
105411,100459
105381,100428
105410,100432
105370,100408
105435,100453
105465,100484
105422,100470
105485,100436
105436,100463
105538,100505
105526,100468
105520,100506
105523,100460
105510,100512
105561,100499
105558,100514
105497,100486
105480,100433
105337,100425
105364,100423
105212,100303
105009,100258
104813,100146
104570,100087
104421,100014
104287,99965
104103,99899
103981,99780
103834,99757
103789,99745
103668,99714
103613,99650
103518,99659
103451,99553
103448,99608
103418,99559
103352,99562
103300,99519
103262,99519
103274,99505
103254,99517
103235,99532
103212,99480
103169,99499
103235,99526
103221,99535
103227,99475
103204,99480
103238,99494
103311,99562
103294,99527
103300,99531
103326,99537
103352,99545
103384,99578
103446,99599
103405,99613
103441,99561
103443,99627
103505,99620
103516,99619
103582,99652
103539,99626
103526,99632
103615,99683
103621,99678
103584,99680
103622,99667
103587,99665
103650,99669
103649,99711
103657,99647
103642,99704
103682,99674
103653,99704
103698,99693
103715,99726
103722,99686
103741,99728
103777,99731
103840,99727
103797,99792
103819,99719
103812,99726
103892,99800
103926,99772
103889,99811
103886,99750
103916,99761
103923,99819
103931,99793
103910,99793
103873,99754
103873,99757
103913,99772
103863,99764
103869,99769
103851,99716
103872,99762
103829,99757
103837,99731
103848,99734
103820,99718
103805,99755
103793,99706
103824,99749
103758,99708
103764,99710
103763,99714
103793,99716
103737,99738
103745,99688
103778,99710
103771,99725
103766,99748
103803,99724
103744,99713
103797,99707
103807,99721
103847,99764
103826,99715
103826,99746
103819,99767
103815,99753
103882,99768
103921,99767
103893,99764
103901,99775
103919,99765
103987,99816
103971,99806
103996,99783
103980,99820
103974,99818
104043,99797
104039,99858
104039,99816
104062,99829
104072,99857
104133,99875
104124,99887
104109,99871
104155,99858
104190,99894
104206,99882
104256,99928
104242,99929
104257,99858
104309,99934
104347,99953
104388,99986
104333,99949
104381,99956
104389,99952
104471,99956
104450,99983
104470,99984
104496,100019
104542,99989
104606,100054
104578,100026
104613,100043
104573,100024
104659,100066
104698,100067
104702,100115
104687,100095
104679,100072
104731,100106
104800,100094
104748,100136
104784,100081
104740,100081
104820,100134
104840,100151
104788,100114
104847,100122
104790,100158
104831,100113
104874,100148
104851,100144
104908,100134
104836,100164
104883,100142
104917,100157
104900,100147
104909,100173
104863,100172
104924,100167
104960,100204
104958,100165
104927,100223
104929,100156
105003,100187
104999,100208
105017,100176
105010,100190
104959,100171
105055,100215
105056,100255
105042,100213
105097,100214
105081,100244
105147,100276
105183,100286
105134,100262
105167,100239
105158,100308
105242,100264
105220,100314
105237,100287
105254,100315
105287,100299
105313,100320
105299,100344
105299,100320
105298,100294
105290,100327
105282,100323
105279,100296
105181,100284
105070,100223
104957,100143
104741,100059
104629,100034
104351,99923
104199,99826
104008,99781
103903,99704
103775,99688
103635,99596
103566,99592
103445,99515
103396,99502
103326,99473
103297,99431
103208,99442
103145,99384
103134,99398
103109,99394
103067,99346
102997,99327
102999,99362
103003,99336
102999,99355
102979,99339
102968,99322
102992,99341
102983,99392
102998,99334
103022,99319
102994,99359
103036,99360
103054,99407
103087,99348
103087,99405
103075,99369
103132,99383
103166,99428
103197,99412
103201,99443
103184,99413
103190,99435
103268,99465
103319,99464
103316,99499
103336,99464
103305,99502
103352,99511
103383,99502
103375,99484
103345,99492
103392,99482
103441,99544
103417,99506
103452,99504
103441,99518
103412,99512
103530,99547
103507,99572
103524,99555
103502,99554
103564,99556
103606,99623
103593,99578
103664,99615
103644,99582
103643,99598
103697,99647
103739,99641
103714,99665
103676,99618
103718,99657
103747,99645
103763,99667
103707,99661
103669,99600
103721,99647
103703,99628
103705,99594
103698,99631
103650,99598
103647,99639
103643,99593
103680,99593
103624,99595
103562,99590
103586,99558
103632,99585
103591,99585
103571,99589
103570,99562
103577,99571
103603,99593
103566,99574
103596,99550
103560,99539
103589,99583
103625,99582
103603,99578
103616,99593
103607,99566
103654,99592
103670,99608
103666,99624
103700,99624
103662,99608
103741,99637
103729,99619
103763,99649
103787,99644
103768,99633
103798,99655
103845,99661
103809,99670
103879,99652
103880,99668
103896,99693
103906,99730
103944,99717
103940,99681
103991,99734
104017,99738
104044,99733
104018,99742
104082,99765
104052,99710
104099,99783
104170,99803
104138,99799
104163,99775
104201,99794
104242,99822
104272,99819
104265,99816
104339,99858
104283,99872
104334,99864
104377,99853
104394,99880
104399,99873
104423,99886
104454,99900
104469,99928
104494,99943
104501,99919
104540,99933
104571,99939
104589,99960
104612,99967
104586,99958
104649,99937
104685,99995
104678,100004
104691,100025
104716,100006
104679,99985
104737,100022
104792,100004
104804,100051
104765,100044
104771,100050
104818,100059
104876,100081
104837,100041
104890,100059
104811,100081
104879,100086
104909,100084
104937,100092
104899,100092
104904,100084
104971,100113
104983,100099
104949,100058
105004,100110
104928,100076
105005,100128
105014,100166
105022,100140
104982,100119
105000,100121
105013,100143
105046,100128
105048,100173
105053,100136
105050,100128
105111,100161
105079,100188
105132,100183
105089,100185
105065,100138
105129,100176
105152,100199
105171,100186
105150,100160
105197,100215
105185,100223
105238,100216
105200,100223
105256,100225
105262,100207
105268,100274
105289,100258
105292,100231
105276,100260
105271,100245
105361,100270
105380,100297
105369,100317
105365,100286
105336,100236
105399,100281
105425,100334
105422,100271
105356,100290
105359,100249
105315,100264
105255,100215
105123,100196
104948,100064
104782,100035
104566,99954
104343,99840
104146,99751
103928,99674
103819,99588
103643,99543
103561,99481
103417,99457
103339,99382
103247,99421
103202,99345
103170,99364
103097,99328
103023,99276
103015,99260
102969,99286
102921,99226
102898,99223
102848,99205
102848,99232
102882,99203
102825,99206
102866,99204
102833,99212
102807,99215
102830,99209
102911,99217
102861,99256
102846,99189
102887,99248
102936,99244
102964,99256
102953,99276
102952,99251
102973,99285
103038,99323
103071,99281
103069,99338
103034,99283
103121,99334
103128,99348
103176,99349
103167,99345
103173,99338
103175,99372
103199,99373
103206,99377
103235,99359
103173,99370
103255,99376
103274,99411
103247,99363
103282,99398
103243,99415
103272,99376
103291,99430
103334,99391
103347,99439
103321,99382
103415,99455
103428,99470
103422,99460
103461,99442
103440,99479
103453,99447
103497,99488
103520,99500
103520,99470
103466,99499
103495,99451
103536,99485
103514,99496
103500,99473
103455,99436
103474,99449
103457,99443
103467,99474
103456,99459
103435,99446
103407,99427
103448,99415
103459,99463
103421,99415
103380,99396
103461,99412
103422,99472
103422,99386
103401,99444
103362,99378
103364,99418
103420,99420
103424,99411
103424,99450
103373,99394
103458,99462
103469,99448
103425,99430
103472,99468
103463,99457
103474,99455
103495,99454
103497,99484
103549,99471
103502,99456
103594,99456
103625,99520
103583,99494
103626,99516
103601,99504
103699,99525
103693,99560
103730,99524
103729,99585
103779,99553
103792,99596
103854,99584
103827,99629
103871,99596
103906,99617
103976,99633
103957,99672
104008,99625
104001,99666
104020,99597
104101,99703
104091,99695
104173,99706
104164,99714
104174,99691
104247,99758
104227,99737
104259,99778
104259,99771
104285,99731
104342,99786
104358,99809
104402,99801
104386,99819
104371,99794
104462,99807
104506,99835
104482,99821
104537,99868
104494,99839
104587,99846
104597,99885
104582,99888
104605,99890
104586,99910
104649,99922
104669,99925
104656,99908
104690,99884
104688,99933
104734,99910
104742,99941
104745,99950
104727,99941
104762,99906
104792,99986
104795,99929
104768,99973
104813,99960
104815,99938
104880,100006
104849,100000
104865,100006
104883,99989
104882,99971
104915,100031
104940,100021
104915,100032
104922,99992
104913,99962
104939,100021
104953,100033
104975,100053
104960,100012
104956,100007
104984,100033
105014,100042
105008,100088
104995,100016
105017,100019
105043,100061
105069,100085
105043,100070
105034,100052
105076,100042
105081,100087
105088,100064
105102,100113
105078,100059
105122,100061
105129,100123
105205,100112
105156,100122
105196,100090
105167,100109
105195,100116
105275,100141
105237,100155
105259,100121
105283,100150
105327,100175
105313,100154
105349,100190
105325,100182
105338,100150
105376,100180
105362,100198
105374,100176
105356,100189
105293,100120
105248,100139
105200,100091
105051,100004
104939,99965
104684,99903
104511,99775
104320,99722
104032,99594
103865,99528
103676,99456
103602,99437
103479,99331
103336,99329
103262,99296
103195,99247
103145,99245
103056,99174
103018,99201
102957,99136
102905,99110
102871,99123
102908,99123
102830,99128
102793,99057
102820,99072
102830,99085
102840,99109
102799,99111
102800,99055
102853,99113
102856,99092
102889,99126
102835,99137
102859,99103
102902,99149
102916,99148
102961,99167
103024,99173
102964,99151
103037,99182
103080,99180
103112,99234
103113,99194
103133,99219
103197,99259
103190,99285
103239,99238
103237,99305
103236,99255
103290,99291
103277,99289
103329,99321
103277,99273
103327,99284
103335,99306
103348,99307
103368,99316
103381,99325
103339,99315
103388,99301
103441,99347
103406,99352
103451,99368
103439,99349
103463,99375
103498,99371
103537,99377
103550,99439
103544,99395
103577,99408
103599,99421
103625,99441
103626,99427
103573,99399
103596,99399
103601,99423
103611,99418
103625,99420
103543,99361
103578,99400
103580,99389
103558,99398
103521,99395
103531,99367
103553,99373
103544,99392
103525,99367
103491,99372
103493,99375
103528,99373
103508,99383
103490,99348
103471,99343
103422,99336
103465,99349
103466,99346
103458,99334
103472,99357
103484,99332
103490,99328
103548,99387
103512,99385
103527,99376
103528,99378
103567,99389
103564,99368
103599,99420
103616,99396
103605,99400
103659,99419
103660,99471
103679,99408
103692,99447
103727,99409
103711,99464
103787,99457
103779,99513
103815,99480
103788,99487
103850,99511
103894,99514
103893,99506
103892,99528
103928,99533
104017,99554
104013,99601
104005,99560
104032,99570
104049,99585
104069,99617
104096,99582
104138,99632
104147,99629
104167,99595
104189,99632
104251,99667
104224,99656
104284,99661
104220,99641
104322,99676
104315,99720
104292,99715
104343,99681
104379,99708
104416,99742
104389,99763
104405,99757
104404,99710
104473,99719
104472,99761
104517,99764
104498,99761
104482,99772
104479,99730
104524,99819
104542,99762
104573,99756
104570,99757
104517,99778
104569,99794
104549,99820
104589,99787
104574,99812
104590,99777
104601,99834
104577,99829
104618,99828
104611,99819
104572,99770
104647,99818
104628,99851
104627,99778
104621,99795
104627,99795
104650,99832
104661,99811
104638,99852
104657,99831
104660,99799
104664,99847
104690,99849
104679,99792
104693,99827
104663,99836
104707,99841
104731,99875
104750,99848
104758,99848
104746,99854
104817,99885
104772,99882
104806,99889
104753,99885
104837,99891
104830,99903
104846,99876
104875,99929
104859,99893
104870,99887
104927,99939
104908,99912
104931,99977
104931,99918
104931,99946
104976,99972
104976,99980
105018,99952
104994,99958
105003,99968
105021,99958
104954,99960
104930,99920
104844,99877
104682,99823
104595,99753
104432,99697
104209,99620
103974,99506
103775,99445
103648,99347
103551,99331
103337,99253
103249,99198
103144,99170
103092,99110
103012,99107
102906,99015
102871,99011
102816,99007
102755,99024
102754,98964
102666,98986
102636,98940
102641,98903
102653,98935
102609,98963
102578,98926
102580,98901
102575,98957
102599,98934
102617,98945
102620,98919
102597,98953
102622,98924
102664,98976
102646,98955
102680,99002
102647,98968
102692,99006
102720,98974
102780,99006
102754,98973
102808,99004
102823,99031
102824,99062
102851,99025
102837,99094
102842,99044
102905,99064
102934,99094
102950,99095
102909,99073
102931,99050
102949,99101
102988,99077
102967,99085
103002,99128
102949,99081
103011,99083
103023,99138
103014,99132
103084,99098
103069,99123
103062,99123
103175,99172
103147,99163
103157,99206
103127,99174
103191,99200
103246,99188
103278,99220
103255,99194
103247,99214
103280,99216
103295,99230
103289,99223
103242,99183
103245,99218
103283,99206
103275,99228
103237,99209
103269,99180
103205,99215
103264,99191
103288,99185
103242,99216
103212,99178
103230,99151
103205,99219
103253,99183
103190,99185
103236,99168
103186,99178
103221,99136
103278,99219
103240,99167
103223,99157
103215,99168
103237,99190
103243,99176
103279,99186
103268,99184
103258,99157
103282,99238
103289,99215
103301,99224
103333,99250
103305,99219
103403,99225
103422,99255
103371,99240
103432,99244
103431,99264
103467,99284
103511,99288
103519,99313
103526,99281
103573,99312
103573,99353
103622,99352
103647,99332
103662,99351
103676,99343
103727,99388
103723,99398
103764,99378
103771,99361
103778,99415
103843,99459
103842,99447
103896,99428
103897,99457
103885,99447
103974,99465
103991,99504
103989,99460
104066,99500
104017,99479
104105,99536
104110,99516
104132,99559
104123,99523
104188,99534
104177,99584
104192,99617
104221,99598
104236,99566
104241,99574
104287,99624
104291,99600
104302,99612
104362,99627
104313,99650
104375,99614
104390,99651
104369,99594
104369,99644
104396,99626
104407,99625
104434,99644
104386,99671
104418,99654
104398,99633
104481,99673
104456,99707
104452,99659
104477,99682
104436,99654
104515,99690
104528,99730
104462,99659
104483,99695
104500,99678
104515,99693
104576,99735
104561,99711
104534,99726
104492,99675
104586,99730
104549,99703
104592,99736
104530,99718
104528,99679
104564,99743
104553,99732
104578,99752
104570,99742
104582,99732
104591,99710
104652,99748
104584,99767
104616,99754
104610,99741
104591,99754
104646,99740
104619,99797
104634,99766
104676,99753
104675,99779
104639,99768
104688,99811
104669,99753
104724,99780
104737,99825
104758,99803
104755,99806
104754,99823
104755,99794
104809,99858
104814,99829
104803,99816
104842,99829
104811,99841
104898,99846
104882,99874
104934,99869
104904,99853
104902,99866
104984,99885
104958,99928
104987,99867
104980,99895
105006,99890
105082,99950
105087,99954
105039,99897
105056,99927
105034,99897
105059,99944
104987,99898
104878,99846
104801,99780
104644,99759
104464,99672
104282,99578
104046,99472
103809,99399
103607,99271
103476,99254
103316,99175
103211,99140
103060,99029
102991,99030
102910,98992
102901,98979
102767,98967
102660,98900
102691,98912
102640,98903
102607,98868
102549,98832
102485,98779
102515,98809
102482,98783
102471,98809
102450,98836
102408,98750
102430,98834
102490,98812
102444,98795
102465,98807
102443,98798
102498,98816
102520,98813
102523,98847
102561,98837
102550,98859
102565,98839
102611,98914
102620,98859
102639,98908
102647,98882
102679,98907
102729,98958
102706,98907
102736,98956
102707,98919
102772,98973
102792,98993
102782,98937
102817,98962
102785,98959
102847,98973
102852,98979
102855,98954
102821,98974
102833,98961
102863,98977
102904,98986
102870,98985
102879,98988
102876,98958
102936,99009
102970,99023
102936,99018
102988,99035
102968,99004
103023,99065
103045,99046
103056,99054
103067,99039
103053,99077
103098,99053
103074,99083
103086,99057
103086,99065
103032,99038
103117,99077
103085,99022
103092,99052
103054,99030
103026,99018
103072,99034
103070,99057
103007,99040
103086,99049
103009,99003
103015,99002
103074,99021
102990,99059
103029,98986
102962,99000
103002,99040
103033,99038
103002,99006
103017,99007
102961,99021
103018,98992
103041,99043
103009,99030
103044,99008
103040,99031
103061,98993
103068,99059
103075,99037
103123,99038
103123,99061
103137,99075
103191,99106
103181,99087
103213,99096
103235,99089
103262,99145
103292,99145
103305,99142
103301,99142
103302,99140
103393,99175
103432,99216
103444,99183
103476,99217
103446,99195
103530,99224
103550,99252
103559,99228
103606,99247
103577,99258
103652,99258
103704,99298
103672,99292
103713,99276
103754,99314
103778,99334
103799,99344
103847,99330
103852,99367
103850,99333
103937,99386
103962,99364
103938,99406
103945,99397
103948,99422
104042,99419
104078,99460
104109,99460
104075,99436
104073,99434
104167,99478
104183,99478
104166,99522
104203,99485
104226,99522
104276,99513
104259,99531
104266,99513
104246,99517
104278,99505
104305,99559
104330,99568
104328,99541
104315,99539
104379,99526
104380,99614
104389,99571
104398,99585
104435,99591
104420,99563
104434,99612
104442,99595
104445,99625
104439,99592
104458,99606
104518,99623
104542,99635
104507,99628
104554,99591
104524,99623
104572,99636
104568,99639
104550,99627
104542,99638
104550,99644
104631,99637
104632,99661
104597,99689
104573,99638
104661,99662
104633,99664
104657,99675
104687,99698
104673,99672
104662,99666
104727,99719
104736,99682
104678,99691
104709,99696
104740,99691
104749,99702
104782,99714
104789,99741
104808,99732
104782,99720
104819,99750
104815,99723
104857,99763
104837,99729
104852,99777
104869,99785
104922,99770
104885,99801
104898,99763
104955,99791
104952,99796
104971,99813
105003,99811
104950,99806
105037,99830
105030,99854
105059,99865
105070,99829
105078,99811
105108,99846
105114,99883
105155,99864
105155,99896
105159,99856
105162,99883
105163,99915
105160,99860
105128,99875
105047,99830
104946,99792
104825,99735
104663,99644
104491,99588
104205,99450
104003,99397
103758,99288
103612,99214
103403,99140
103279,99059
103125,99045
103047,99010
102947,98936
102891,98891
102798,98873
102776,98874
102704,98800
102653,98828
102599,98774
102551,98766
102554,98756
102535,98748
102543,98757
102490,98723
102433,98717
102514,98744
102489,98751
102476,98713
102517,98761
102488,98744
102483,98746
102529,98792
102531,98757
102612,98786
102531,98763
102635,98790
102663,98830
102684,98817
102719,98809
102721,98847
102736,98856
102766,98845
102840,98889
102873,98884
102839,98909
102880,98886
102967,98956
102953,98925
102967,98923
102966,98948
102981,98929
103028,98990
103020,98951
103058,98952
103013,98929
103024,98982
103080,98983
103112,99003
103122,98984
103065,98949
103163,99009
103140,99032
103183,99014
103192,99083
103183,99011
103306,99038
103304,99095
103316,99077
103342,99083
103330,99113
103345,99097
103357,99126
103374,99109
103348,99105
103333,99054
103389,99117
103357,99090
103347,99096
103308,99105
103309,99065
103287,99101
103332,99052
103290,99102
103254,99048
103254,99024
103260,99043
103253,99045
103226,99039
103239,99006
103161,99007
103254,99056
103212,99014
103193,99006
103177,99024
103198,98996
103204,99056
103208,99038
103232,99002
103166,99057
103196,98986
103260,99070
103274,99064
103230,99029
103240,99024
103285,99019
103315,99106
103332,99072
103301,99084
103371,99111
103336,99078
103409,99086
103421,99111
103443,99129
103416,99145
103478,99166
103533,99121
103547,99226
103545,99169
103572,99188
103561,99185
103655,99220
103686,99255
103675,99265
103749,99222
103729,99263
103775,99281
103832,99279
103791,99306
103889,99265
103853,99335
103912,99302
103936,99328
103994,99321
103977,99325
104020,99330
104017,99403
104091,99385
104104,99395
104127,99397
104146,99388
104204,99442
104215,99429
104213,99457
104241,99430
104238,99457
104286,99512
104274,99469
104317,99469
104326,99503
104329,99497
104360,99476
104433,99519
104356,99538
104412,99452
104417,99517
104411,99531
104463,99517
104497,99569
104448,99510
104491,99552
104502,99536
104507,99580
104503,99559
104461,99558
104535,99569
104508,99564
104548,99580
104517,99583
104530,99561
104545,99570
104593,99582
104553,99609
104557,99556
104537,99595
104542,99586
104595,99591
104566,99602
104555,99560
104577,99583
104552,99575
104633,99594
104597,99632
104580,99588
104608,99583
104577,99592
104621,99600
104584,99616
104623,99609
104595,99625
104596,99579
104679,99636
104664,99615
104626,99633
104630,99573
104701,99641
104656,99667
104694,99617
104717,99644
104700,99651
104685,99662
104754,99646
104763,99682
104775,99675
104757,99628
104786,99666
104823,99718
104815,99676
104851,99707
104809,99690
104849,99711
104855,99704
104871,99712
104789,99677
104733,99665
104690,99622
104585,99569
104361,99509
104216,99389
103950,99326
103761,99219
103608,99145
103417,99078
103242,99018
103079,98914
103034,98900
102897,98841
102830,98824
102748,98798
102654,98759
102610,98710
102611,98738
102509,98707
102480,98679
102424,98674
102403,98642
102421,98636
102340,98630
102369,98646
102305,98620
102330,98577
102354,98648
102340,98632
102342,98601
102336,98601
102358,98653
102343,98609
102377,98634
102359,98635
102372,98636
102424,98644
102459,98696
102488,98682
102507,98713
102507,98703
102535,98707
102583,98737
102576,98743
102621,98752
102624,98739
102657,98754
102686,98787
102681,98779
102728,98772
102685,98767
102773,98829
102811,98825
102771,98823
102774,98828
102768,98806
102843,98833
102794,98819
102845,98839
102832,98865
102825,98791
102855,98883
102921,98878
102896,98868
102919,98870
102956,98874
102994,98911
103028,98940
103032,98933
103046,98906
103055,98941
103051,98948
103094,98950
103101,98952
103078,98954
103060,98910
103106,98914
103100,98992
103055,98912
103052,98934
103030,98909
103053,98889
103043,98940
102985,98911
103000,98884
102976,98881
102966,98862
103025,98917
102964,98870
102965,98822
102939,98847
102948,98861
102912,98874
102893,98857
102890,98863
102892,98825
102965,98875
102937,98865
102921,98857
102887,98819
102916,98815
102971,98878
102967,98863
102948,98877
102964,98883
102950,98849
103040,98915
103010,98883
103054,98894
103058,98904
103056,98894
103115,98968
103137,98921
103151,98976
103195,98981
103140,98944
103228,98967
103216,99002
103268,98985
103263,99029
103283,98980
103339,99022
103356,99055
103403,99056
103377,99061
103440,99063
103494,99087
103522,99110
103512,99118
103499,99079
103552,99095
103599,99160
103618,99134
103621,99141
103670,99145
103699,99170
103722,99207
103792,99221
103769,99216
103807,99204
103802,99237
103860,99201
103883,99280
103912,99265
103930,99259
103918,99257
103999,99331
104021,99275
104002,99299
103989,99281
104050,99309
104047,99334
104113,99358
104063,99329
104091,99316
104118,99348
104132,99371
104127,99336
104200,99359
104171,99364
104175,99390
104203,99348
104189,99422
104173,99388
104204,99364
104252,99393
104249,99426
104295,99393
104261,99415
104280,99418
104282,99408
104314,99442
104329,99420
104282,99443
104296,99408
104323,99394
104305,99449
104303,99416
104363,99423
104286,99447
104306,99440
104332,99448
104354,99456
104370,99438
104311,99421
104385,99444
104356,99487
104365,99453
104390,99438
104352,99426
104432,99474
104399,99491
104415,99477
104437,99479
104417,99462
104461,99467
104445,99518
104478,99490
104479,99479
104493,99483
104493,99515
104553,99545
104532,99501
104605,99543
104562,99513
104617,99509
104614,99602
104642,99567
104629,99547
104638,99580
104672,99565
104700,99569
104686,99577
104721,99573
104672,99572
104694,99573
104714,99603
104680,99582
104602,99544
104488,99470
104447,99459
104223,99369
104023,99309
103772,99200
103571,99076
103385,99047
103278,98930
103091,98895
102976,98827
102816,98738
102774,98736
102687,98710
102559,98666
102514,98600
102453,98607
102392,98585
102344,98605
102282,98514
102277,98504
102177,98523
102216,98503
102216,98498
102199,98525
102145,98445
102135,98482
102104,98473
102137,98497
102125,98465
102172,98458
102103,98445
102150,98468
102190,98505
102172,98483
102160,98489
102213,98506
102226,98521
102305,98549
102216,98524
102275,98541
102278,98502
102343,98572
102373,98564
102351,98591
102356,98541
102375,98559
102419,98603
102433,98603
102398,98590
102468,98615
102399,98580
102448,98636
102491,98597
102453,98620
102470,98617
102483,98580
102520,98632
102518,98618
102512,98626
102500,98650
102494,98605
102586,98662
102547,98655
102582,98684
102581,98669
102568,98670
102618,98679
102679,98725
102644,98698
102645,98686
102648,98704
102692,98725
102716,98702
102689,98714
102650,98696
102690,98674
102670,98711
102675,98702
102619,98690
102656,98693
102604,98637
102600,98683
102627,98658
102576,98675
102596,98627
102584,98677
102555,98640
102560,98683
102544,98649
102565,98653
102505,98635
102522,98601
102540,98658
102516,98631
102465,98612
102468,98594
102495,98628
102489,98597
102519,98606
102477,98612
102444,98613
102486,98599
102502,98651
102525,98611
102456,98623
102495,98640
102551,98625
102568,98615
102561,98644
102585,98677
102583,98629
102609,98704
102675,98672
102646,98678
102683,98694
102669,98664
102756,98719
102739,98724
102735,98719
102789,98732
102768,98754
102809,98729
102834,98781
102868,98768
102857,98779
102900,98761
102948,98835
102920,98779
102997,98831
102950,98826
102974,98830
103002,98825
103081,98865
103071,98842
103057,98868
103089,98880
103102,98878
103155,98912
103141,98866
103203,98923
103187,98887
103242,98924
103284,98949
103264,98916
103284,98915
103280,98943
103335,98931
103353,98972
103350,98973
103383,98933
103394,99003
103388,98994
103434,99026
103392,99008
103413,99011
103423,98997
103455,98993
103513,99033
103473,99040
103470,99026
103509,99016
103479,99043
103512,99018
103551,99053
103489,99004
103530,99039
103567,99067
103583,99045
103579,99058
103525,99024
103602,99079
103588,99086
103604,99074
103585,99078
103618,99070
103595,99115
103638,99073
103616,99133
103602,99101
103649,99081
103682,99104
103672,99133
103717,99108
103730,99101
103665,99071
103710,99114
103737,99140
103756,99146
103740,99135
103741,99100
103762,99138
103808,99154
103832,99201
103792,99159
103815,99140
103869,99175
103879,99180
103904,99204
103876,99181
103904,99191
103926,99199
103972,99239
103977,99222
104008,99213
103992,99232
104062,99282
104066,99274
104102,99268
104126,99279
104133,99245
104215,99303
104213,99344
104253,99309
104269,99323
104201,99328
104318,99325
104346,99385
104357,99319
104327,99348
104285,99373
104273,99325
104216,99288
104084,99289
103933,99154
103774,99099
103599,99022
103358,98929
103212,98864
103034,98763
102860,98691
102732,98666
102658,98612
102546,98578
102472,98539
102383,98451
102332,98509
102256,98436
102197,98400
102143,98399
102065,98397
102047,98349
102082,98338
101982,98334
102005,98325
101929,98305
101947,98309
101976,98320
101962,98315
101925,98292
101916,98292
101947,98306
101990,98348
101981,98300
101982,98325
101978,98329
102052,98342
102072,98367
102052,98372
102076,98362
102068,98377
102148,98386
102174,98433
102177,98417
102182,98418
102202,98415
102272,98435
102259,98454
102308,98449
102273,98476
102297,98452
102356,98515
102341,98467
102375,98503
102342,98490
102337,98492
102383,98490
102401,98546
102433,98508
102413,98518
102420,98507
102434,98535
102469,98542
102437,98531
102460,98587
102475,98527
102501,98576
102546,98573
102573,98569
102602,98618
102573,98555
102620,98604
102631,98580
102661,98594
102599,98632
102629,98571
102657,98596
102628,98622
102606,98611
102614,98564
102555,98590
102622,98587
102594,98591
102597,98579
102560,98581
102551,98541
102593,98579
102556,98600
102500,98554
102541,98551
102536,98528
102557,98581
102528,98559
102529,98521
102516,98551
102473,98531
102493,98539
102503,98529
102496,98526
102497,98557
102502,98517
102534,98549
102489,98535
102532,98534
102519,98572
102537,98514
102578,98577
102562,98576
102599,98582
102608,98582
102626,98576
102678,98601
102680,98644
102680,98596
102680,98646
102714,98618
102742,98638
102777,98639
102788,98670
102776,98654
102840,98648
102849,98676
102894,98745
102873,98683
102925,98697
102946,98729
102983,98725
102998,98735
103031,98739
103008,98774
103065,98741
103105,98794
103107,98787
103149,98790
103141,98788
103172,98828
103204,98819
103251,98851
103276,98842
103234,98838
103324,98862
103370,98919
103392,98875
103367,98882
103408,98907
103426,98893
103460,98906
103459,98948
103531,98926
103474,98965
103526,98973
103561,98975
103577,98944
103594,98958
103585,99004
103633,98998
103669,99015
103658,98993
103719,99014
103659,99026
103722,99025
103742,99042
103776,99052
103777,99064
103736,99016
103803,99077
103807,99092
103822,99084
103848,99070
103881,99078
103875,99106
103900,99094
103911,99127
103929,99105
103905,99104
103932,99150
103954,99094
104004,99174
103979,99120
103987,99115
104010,99138
104062,99181
104030,99147
104081,99173
104013,99187
104082,99188
104126,99190
104108,99182
104114,99175
104094,99208
104177,99191
104183,99231
104210,99202
104194,99207
104204,99229
104225,99223
104320,99234
104263,99236
104294,99247
104267,99243
104308,99263
104381,99282
104371,99326
104422,99327
104384,99305
104459,99343
104463,99308
104485,99359
104487,99345
104479,99347
104566,99365
104543,99383
104597,99389
104617,99390
104572,99417
104628,99398
104686,99425
104682,99399
104717,99402
104702,99439
104766,99416
104788,99474
104735,99443
104764,99469
104658,99421
104654,99387
104586,99393
104445,99316
104281,99257
104045,99097
103878,99022
103681,98950
103393,98827
103192,98754
102990,98658
102890,98633
102800,98577
102633,98539
102538,98478
102469,98450
102428,98430
102405,98395
102308,98381
102256,98348
102208,98324
102182,98318
102183,98316
102145,98324
102104,98306
102139,98262
102102,98295
102135,98268
102149,98291
102093,98268
102124,98317
102128,98294
102203,98331
102197,98340
102227,98334
102206,98345
102252,98347
102292,98353
102311,98403
102344,98393
102360,98424
102427,98414
102414,98450
102480,98444
102501,98485
102483,98447
102549,98482
102597,98519
102569,98519
102614,98494
102579,98526
102688,98551
102671,98548
102710,98585
102679,98575
102729,98531
102734,98579
102801,98591
102730,98562
102783,98593
102741,98533
102818,98587
102841,98620
102875,98610
102879,98628
102916,98623
102961,98688
102942,98654
103018,98702
102986,98649
103024,98671
103061,98721
103058,98678
103052,98727
103030,98672
103025,98663
103075,98686
103067,98722
103025,98697
103031,98661
103013,98708
103059,98703
103044,98683
102996,98656
102980,98639
102946,98649
103007,98689
103000,98666
102931,98631
102921,98640
102936,98633
102946,98656
102942,98664
102930,98640
102917,98645
102943,98627
102945,98633
102958,98642
102932,98630
102944,98644
102966,98629
102983,98666
103003,98661
102998,98659
103047,98652
103060,98687
103041,98692
103096,98728
103123,98684
103123,98699
103130,98700
103153,98723
103211,98744
103198,98755
103249,98769
103219,98733
103276,98769
103325,98764
103353,98813
103306,98797
103383,98788
103411,98843
103458,98846
103441,98866
103484,98818
103474,98888
103528,98885
103558,98903
103600,98898
103589,98896
103678,98937
103698,98971
103722,98946
103741,98966
103742,98984
103766,98985
103782,98986
103864,99029
103855,98988
103849,99022
103892,99012
103915,99046
103949,99047
103975,99055
103944,99027
104003,99075
104012,99082
104022,99119
104039,99057
104096,99090
104073,99086
104134,99125
104156,99140
104152,99135
104132,99095
104220,99158
104174,99156
104234,99154
104208,99128
104190,99154
104262,99165
104260,99204
104237,99176
104277,99180
104214,99150
104249,99200
104304,99188
104290,99168
104319,99182
104281,99217
104304,99194
104340,99202
104326,99199
104350,99239
104279,99189
104368,99235
104375,99212
104355,99197
104387,99206
104341,99233
104429,99227
104427,99259
104421,99240
104430,99237
104404,99255
104488,99291
104490,99281
104526,99282
104483,99280
104545,99283
104517,99282
104574,99304
104599,99343
104567,99337
104584,99310
104638,99320
104618,99344
104668,99369
104646,99364
104648,99299
104656,99345
104702,99379
104657,99354
104623,99298
104560,99292
104468,99250
104418,99241
104229,99156
104035,99038
103839,98951
103649,98875
103451,98808
103244,98723
103074,98655
102898,98594
102812,98504
102713,98508
102581,98399
102554,98408
102431,98329
102389,98381
102376,98373
102342,98351
102240,98298
102230,98287
102212,98256
102216,98273
102183,98276
102149,98256
102144,98207
102158,98251
102166,98272
102170,98253
102141,98246
102140,98257
102209,98285
102214,98305
102246,98312
102268,98299
102268,98305
102356,98350
102382,98343
102377,98339
102392,98365
102428,98398
102492,98379
102495,98426
102533,98443
102560,98445
102564,98442
102601,98468
102636,98482
102656,98494
102652,98470
102674,98461
102716,98512
102727,98505
102739,98491
102749,98540
102725,98486
102757,98534
102820,98560
102776,98566
102833,98551
102841,98544
102913,98579
102905,98567
102895,98597
102960,98613
102975,98604
103013,98644
103058,98619
103059,98644
103065,98649
103053,98647
103129,98658
103072,98707
103105,98639
103092,98663
103032,98671
103053,98635
103110,98659
103035,98613
103031,98638
102991,98645
103001,98642
103019,98623
103024,98658
103002,98583
102945,98611
102990,98601
102955,98615
103001,98612
102944,98588
102914,98550
102949,98590
102965,98614
102919,98565
102942,98589
102918,98547
102946,98599
102942,98610
102937,98571
102939,98583
102959,98614
103002,98634
103009,98618
103027,98628
103023,98615
103036,98628
103067,98676
103107,98681
103096,98657
103116,98661
103132,98662
103161,98694
103183,98699
103207,98706
103216,98707
103244,98709
103296,98734
103317,98749
103327,98754
103317,98744
103369,98762
103398,98792
103432,98815
103470,98803
103434,98790
103500,98809
103525,98842
103558,98837
103554,98870
103593,98847
103617,98864
103637,98895
103660,98896
103681,98899
103684,98866
103692,98913
103739,98916
103781,98934
103787,98960
103809,98934
103858,98969
103870,98975
103907,98979
103890,98997
103921,98984
103918,98985
103997,99040
103997,99030
104023,99012
103982,99033
104025,99063
104040,99038
104054,99027
104052,99062
104075,99045
104087,99062
104148,99089
104149,99095
104173,99101
104130,99097
104186,99066
104181,99121
104172,99114
104212,99088
104161,99078
104196,99151
104208,99112
104231,99128
104244,99153
104197,99115
104230,99142
104248,99157
104223,99143
104297,99124
104240,99157
104298,99139
104277,99168
104309,99168
104299,99184
104264,99131
104349,99169
104377,99161
104331,99206
104319,99166
104370,99166
104366,99189
104451,99194
104410,99222
104428,99195
104438,99234
104489,99221
104518,99248
104473,99209
104523,99232
104491,99240
104555,99254
104559,99283
104545,99237
104563,99270
104552,99256
104561,99253
104590,99256
104516,99276
104469,99238
104347,99179
104271,99156
104097,99066
103972,98989
103709,98877
103471,98753
103303,98742
103136,98664
102912,98578
102776,98486
102698,98422
102558,98371
102496,98358
102437,98325
102378,98313
102231,98239
102250,98266
102183,98236
102143,98205
102107,98192
102038,98195
102057,98145
102029,98163
102024,98168
102023,98163
101956,98127
102010,98158
102001,98150
102006,98150
101996,98136
101998,98141
102068,98153
102057,98180
102048,98172
102089,98169
102094,98169
102128,98230
102169,98227
102151,98221
102204,98232
102163,98226
102234,98251
102262,98263
102289,98281
102254,98253
102269,98245
102301,98282
102331,98301
102326,98299
102346,98286
102315,98273
102353,98314
102374,98291
102370,98308
102370,98298
102346,98267
102371,98322
102397,98312
102383,98314
102400,98322
102422,98303
102452,98337
102468,98364
102435,98349
102472,98358
102506,98342
102509,98357
102567,98395
102510,98364
102586,98392
102563,98386
102586,98393
102590,98403
102544,98375
102574,98391
102556,98363
102600,98407
102609,98411
102524,98360
102560,98372
102521,98361
102565,98389
102572,98386
102537,98387
102532,98360
102506,98354
102544,98365
102553,98364
102539,98367
102511,98326
102483,98335
102517,98367
102536,98358
102529,98364
102519,98342
102498,98349
102534,98356
102539,98353
102534,98378
102548,98371
102500,98349
102545,98376
102577,98376
102572,98383
102568,98371
102577,98374
102631,98417
102615,98424
102651,98389
102640,98388
102659,98399
102679,98438
102717,98460
102728,98454
102754,98440
102740,98465
102792,98458
102841,98474
102822,98461
102832,98507
102875,98489
102891,98475
102903,98528
102936,98556
102940,98531
102970,98557
103029,98575
103031,98580
103020,98556
103009,98563
103055,98590
103074,98601
103141,98613
103146,98619
103122,98620
103156,98629
103184,98632
103221,98656
103254,98663
103232,98664
103252,98652
103285,98680
103327,98697
103328,98712
103311,98691
103375,98685
103366,98707
103406,98733
103381,98715
103393,98721
103407,98726
103459,98747
103480,98750
103468,98763
103485,98752
103493,98762
103523,98788
103541,98784
103539,98773
103546,98751
103551,98809
103591,98808
103577,98800
103594,98804
103590,98798
103609,98827
103603,98822
103627,98804
103614,98807
103627,98818
103675,98842
103677,98852
103663,98844
103638,98833
103654,98823
103677,98848
103691,98860
103707,98849
103694,98845
103685,98847
103720,98870
103747,98873
103708,98858
103743,98864
103708,98850
103753,98885
103784,98887
103754,98890
103775,98902
103732,98872
103807,98878
103821,98891
103834,98909
103838,98917
103829,98877
103878,98932
103892,98917
103897,98938
103887,98929
103889,98924
103930,98937
103990,98977
103976,98962
104005,98987
104009,98967
104038,98996
104058,99005
104047,99004
104098,99006
104077,99000
104128,99041
104162,99038
104156,99028
104170,99042
104105,99007
104124,99029
104058,98988
103960,98971
103851,98873
103650,98808
103490,98736
103288,98633
103090,98545
102914,98478
102734,98390
102618,98365
102499,98294
102385,98257
102298,98197
102203,98143
102157,98129
102107,98120
102028,98085
101975,98058
101869,98009
101886,98046
101848,98008
101859,97989
101756,97993
101748,97952
101760,97950
101748,97991
101696,97953
101714,97962
101685,97937
101712,97952
101746,97970
101744,97940
101751,98003
101687,97935
101757,97981
101770,98000
101792,97969
101772,97983
101809,98003
101827,98016
101887,98030
101889,98046
101888,97996
101878,98027
101944,98052
101923,98056
101909,98023
101905,98056
101914,98053
101948,98024
101950,98062
101914,98060
101940,98029
101881,98006
101937,98067
101913,98050
101957,98035
101929,98010
101904,98031
101933,98063
101944,98067
101979,98048
101942,98060
101983,98056
102018,98078
102050,98089
102037,98079
102059,98124
102074,98103
102101,98139
102141,98093
102079,98140
102094,98113
102069,98116
102133,98105
102170,98117
102128,98119
102128,98120
102070,98106
102120,98161
102104,98121
102133,98130
102083,98100
102090,98108
102082,98113
102121,98086
102062,98125
102082,98113
102040,98084
102081,98093
102098,98114
102034,98069
102048,98090
102078,98083
102070,98106
102068,98098
102047,98088
102068,98104
102046,98091
102097,98105
102103,98121
102032,98096
102078,98070
102104,98115
102148,98085
102122,98133
102141,98135
102116,98105
102190,98115
102155,98127
102209,98148
102186,98153
102215,98133
102203,98158
102247,98142
102292,98188
102249,98179
102250,98178
102298,98187
102348,98219
102318,98221
102345,98195
102351,98214
102341,98219
102406,98231
102419,98256
102430,98212
102422,98232
102426,98258
102482,98253
102475,98267
102497,98279
102507,98274
102484,98291
102521,98292
102580,98284
102571,98318
102567,98310
102607,98311
102652,98330
102625,98366
102668,98316
102666,98336
102692,98372
102740,98352
102736,98376
102706,98357
102745,98374
102760,98351
102795,98424
102770,98401
102831,98409
102809,98399
102837,98432
102858,98437
102820,98417
102851,98441
102826,98401
102837,98425
102897,98457
102882,98440
102897,98474
102887,98444
102955,98478
102939,98494
102974,98437
102996,98489
102980,98455
103005,98513
102994,98517
103039,98475
103027,98534
103005,98489
103081,98529
103059,98514
103062,98495
103069,98547
103037,98501
103087,98523
103102,98516
103115,98566
103083,98503
103106,98531
103110,98567
103142,98580
103120,98543
103129,98589
103107,98549
103186,98580
103176,98589
103191,98548
103206,98611
103184,98562
103252,98568
103253,98624
103227,98590
103252,98592
103257,98593
103310,98610
103294,98648
103318,98600
103346,98646
103302,98592
103391,98633
103390,98691
103356,98635
103444,98707
103416,98643
103463,98687
103461,98717
103495,98674
103476,98724
103475,98703
103571,98730
103585,98736
103597,98735
103574,98716
103608,98731
103619,98774
103638,98750
103641,98727
103657,98794
103632,98727
103598,98745
103532,98718
103443,98627
103321,98582
103107,98503
102961,98438
102831,98347
102645,98309
102466,98191
102328,98153
102272,98120
102151,98119
102046,98016
101963,98022
101883,97926
101846,97923
101786,97929
101743,97894
101661,97823
101593,97814
101611,97810
101562,97786
101522,97819
101498,97763
101446,97751
101437,97768
101457,97746
101417,97748
101421,97756
101376,97731
101478,97746
101441,97781
101421,97726
101443,97748
101439,97752
101472,97786
101485,97752
101485,97801
101505,97742
101467,97726
101510,97807
101512,97823
101520,97755
101497,97824
101480,97791
101544,97833
101546,97799
101558,97815
101527,97787
101552,97814
101541,97841
101592,97827
101553,97789
101534,97828
101546,97770
101538,97799
101605,97833
101514,97785
101557,97813
101518,97800
101567,97820
101568,97787
101588,97826
101578,97817
101608,97839
101621,97848
101671,97832
101667,97842
101655,97858
101690,97878
101731,97852
101760,97900
101733,97895
101777,97904
101730,97880
101762,97909
101770,97900
101774,97921
101790,97875
101749,97871
101811,97925
101784,97922
101783,97874
101751,97911
101787,97878
101828,97897
101786,97941
101752,97931
101794,97885
101745,97879
101831,97911
101802,97896
101780,97888
101787,97871
101789,97880
101791,97885
101792,97897
101832,97873
101790,97890
101800,97884
101855,97939
101865,97924
101823,97907
101854,97889
101873,97915
101861,97953
101872,97926
101941,97940
101888,97953
101929,97928
101993,98003
101982,97977
102013,97967
101979,97961
102028,98017
102088,98008
102084,98041
102102,98011
102104,98007
102154,98041
102198,98087
102229,98079
102212,98095
102195,98063
102271,98075
102324,98094
102320,98119
102341,98115
102341,98122
102374,98129
102403,98158
102439,98180
102479,98179
102453,98168
102482,98183
102532,98199
102526,98203
102583,98201
102561,98214
102553,98208
102636,98234
102679,98244
102631,98231
102662,98253
102703,98246
102713,98241
102744,98296
102764,98304
102768,98283
102762,98289
102850,98339
102832,98350
102860,98347
102869,98328
102849,98336
102924,98356
102940,98400
102936,98336
102903,98373
103002,98401
102978,98415
103017,98390
103008,98444
103003,98405
103038,98439
103106,98426
103103,98427
103087,98450
103095,98436
103135,98443
103139,98430
103166,98482
103177,98441
103139,98461
103160,98463
103223,98478
103213,98469
103215,98518
103198,98472
103211,98493
103262,98538
103248,98487
103283,98502
103273,98492
103319,98546
103313,98519
103362,98565
103334,98517
103320,98526
103359,98568
103415,98576
103403,98576
103436,98584
103379,98553
103459,98586
103503,98635
103496,98598
103511,98569
103514,98626
103504,98618
103523,98637
103589,98622
103615,98639
103634,98658
103620,98652
103691,98689
103666,98681
103698,98698
103698,98668
103771,98731
103796,98706
103808,98723
103793,98748
103809,98742
103840,98744
103892,98755
103851,98744
103829,98746
103757,98705
103680,98650
103605,98651
103414,98548
103243,98438
102993,98380
102856,98308
102639,98202
102494,98142
102329,98070
102185,98026
102085,97947
102009,97915
101964,97900
101867,97878
101770,97841
101739,97787
101668,97795
101634,97753
101594,97722
101505,97732
101560,97731
101542,97736
101493,97675
101520,97695
101508,97686
101491,97721
101485,97698
101490,97686
101504,97739
101478,97680
101556,97751
101534,97740
101539,97720
101579,97756
101554,97735
101660,97769
101639,97814
101629,97769
101674,97800
101636,97775
101715,97814
101728,97821
101762,97808
101732,97794
101765,97832
101783,97878
101802,97839
101812,97820
101840,97851
101798,97842
101851,97906
101826,97853
101876,97836
101838,97866
101821,97844
101859,97873
101899,97864
101872,97915
101887,97843
101897,97889
101932,97922
101969,97903
102006,97938
101978,97915
102017,97937
102072,97993
102050,97960
102095,97946
102059,97993
102078,97982
102105,97990
102126,97992
102125,97980
102085,97973
102098,98000
102094,97947
102082,98010
102118,97975
102076,97985
102048,97958
102127,97961
102076,97968
102079,97980
102043,97967
102033,97918
102067,97988
102080,97974
102065,97940
102018,97935
102027,97915
102032,97987
102039,97962
102037,97936
102022,97953
102043,97950
102089,97963
102039,97967
102049,97973
102060,97917
102096,97954
102103,97980
102134,97988
102091,97968
102107,98009
102112,97993
102179,98010
102151,97998
102162,98026
102199,98023
102189,98003
102247,98028
102268,98062
102258,98070
102273,98034
102300,98057
102352,98073
102367,98110
102341,98074
102360,98116
102415,98107
102432,98121
102448,98119
102429,98125
102471,98160
102465,98123
102487,98188
102505,98163
102577,98197
102535,98142
102577,98172
102610,98187
102605,98189
102644,98218
102605,98187
102669,98179
102668,98248
102700,98242
102731,98248
102682,98221
102734,98220
102781,98287
102787,98294
102813,98268
102798,98270
102847,98272
102842,98295
102876,98320
102863,98329
102864,98282
102914,98343
102938,98309
102956,98325
102925,98350
102904,98321
102981,98353
103040,98396
102999,98366
103036,98371
102991,98370
103046,98367
103082,98407
103070,98392
103099,98395
103043,98389
103090,98397
103105,98453
103103,98434
103143,98403
103109,98444
103162,98421
103148,98444
103160,98441
103175,98426
103172,98442
103140,98432
103199,98457
103180,98457
103139,98446
103173,98426
103192,98497
103254,98448
103233,98477
103213,98491
103215,98443
103290,98499
103264,98479
103316,98513
103325,98533
103305,98473
103431,98524
103408,98556
103407,98537
103448,98576
103422,98528
103491,98587
103554,98598
103540,98594
103577,98584
103550,98615
103574,98614
103664,98621
103631,98609
103625,98628
103655,98632
103630,98668
103677,98638
103643,98649
103587,98617
103502,98574
103482,98597
103338,98477
103185,98435
102968,98359
102777,98214
102653,98173
102497,98146
102290,98038
102205,97978
102054,97928
102023,97864
101911,97853
101825,97800
101774,97768
101655,97760
101619,97682
101579,97732
101503,97699
101439,97652
101414,97607
101450,97650
101392,97612
101374,97618
101343,97590
101334,97585
101294,97633
101351,97589
101312,97616
101333,97603
101293,97579
101341,97628
101367,97589
101335,97627
101337,97630
101348,97578
101363,97652
101401,97644
101411,97628
101376,97644
101380,97610
101473,97656
101455,97672
101451,97655
101423,97655
101423,97624
101483,97678
101452,97644
101455,97670
101451,97681
101429,97636
101486,97666
101471,97654
101468,97657
101431,97626
101447,97673
101466,97632
101498,97692
101501,97655
101452,97662
101463,97635
101500,97671
101513,97693
101512,97674
101544,97702
101561,97695
101596,97705
101574,97708
101625,97749
101630,97724
101615,97750
101668,97760
101683,97769
101674,97770
101637,97754
101652,97754
101667,97748
101701,97779
101659,97756
101697,97744
101672,97757
101664,97749
101708,97792
101677,97762
101694,97732
101672,97749
101712,97763
101662,97758
101698,97736
101650,97741
101656,97745
101641,97705
101686,97772
101662,97733
101644,97731
101680,97747
101670,97765
101666,97749
101634,97743
101635,97753
101668,97714
101743,97773
101718,97794
101700,97764
101718,97770
101721,97778
101776,97774
101762,97773
101801,97797
101787,97786
101842,97836
101848,97811
101864,97852
101867,97835
101877,97839
101916,97848
101943,97877
101986,97896
101976,97858
102016,97889
102009,97908
102085,97923
102078,97941
102083,97945
102111,97930
102118,97961
102152,97961
102164,97944
102172,97974
102171,97953
102195,98006
102241,97976
102232,97991
102268,98014
102275,97974
102290,98032
102324,98008
102333,98040
102328,98026
102352,98029
102347,98056
102414,98096
102433,98074
102412,98073
102404,98028
102468,98079
102470,98078
102459,98109
102496,98064
102470,98121
102502,98098
102541,98173
102597,98154
102551,98135
102578,98132
102600,98182
102645,98168
102592,98157
102640,98184
102649,98170
102637,98219
102705,98164
102674,98161
102698,98200
102611,98175
102681,98207
102735,98206
102725,98204
102692,98177
102695,98188
102714,98212
102782,98213
102779,98230
102764,98224
102723,98216
102802,98222
102790,98266
102773,98250
102786,98234
102795,98247
102817,98260
102824,98228
102827,98254
102844,98212
102811,98267
102830,98258
102868,98282
102870,98275
102852,98239
102874,98234
102845,98291
102910,98264
102861,98263
102922,98305
102933,98279
102971,98319
102954,98274
102961,98312
102990,98317
102980,98290
103045,98366
103069,98322
103050,98325
103085,98355
103064,98359
103124,98363
103184,98439
103192,98413
103209,98398
103182,98398
103240,98402
103237,98486
103251,98438
103285,98469
103261,98449
103296,98444
103269,98450
103259,98429
103215,98395
103058,98346
102924,98294
102803,98224
102663,98165
102457,98043
102290,97986
102179,97964
102062,97854
101924,97789
101822,97763
101662,97702
101634,97680
101599,97695
101483,97620
101422,97586
101373,97568
101328,97585
101316,97551
101245,97497
101208,97480
101153,97452
101172,97452
101127,97479
101084,97459
101080,97437
101042,97439
101094,97434
101075,97418
101065,97440
101071,97441
101087,97416
101072,97488
101111,97434
101109,97456
101076,97474
101053,97429
101148,97463
101119,97504
101136,97471
101163,97472
101116,97461
101207,97468
101168,97510
101194,97477
101186,97513
101169,97488
101180,97508
101232,97523
101172,97479
101166,97474
101176,97480
101217,97526
101204,97477
101209,97500
101183,97506
101146,97476
101219,97469
101211,97525
101212,97494
101232,97467
101239,97532
101255,97519
101268,97532
101276,97539
101302,97587
101316,97523
101381,97579
101388,97555
101396,97588
101408,97565
101420,97601
101494,97604
101441,97636
101443,97603
101450,97597
101467,97615
101520,97594
101493,97641
101475,97589
101479,97637
101469,97604
101503,97631
101475,97639
101460,97584
101503,97605
101460,97580
101487,97603
101509,97653
101473,97622
101498,97577
101504,97607
101489,97618
101523,97642
101507,97612
101483,97597
101513,97605
101496,97595
101563,97662
101548,97616
101524,97627
101557,97619
101601,97674
101622,97629
101611,97643
101601,97626
101613,97646
101652,97678
101700,97703
101659,97720
101693,97669
101714,97724
101746,97725
101764,97712
101799,97731
101787,97751
101847,97754
101876,97786
101908,97782
101869,97794
101933,97814
101953,97826
101986,97861
102034,97844
102025,97855
102001,97820
102089,97830
102098,97908
102111,97856
102159,97919
102141,97871
102196,97876
102257,97953
102210,97923
102244,97926
102248,97970
102296,97937
102333,97991
102316,97954
102381,98002
102333,98024
102381,97989
