11111,11111
0,0
82331,82344
110231,112780
110337,112841
110374,112848
110367,112800
110334,112779
110384,112822
110491,112890
110564,112890
110568,112897
110504,112811
110601,112878
110727,112951
110778,112972
110762,112952
110715,112910
110767,112943
110868,112997
110905,113034
110913,112998
110837,112967
110860,112986
110995,113051
110973,113035
110937,113018
110841,112994
110926,112982
111016,113061
110964,113024
110991,112979
110890,112976
110893,112983
111026,113035
110985,113003
110968,113003
110878,112969
110886,112966
110953,112985
111013,113044
110927,112972
110858,112947
110855,112970
110935,112987
110969,112997
110893,112978
110872,112926
110858,112945
110958,112986
111035,113035
110987,113005
110916,112933
110939,112974
111019,112986
111105,113015
111085,113005
111017,112974
111050,112983
111114,113055
111169,113050
111172,113057
111087,112996
111095,113002
111193,113061
111231,113093
111246,113051
111150,113009
111184,113015
111310,113083
111325,113105
111290,113066
111196,113005
111250,113046
111306,113069
111349,113073
111301,113038
111268,113011
111284,113008
111391,113078
111418,113075
111364,113045
111273,112979
111310,112996
111404,113046
111412,113041
111409,113050
111311,113000
111330,112977
111420,113052
111453,113064
111448,113026
111357,113022
111371,113045
111464,113085
111474,113089
111461,113054
111383,113009
111430,113038
111505,113109
111523,113123
111486,113056
111391,113051
111427,113021
111547,113097
111530,113087
111458,113087
111406,113011
111487,113056
111541,113092
111529,113087
111532,113060
111467,113038
111471,113057
111550,113099
111575,113084
111562,113114
111484,113059
111528,113062
111594,113157
111621,113111
111606,113122
111513,113059
111512,113058
111647,113115
111672,113124
111748,113151
111815,113114
111822,113156
110975,112784
111072,112798
111126,112855
111372,112906
111390,112902
111479,112970
111537,112984
111678,113021
111606,112964
111541,112928
111544,112958
111598,113008
111694,113029
111623,113006
111560,112951
111513,112950
111611,112971
111657,113034
111598,112968
111526,112923
111494,112948
111564,112960
111613,113018
111575,112977
111498,112939
111449,112903
111532,112939
111581,112988
111563,112971
111481,112933
111428,112894
111552,112963
111592,112966
111533,112948
111437,112918
111473,112907
111557,112965
111582,112987
111556,112966
111503,112926
111456,112889
111577,112946
111627,113004
111559,112951
111521,112938
111491,112916
111609,112971
111661,112993
111606,112981
111560,112935
111520,112919
111628,112988
111683,113002
111636,112976
111589,112945
111554,112928
111670,112992
111729,113024
111687,112962
111616,112951
111611,112960
111670,113007
111751,113035
111685,113012
111629,113000
111608,112981
111691,113000
111781,113041
111726,113023
111676,112987
111644,112998
111748,113002
111804,113061
111748,113045
111676,113006
111658,112984
111717,113023
111793,113032
111735,113014
111704,112986
111667,112974
111741,113021
111821,113073
111745,113008
111681,112966
111689,113006
111777,113039
111820,113063
111769,113021
111729,112999
111695,112996
111814,113062
111848,113069
111808,113046
111736,113010
111740,113027
111822,113061
111886,113050
111839,113057
111769,113007
111744,113019
111851,113035
111911,113078
111864,113077
111776,113024
111734,112996
111835,113041
111891,113106
111842,113061
111820,113020
111789,113028
111871,113062
111912,113061
111853,113063
111823,113022
111769,113012
111875,113055
111943,113074
111933,113063
111926,113044
111965,113098
112039,113118
112026,113093
111978,113038
111898,113043
112025,113085
112064,113132
112064,113114
111943,113068
111981,113089
112021,113110
112107,113156
112016,113109
111961,113085
111899,113063
111962,113082
112015,113124
111918,113076
111778,113008
111724,112958
111772,113000
111760,113030
111693,112969
111586,112937
111493,112890
111544,112894
111551,112882
111469,112857
111373,112829
111314,112785
111400,112838
111417,112841
111378,112828
111316,112813
111264,112765
111401,112829
111413,112847
111381,112861
111379,112817
111338,112784
111472,112897
111519,112889
111514,112878
111475,112841
111473,112882
111566,112899
111623,112916
111600,112907
111555,112917
111536,112877
111648,112940
111714,112972
111659,112965
111603,112933
111620,112909
111708,112938
111789,112978
111729,112972
111669,112928
111657,112924
111700,112951
111777,113006
111735,112957
111702,112937
111646,112895
111734,112966
111804,113006
111767,112958
111706,112944
111655,112893
111743,112953
111805,113006
111763,112963
111719,112961
111709,112923
111766,112955
111834,113007
111788,112977
111707,112942
111703,112920
111764,112947
111834,112980
111787,112985
111696,112945
111668,112925
111703,112945
111823,112992
111725,112957
111689,112893
111615,112897
111718,112929
111776,112972
111694,112912
111652,112908
111581,112885
111681,112936
111721,112942
111670,112936
111594,112854
111564,112851
111665,112884
111687,112961
111659,112879
111635,112890
111576,112859
111642,112913
111722,112937
111678,112943
111620,112845
111590,112850
111703,112898
111714,112976
111728,112912
111679,112924
111643,112899
111708,112948
111756,112980
111767,112942
111706,112945
111659,112905
111743,112951
111827,113007
111804,112978
111724,112907
111715,112926
111811,112948
111865,112971
111819,112928
111798,112954
111745,112938
111825,112966
111882,113031
111845,112984
111847,112961
111769,112945
111855,112957
111941,113047
111892,113007
111867,112963
111825,112970
111883,113001
111969,113031
111934,113037
111841,112996
111817,112962
111864,112992
111981,113043
111935,113040
111891,112964
111828,112939
111931,113012
111958,113030
111931,112999
111879,112994
111849,112978
111928,112990
111987,113027
111948,112989
111902,112978
111827,112967
111916,112982
112005,113062
111923,113007
111870,113001
111820,112952
111953,112996
111995,113068
111961,113025
111917,112997
111842,112966
111933,112997
111997,113024
111962,113001
111902,112967
111870,112958
111935,113005
112024,113048
111924,113014
111904,112965
111845,112938
111963,113006
111976,113008
111961,113004
111911,112941
111875,112947
111926,112985
112005,113034
111965,112984
111950,113003
111869,112930
111975,112990
112032,113050
112017,113012
111953,112972
111924,112955
112008,113012
112089,113043
112059,113011
111997,112991
111949,112953
112069,113004
112089,113030
112082,113018
112039,113013
111964,112983
112063,113002
112154,113034
112114,113016
112073,113009
111999,112969
112113,113026
112182,113043
112174,113038
112100,113002
112083,112990
112158,113054
112199,113082
112166,113051
112139,113018
112076,113015
112179,113048
112213,113058
112182,113076
112171,113027
112074,113001
112210,113063
112244,113066
112223,113079
112160,113038
112085,113027
112160,113065
112200,113057
112124,113023
112046,112992
111925,112964
112000,112968
112029,112982
111961,112984
111849,112909
111769,112859
111793,112892
111772,112889
111750,112870
111628,112845
111519,112782
111602,112809
111589,112825
111531,112795
111475,112758
111341,112704
111437,112745
111471,112777
111401,112755
111358,112726
111320,112701
111382,112740
111474,112785
111406,112753
111447,112743
111376,112738
111506,112778
111547,112819
111569,112805
111541,112813
111515,112802
111607,112840
111714,112865
111686,112897
111654,112850
111642,112822
111729,112915
111802,112950
111807,112901
111792,112937
111704,112865
111806,112932
111861,112971
111857,112927
111808,112927
111755,112907
111862,112957
111925,112994
111890,112962
111848,112945
111791,112914
111889,112923
111958,112994
111927,112995
111883,112943
111837,112954
111920,112978
111984,112988
111967,112991
111917,112949
111844,112947
111947,112984
111990,113026
111979,112986
111934,112955
111876,112930
111948,112968
111983,113006
111973,112960
111911,112955
111841,112921
111929,112969
111988,113001
111973,112967
111918,112925
111865,112927
111908,112945
111981,112983
111948,112972
111896,112921
111819,112888
111899,112940
111981,112980
111944,112942
111875,112933
111812,112899
111916,112937
111963,112983
111938,112939
111876,112941
111811,112896
111893,112920
112011,112981
111962,112964
111889,112928
111840,112906
111920,112911
112028,112989
111972,112947
111942,112927
111866,112922
111986,112942
112045,112999
112006,112941
112003,112981
111935,112892
111996,112941
112091,112986
112072,112985
112029,112976
111955,112936
112048,112941
112134,113016
112106,112977
112037,112989
112009,112953
112076,112990
112141,113027
112091,113011
112053,112965
111986,112944
112059,112986
112166,113018
112086,113013
112061,112999
111971,112944
112054,112977
112122,113032
112063,113004
112038,112961
111991,112911
112092,112987
112166,113017
112103,112999
112058,112937
111997,112924
112088,112982
112154,112994
112143,112994
112085,112961
111981,112907
112086,112979
112163,112997
112106,112991
112078,112957
112021,112948
112101,112980
112165,113015
112128,113007
112114,112960
112018,112940
112068,112973
112183,113001
112153,113018
112098,112964
112042,112934
112102,112968
112193,113011
112194,112987
112137,112970
112065,112948
112148,112991
112236,112997
112190,113019
112156,112968
112100,112917
112155,113021
112232,113021
112217,113017
112192,112974
112090,112968
112164,112987
112255,113036
112227,113005
112204,112986
112108,112940
112208,112987
112302,113012
112246,113010
112222,112971
112135,112942
112207,112998
112306,113031
112263,112999
112245,112986
112153,112957
112200,112977
112308,113035
112293,113017
112232,112963
112163,112944
112220,112996
112315,113032
112260,113013
112242,112962
112191,112946
112221,112988
112296,113028
112266,113022
112214,112983
112157,112969
112215,112986
112305,113026
112279,113020
112248,112999
112161,112960
112251,113001
112296,113035
112227,112991
112236,112986
112109,112946
112239,112970
112295,113006
112271,113000
112256,112995
112135,112957
112240,112998
112271,113032
112241,112977
112177,112968
112038,112894
112100,112913
112079,112911
112051,112909
111952,112842
111788,112793
111795,112810
111771,112798
111722,112788
111597,112680
111475,112617
111430,112633
111430,112671
111349,112632
111256,112507
111148,112478
111193,112502
111246,112523
111190,112532
111158,112490
111093,112490
111182,112499
111230,112556
111241,112561
111222,112543
111188,112511
111258,112593
111398,112653
111385,112626
111424,112638
111359,112598
111471,112668
111545,112684
111568,112691
111558,112729
111496,112646
111568,112713
111667,112773
111650,112781
111660,112745
111580,112732
111655,112738
111741,112811
111757,112808
111682,112811
111609,112715
111702,112804
111771,112852
111779,112809
111748,112809
111632,112716
111726,112784
111800,112823
111784,112804
111744,112771
111698,112736
111742,112792
111857,112848
111796,112814
111797,112816
111692,112765
111789,112806
111839,112853
111829,112823
111821,112814
111705,112781
111781,112810
111879,112871
111811,112834
111812,112804
111727,112773
111824,112829
111885,112846
111803,112819
111802,112835
111712,112780
111778,112810
111855,112841
111843,112836
111825,112821
111759,112795
111792,112816
111848,112822
111837,112823
111786,112818
111730,112766
111790,112789
111880,112863
111832,112806
111823,112821
111734,112768
111797,112811
111892,112851
111856,112828
111829,112831
111743,112789
111848,112825
111882,112887
111897,112858
111849,112866
111779,112789
111853,112841
111921,112866
111903,112893
111864,112853
111797,112814
111865,112868
111943,112864
111896,112823
111934,112852
111814,112804
111902,112858
111921,112885
111948,112888
111897,112876
111821,112836
111900,112840
111984,112905
111985,112891
111914,112873
111838,112835
111922,112868
111997,112915
111989,112892
111958,112867
111861,112831
111921,112853
112005,112907
112016,112882
112000,112889
111865,112833
111940,112856
112032,112933
112000,112897
111989,112890
111876,112829
111946,112853
112050,112911
111997,112905
111999,112872
111889,112852
111983,112874
112071,112960
112055,112925
112018,112911
111934,112810
112029,112899
112049,112941
112096,112922
112034,112908
111933,112841
112031,112887
112076,112916
112111,112920
112060,112900
111959,112852
112049,112899
112099,112946
112096,112910
112052,112928
111932,112824
112049,112902
112061,112942
112051,112928
112009,112876
111932,112869
111999,112862
112085,112928
112056,112886
112033,112879
111938,112845
112001,112860
112062,112953
112068,112902
112032,112874
111906,112851
112007,112868
112097,112926
112076,112890
112029,112890
111981,112845
112011,112884
112110,112914
112118,112933
112052,112922
111958,112819
112045,112896
112115,112951
112075,112893
112088,112886
111954,112852
112071,112879
112119,112931
112105,112934
112063,112888
112047,112872
112038,112884
112148,112908
112181,112905
112142,112903
111992,112848
112081,112883
112180,112954
112195,112907
112113,112922
112079,112834
112165,112898
112206,112964
112199,112901
112178,112907
112069,112834
112169,112915
112234,112974
112221,112932
112172,112898
112088,112859
112127,112902
112180,112931
112132,112900
112046,112843
111943,112816
111913,112809
111926,112805
111877,112789
111715,112712
111479,112571
111414,112550
111325,112559
111212,112496
111075,112387
110874,112300
110879,112315
110858,112292
110808,112261
110711,112250
110592,112168
110585,112188
110677,112255
110663,112234
110621,112198
110540,112157
110556,112184
110687,112231
110723,112256
110674,112247
110612,112205
110723,112252
110752,112303
110835,112334
110852,112309
110768,112270
110874,112339
110980,112381
111045,112451
111020,112401
111036,112398
111090,112446
111212,112488
111274,112514
111267,112524
111201,112470
111332,112529
111409,112593
111450,112580
111449,112581
111338,112515
111437,112545
111523,112647
111541,112621
111529,112626
111393,112551
111472,112568
111631,112690
111624,112661
111582,112641
111519,112592
111550,112645
111694,112685
111692,112667
111664,112676
111572,112596
111634,112666
111766,112709
111745,112745
111681,112667
111653,112659
111666,112694
111741,112674
111753,112731
111684,112665
111630,112633
111655,112637
111711,112667
111726,112715
111692,112637
111544,112619
111619,112667
111721,112693
111700,112696
111648,112631
111572,112628
111583,112642
111675,112653
111658,112677
111617,112624
111539,112603
111582,112617
111674,112647
111698,112691
111627,112645
111589,112595
111599,112651
111692,112676
111744,112716
111674,112653
111622,112640
111632,112659
111754,112704
111791,112711
111739,112713
111698,112633
111725,112712
111812,112730
111822,112780
111834,112702
111738,112665
111810,112707
111862,112757
111939,112761
111880,112753
111800,112716
111820,112694
111960,112786
111957,112797
111933,112734
111845,112724
111916,112750
111986,112785
112006,112810
111971,112802
111904,112731
111950,112770
112006,112817
112006,112795
111993,112771
111886,112731
111937,112762
112018,112792
112059,112808
112008,112798
111899,112732
111971,112778
112059,112806
112075,112796
112039,112789
111936,112727
112008,112775
112054,112800
112130,112847
112086,112795
111949,112764
112025,112804
112110,112839
112122,112856
112056,112822
111945,112778
111986,112782
112071,112848
112084,112819
112079,112834
111979,112767
112020,112810
112095,112850
112068,112811
112075,112811
111987,112745
112011,112797
112092,112841
112099,112809
112040,112797
112003,112744
112022,112825
112087,112824
112122,112832
112056,112780
111999,112762
112032,112789
112065,112814
112135,112832
112077,112839
112008,112787
112034,112798
112144,112851
112151,112863
112097,112807
112006,112763
112063,112813
112137,112820
112182,112876
112099,112791
112044,112796
112096,112788
112159,112840
112218,112860
112119,112803
112070,112791
112095,112809
112195,112881
112187,112859
112175,112828
112065,112782
112161,112835
112204,112873
112235,112868
112168,112865
112094,112796
112181,112823
112216,112879
112259,112856
112227,112847
112150,112804
112164,112842
112230,112846
112283,112893
112192,112865
112080,112785
112083,112774
112098,112809
112074,112821
111954,112722
111834,112691
111748,112640
111751,112648
111655,112607
111538,112534
111350,112433
111273,112399
111263,112435
111267,112400
111138,112339
111022,112260
111003,112301
111064,112297
111074,112307
110997,112283
110881,112237
110940,112276
111046,112347
111105,112340
111050,112335
111041,112313
111072,112331
111223,112418
111277,112441
111289,112433
111257,112436
111314,112454
111448,112516
111530,112564
111509,112519
111468,112504
111499,112528
111603,112589
111655,112602
111669,112609
111583,112540
111623,112565
111724,112615
111782,112636
111731,112648
111625,112558
111682,112592
111737,112643
111810,112666
111768,112644
111700,112585
111715,112619
111834,112672
111867,112681
111809,112678
111769,112634
111761,112640
111847,112686
111942,112726
111866,112695
111807,112646
111847,112665
111907,112711
111944,112719
111931,112693
111822,112630
111843,112668
111940,112713
111971,112724
111892,112697
111809,112650
111838,112656
111894,112703
111916,112715
111908,112680
111780,112637
111802,112629
111877,112678
111882,112704
111828,112657
111774,112610
111764,112654
111822,112681
111880,112669
111856,112666
111748,112623
111777,112630
111859,112668
111884,112707
111824,112672
111747,112628
111759,112608
111872,112690
111895,112735
111862,112667
111800,112640
111829,112673
111916,112695
111947,112713
111961,112707
111856,112641
111874,112654
111980,112691
112017,112710
111972,112672
111901,112663
111921,112643
112008,112710
112060,112763
112022,112694
111956,112660
111983,112686
112072,112740
112090,112726
112072,112728
111984,112700
112008,112696
112090,112723
112146,112764
112083,112750
112005,112702
111994,112738
112094,112757
112151,112776
112082,112761
112001,112680
112043,112713
112145,112759
112140,112777
112107,112753
112016,112692
112046,112706
112150,112745
112193,112764
112111,112727
112071,112691
112080,112738
112139,112757
112167,112772
112179,112761
112089,112706
112109,112720
112182,112785
112250,112799
112191,112763
112103,112716
112129,112708
112197,112800
112222,112767
112197,112771
112124,112726
112117,112734
112199,112768
112242,112800
112175,112762
112135,112727
112130,112714
112228,112779
112253,112824
112224,112740
112166,112748
112113,112740
112208,112789
112255,112794
112211,112781
112122,112719
112176,112746
112267,112827
112286,112780
112217,112758
112180,112701
112196,112752
112277,112794
112299,112786
112276,112805
112205,112736
112217,112742
112335,112807
112312,112806
112298,112765
112241,112746
112250,112793
112312,112842
112342,112814
112316,112797
112269,112773
112247,112757
112332,112828
112388,112837
112306,112822
112263,112746
112293,112816
112366,112809
112386,112813
112367,112822
112316,112776
112306,112775
112422,112840
112453,112866
112415,112838
112367,112787
112325,112804
112420,112834
112470,112852
112475,112862
112394,112813
112380,112786
112499,112847
112523,112894
112465,112809
112398,112801
112396,112823
112440,112827
112488,112856
112395,112814
112294,112770
112234,112761
112292,112770
112253,112777
112169,112724
112041,112648
111962,112654
111996,112634
111975,112648
111864,112596
111704,112523
111660,112486
111698,112522
111680,112526
111580,112462
111468,112384
111484,112426
111520,112438
111578,112452
111497,112418
111451,112404
111468,112407
111569,112477
111632,112528
111637,112475
111580,112461
111602,112492
111728,112542
111751,112557
111773,112548
111731,112515
111714,112514
111853,112609
111908,112648
111848,112586
111835,112559
111811,112560
111939,112600
111974,112652
111959,112650
111923,112595
111893,112585
111963,112650
112046,112678
111992,112643
111889,112600
111921,112624
111996,112678
112052,112700
111998,112673
111930,112608
111943,112635
111990,112674
112073,112685
112038,112668
111933,112640
111958,112621
112050,112661
112107,112717
112042,112675
111998,112636
111993,112628
112050,112668
112143,112700
112087,112668
112021,112639
111994,112618
112079,112691
112102,112725
112086,112702
111974,112639
111969,112611
112087,112692
112120,112707
112015,112663
111962,112641
111956,112634
112025,112628
112056,112695
112025,112670
111981,112634
111924,112608
112022,112659
112086,112677
112035,112649
111929,112607
111977,112634
112041,112661
112122,112665
112079,112673
111983,112633
112007,112637
112091,112686
112144,112714
112100,112686
112040,112663
112034,112635
112159,112698
112203,112730
112159,112705
112095,112666
112068,112661
112194,112711
112231,112738
112219,112711
112121,112706
112122,112667
112216,112730
112248,112753
112232,112726
112157,112710
112167,112710
112243,112743
112281,112764
112220,112716
112152,112695
112150,112677
112296,112736
112278,112777
112257,112747
112152,112698
112159,112716
112230,112729
112342,112761
112279,112759
112188,112710
112169,112701
112268,112750
112306,112787
112268,112733
112212,112727
112166,112682
112293,112766
112340,112751
112261,112742
112216,112714
112166,112673
112237,112729
112315,112774
112266,112721
112217,112701
112184,112689
112251,112712
112308,112781
112238,112752
112235,112702
112161,112711
112259,112728
112333,112759
112266,112750
112192,112689
112166,112688
112270,112726
112291,112775
112269,112725
112186,112696
112173,112704
112240,112714
112330,112789
112262,112731
112201,112694
112168,112690
112295,112734
112310,112762
112260,112721
112192,112700
112150,112648
112263,112742
112323,112756
112253,112718
112198,112655
112144,112688
112217,112686
112337,112756
112241,112712
112181,112708
112174,112686
112290,112719
112288,112780
112293,112736
112219,112694
112168,112663
112278,112707
112340,112793
112271,112726
112252,112681
112191,112659
112292,112723
112367,112742
112352,112734
112252,112707
112224,112684
112330,112747
112360,112760
112337,112731
112272,112687
112249,112666
112345,112708
112397,112781
112371,112747
112309,112708
112253,112679
112333,112719
112425,112787
112373,112728
112326,112685
112320,112703
112390,112753
112485,112761
112432,112764
112360,112725
112347,112700
112416,112768
112509,112795
112428,112766
112379,112736
112369,112745
112469,112789
112499,112802
112451,112766
112415,112762
112344,112731
112415,112758
112470,112778
112374,112744
112230,112654
112179,112644
112174,112670
112159,112659
112006,112594
111824,112460
111673,112457
111593,112382
111511,112360
111348,112253
111154,112173
111046,112129
111019,112102
111029,112134
110961,112058
110866,112051
110796,112016
110877,112050
110964,112092
110891,112072
110854,112026
110831,112029
110963,112104
111021,112144
111043,112135
110990,112141
111002,112149
111100,112187
111218,112237
111221,112239
111204,112179
111196,112215
111298,112302
111391,112335
111405,112301
111383,112295
111354,112301
111463,112333
111576,112380
111498,112378
111504,112360
111456,112303
111589,112389
111647,112480
111609,112407
111577,112380
111563,112390
111611,112431
111722,112483
111665,112439
111604,112420
111581,112405
111695,112467
111768,112501
111705,112458
111645,112424
111635,112396
111749,112492
111768,112518
111737,112486
111731,112439
111680,112424
111744,112477
111832,112499
111816,112506
111725,112450
111697,112429
111762,112480
111829,112520
111768,112482
111692,112427
111629,112397
111706,112452
111746,112469
111716,112441
111652,112396
111613,112370
111632,112441
111715,112455
111694,112443
111630,112390
111579,112363
111665,112415
111720,112462
111659,112449
111637,112399
111612,112369
111706,112449
111750,112492
111695,112423
111689,112419
111604,112392
111695,112449
111799,112477
111775,112487
111715,112411
111707,112437
111800,112507
111873,112534
111857,112497
111842,112501
111797,112458
111918,112505
111977,112589
111933,112545
111902,112525
111861,112491
111969,112564
112034,112580
111997,112584
111987,112542
111916,112525
111991,112540
112090,112618
112014,112579
112006,112550
111936,112528
112019,112611
112082,112619
112082,112567
112028,112577
111964,112512
112090,112582
112127,112617
112081,112622
112077,112563
112012,112567
112091,112580
112171,112645
112153,112600
112067,112563
112041,112544
112132,112593
112200,112634
112184,112633
112128,112610
112051,112580
112167,112640
112205,112647
112199,112633
112133,112620
112083,112573
112199,112630
112305,112673
112245,112644
112199,112601
112154,112601
112253,112645
112306,112684
112266,112637
112238,112646
112168,112582
112303,112673
112328,112679
112327,112701
112257,112659
112199,112616
112296,112667
112382,112718
112319,112707
112272,112648
112177,112638
112305,112654
112369,112694
112335,112701
112262,112636
112238,112631
112321,112670
112343,112706
112289,112657
112259,112655
112188,112609
112286,112666
112346,112675
112319,112651
112276,112633
112163,112607
112267,112652
112346,112667
112322,112626
112269,112633
112217,112585
112339,112641
112404,112694
112346,112650
112319,112630
112243,112614
112334,112638
112404,112687
112410,112669
112331,112658
112263,112610
112383,112673
112462,112702
112418,112695
112382,112665
112303,112647
112401,112657
112491,112739
112410,112688
112392,112669
112335,112646
112434,112655
112507,112739
112451,112698
112443,112672
112363,112642
112460,112696
112496,112726
112484,112692
112431,112654
112360,112661
112459,112704
112487,112711
112466,112698
112381,112659
112264,112570
112304,112622
112313,112635
112266,112615
112138,112567
112001,112482
112067,112521
112066,112527
111941,112472
111821,112377
111671,112350
111681,112336
111674,112346
111575,112293
111467,112266
111333,112209
111414,112214
111454,112272
111385,112241
111366,112241
111338,112193
111406,112251
111540,112326
111522,112296
111534,112314
111499,112299
111648,112376
111730,112399
111750,112412
111754,112410
111740,112414
111854,112461
111950,112503
111899,112495
111918,112506
111869,112486
111977,112533
112042,112559
112054,112558
111998,112523
111950,112510
112060,112531
112136,112590
112087,112541
112054,112560
111988,112524
112062,112562
112134,112583
112114,112584
112058,112547
111965,112548
112083,112574
112149,112613
112122,112565
112063,112532
112002,112534
112112,112559
112171,112609
112149,112573
112116,112596
112046,112532
112122,112564
112190,112643
112165,112573
112121,112554
112075,112502
112162,112592
112232,112597
112165,112619
112098,112573
112055,112545
112133,112591
112190,112606
112141,112585
112113,112557
111973,112495
112087,112571
112127,112581
112075,112579
112067,112533
111993,112519
112068,112554
112144,112591
112066,112555
112033,112523
112013,112515
112070,112535
112167,112586
112151,112597
112046,112556
112001,112516
112106,112552
112195,112586
112191,112602
112131,112561
112067,112563
112187,112582
112233,112625
112221,112596
112202,112572
112129,112552
112205,112622
112280,112651
112239,112644
112223,112602
112147,112556
112245,112632
112296,112655
112293,112622
112243,112631
112191,112575
112297,112621
112363,112693
112314,112629
112278,112629
112226,112606
112282,112618
112348,112657
112357,112655
112301,112642
112195,112583
112333,112649
112404,112674
112357,112672
112317,112634
112259,112590
112322,112655
112395,112655
112406,112695
112331,112653
112261,112593
112334,112638
112408,112683
112373,112657
112350,112636
112235,112614
112339,112633
112457,112706
112402,112657
112351,112643
112274,112616
112347,112653
112433,112677
112396,112688
112364,112660
112301,112621
112355,112669
112478,112728
112415,112672
112400,112658
112308,112620
112373,112655
112468,112727
112437,112690
112400,112678
112302,112590
112389,112662
112468,112711
112431,112714
112397,112657
112296,112612
112381,112665
112461,112716
112463,112658
112421,112678
112322,112652
112392,112664
112460,112722
112453,112705
112399,112672
112326,112599
112412,112681
112442,112713
112449,112698
112406,112655
112308,112615
112386,112665
112503,112708
112416,112677
112413,112644
112307,112614
112388,112619
112430,112681
112418,112680
112374,112638
112304,112579
112383,112652
112436,112648
112415,112638
112382,112623
112279,112601
112399,112620
112468,112681
112427,112624
112438,112651
112343,112607
112423,112638
112465,112671
112485,112665
112469,112623
112349,112616
112472,112635
112545,112704
112496,112678
112492,112665
112421,112633
112508,112656
112562,112738
112521,112669
112523,112672
112419,112619
112509,112688
112587,112677
112574,112698
112506,112698
112424,112617
112540,112692
112609,112741
112533,112711
112551,112697
112450,112654
112523,112695
112623,112765
112616,112704
112570,112709
112485,112669
112529,112717
112610,112738
112545,112725
112518,112677
112362,112598
112431,112631
112461,112694
112324,112618
112282,112570
112092,112489
112054,112506
112036,112480
111948,112444
111739,112328
111548,112225
111496,112246
111486,112236
111398,112173
111320,112110
111154,112072
111175,112079
111235,112097
111189,112082
111153,112064
111105,112050
111173,112038
111231,112112
111250,112120
111229,112090
111186,112091
111279,112128
111431,112226
111431,112212
111440,112220
111413,112225
111514,112248
111637,112314
111663,112335
111674,112321
111609,112296
111738,112370
111846,112409
111850,112433
111861,112394
111771,112363
111894,112433
111968,112463
111954,112499
111944,112442
111880,112432
111956,112489
112042,112517
112015,112502
111968,112467
111903,112407
111981,112496
112056,112500
112007,112477
111993,112471
111910,112426
111962,112478
112029,112506
111993,112485
111994,112480
111895,112430
111983,112458
112071,112537
112027,112480
112012,112473
111922,112466
111990,112491
112087,112515
112013,112483
111968,112458
111904,112440
111968,112451
112030,112471
112015,112482
111933,112467
111832,112357
111912,112434
111976,112469
111949,112460
111861,112418
111805,112372
111867,112424
111934,112443
111922,112425
111891,112410
111803,112340
111892,112384
111972,112453
111965,112407
111959,112418
111875,112368
111998,112427
112034,112447
112074,112481
112062,112454
111943,112431
112046,112478
112146,112501
112127,112511
112096,112484
112031,112449
112125,112486
112193,112529
112181,112532
112171,112500
112056,112479
112185,112515
112197,112535
112249,112532
112217,112524
112107,112480
112194,112492
112275,112552
112268,112574
112232,112530
112131,112489
112248,112523
112269,112570
112304,112570
112256,112543
112135,112511
112227,112543
112333,112574
112296,112550
112282,112557
112160,112475
112268,112567
112329,112546
112332,112575
112268,112561
112201,112492
112278,112568
112341,112589
112313,112561
112333,112550
112161,112503
112299,112562
112362,112563
112358,112569
112324,112527
112242,112511
112281,112557
112358,112570
112389,112568
112320,112561
112255,112512
112328,112558
112382,112555
112416,112584
112353,112555
112229,112520
112372,112575
112387,112611
112381,112575
112366,112572
112227,112504
112362,112548
112420,112603
112391,112555
112371,112562
112247,112475
112372,112579
112423,112580
112386,112587
112388,112555
112265,112509
112340,112546
112399,112580
112434,112575
112348,112566
112270,112500
112354,112547
112400,112618
112372,112591
112367,112567
112252,112535
112336,112516
112459,112591
112434,112580
112341,112568
112291,112480
112380,112544
112411,112576
112413,112564
112403,112567
112318,112518
112376,112547
112434,112595
112442,112579
112427,112591
112317,112507
112415,112532
112465,112601
112462,112576
112427,112580
112321,112508
112397,112533
112494,112619
112498,112598
112468,112550
112345,112543
112422,112551
112533,112602
112519,112621
112487,112588
112365,112549
112431,112547
112549,112631
112564,112613
112506,112613
112417,112530
112490,112570
112580,112641
112573,112604
112532,112595
112428,112546
112511,112579
112604,112643
112559,112610
112553,112600
112436,112544
112506,112572
112574,112617
112584,112606
112499,112567
112399,112533
112405,112540
112436,112551
112380,112545
112316,112506
112171,112411
112155,112438
112199,112457
112092,112407
111934,112344
111788,112272
111779,112231
111776,112235
111608,112173
111568,112136
111391,112077
111404,112089
111496,112117
111430,112088
111356,112080
111287,112049
111340,112057
111447,112102
111451,112137
111457,112113
111393,112082
111473,112120
111570,112147
111664,112219
111626,112216
111553,112174
111636,112205
111765,112262
111811,112296
111819,112259
111721,112248
111833,112294
111889,112345
111957,112363
111910,112313
111838,112263
111889,112292
112011,112391
112000,112384
111979,112382
111865,112290
111961,112351
112045,112414
112033,112408
111991,112382
111891,112316
111982,112337
112057,112420
112056,112385
112043,112390
111920,112298
112015,112353
112049,112375
112136,112426
112075,112366
112025,112350
112072,112372
112140,112430
112196,112411
112155,112421
112072,112337
112144,112379
112232,112463
112216,112414
112174,112391
112083,112374
112122,112394
112226,112417
112190,112415
112157,112412
112086,112338
112105,112394
112192,112395
112122,112408
112078,112367
112005,112327
112044,112359
112141,112410
112110,112365
112054,112379
111954,112346
112069,112371
112131,112393
112067,112371
112092,112364
111981,112311
112056,112346
112113,112412
112106,112363
112102,112388
112008,112313
112079,112345
112144,112401
112181,112408
112128,112394
112090,112332
112105,112405
112185,112391
112250,112430
112199,112391
112129,112386
112141,112368
112256,112436
112253,112445
112240,112418
112134,112351
112199,112414
112278,112441
112253,112428
112266,112458
112189,112378
112209,112411
112307,112471
112317,112453
112284,112431
112223,112382
112243,112420
112346,112448
112373,112481
112313,112443
112242,112392
112282,112437
112369,112498
112397,112478
112347,112479
112255,112387
112336,112435
112422,112514
112409,112494
112398,112502
112291,112429
112362,112449
112412,112520
112449,112502
112433,112500
112328,112455
112380,112468
112474,112510
112475,112524
112417,112500
112349,112433
112380,112468
112461,112511
112475,112518
112427,112491
112362,112418
112425,112472
112502,112520
112463,112519
112470,112490
112390,112459
112434,112463
112484,112514
112529,112532
112487,112502
112431,112455
112423,112443
112547,112535
112528,112498
112505,112483
112402,112472
112436,112455
112527,112534
112559,112521
112509,112516
112430,112454
112480,112488
112546,112548
112541,112553
112540,112517
112436,112431
112467,112493
112557,112528
112572,112552
112508,112493
112463,112442
112474,112464
112554,112531
112589,112520
112515,112541
112439,112461
112502,112510
112566,112535
112598,112543
112557,112542
112455,112478
112530,112522
112601,112527
112597,112524
112544,112529
112490,112463
112535,112490
112621,112542
112642,112565
112611,112530
112532,112485
112566,112520
112652,112567
112655,112561
112613,112525
112511,112472
112536,112497
112630,112547
112674,112579
112619,112542
112541,112486
112558,112523
112658,112554
112638,112570
112626,112549
112491,112496
112561,112500
112638,112523
112661,112582
112638,112529
112522,112501
112564,112498
112653,112569
112663,112587
112628,112556
112511,112497
112582,112520
112628,112570
112652,112565
112559,112514
112452,112467
112425,112495
112480,112488
112479,112504
112390,112428
112215,112348
112208,112368
112189,112408
112159,112349
112000,112282
111863,112220
111826,112192
111836,112214
111741,112191
111627,112109
111500,112042
111442,112052
111498,112046
111513,112045
111488,112024
111356,112012
111388,111979
111499,112062
111499,112086
111504,112058
111459,112049
111519,112059
111634,112146
111682,112180
111653,112165
111615,112130
111720,112192
111796,112219
111866,112243
111861,112225
111845,112209
111857,112243
111991,112302
112032,112323
112033,112316
111940,112253
112030,112327
112075,112352
112105,112367
112112,112353
112000,112308
112015,112304
112100,112359
112183,112381
112095,112365
112002,112290
112070,112345
112092,112393
112147,112357
112104,112364
112001,112315
112058,112331
112120,112370
112167,112387
112113,112344
112050,112318
112055,112352
112191,112393
112178,112410
112140,112392
112091,112329
112107,112369
112192,112410
112229,112397
112168,112393
112081,112344
112139,112359
112204,112407
112213,112389
112186,112402
112078,112327
112077,112372
112128,112393
112190,112390
112142,112366
111998,112301
112054,112326
112109,112377
112096,112364
112099,112320
111933,112282
111999,112290
112038,112346
112070,112328
112011,112299
111926,112256
111938,112277
112027,112302
112057,112359
111996,112309
111914,112281
111958,112294
112036,112315
112112,112335
112053,112314
111996,112269
111999,112327
112108,112364
112154,112387
112090,112367
112016,112274
112074,112326
112177,112374
112236,112402
112161,112371
112061,112339
112110,112341
112165,112394
112229,112408
112177,112369
112155,112346
112153,112383
112236,112406
112275,112418
112235,112400
112162,112344
112189,112357
112292,112429
112332,112430
112266,112406
112219,112396
112246,112386
112321,112431
112366,112468
112333,112439
112220,112393
112296,112384
112388,112478
112420,112458
112356,112438
112291,112387
112329,112420
112416,112488
112422,112476
112383,112479
112313,112421
112320,112445
112459,112460
112457,112504
112405,112470
112337,112434
112357,112432
112457,112489
112496,112520
112434,112463
112324,112416
112378,112439
112432,112478
112461,112479
112413,112456
112319,112404
112378,112441
112442,112461
112451,112477
112395,112461
112333,112408
112355,112459
112421,112463
112460,112515
112423,112483
112325,112415
112368,112442
112460,112479
112441,112454
112411,112474
112332,112400
112361,112434
112475,112478
112456,112489
112428,112438
112367,112418
112345,112428
112469,112473
112464,112512
112441,112463
112333,112406
112348,112452
112428,112451
112497,112526
112422,112459
112368,112407
112368,112453
112475,112496
112484,112507
112450,112473
112381,112429
112386,112456
112438,112476
112528,112500
112472,112468
112389,112431
112381,112456
112453,112467
112524,112524
112462,112489
112402,112426
112429,112435
112510,112493
112535,112484
112532,112464
112451,112446
112421,112454
112558,112492
112552,112489
112553,112464
112433,112434
112493,112473
112599,112501
112594,112528
112565,112489
112479,112449
112503,112487
112599,112505
112647,112542
112613,112521
112518,112471
112518,112478
112627,112513
112696,112538
112630,112498
112588,112467
112589,112468
112628,112519
112671,112541
112632,112527
112546,112452
112522,112461
112570,112525
112571,112493
112492,112457
112368,112386
112348,112389
112349,112396
112331,112417
112223,112339
112089,112272
112026,112249
112011,112242
112016,112251
111882,112155
111763,112110
111702,112082
111695,112111
111725,112130
111626,112044
111549,112026
111544,112031
111610,112058
111642,112074
111608,112048
111570,112019
111581,112071
111710,112140
111773,112170
111737,112143
111702,112108
111729,112114
111857,112194
111909,112235
111912,112217
111876,112193
111882,112185
111980,112271
112072,112316
112039,112243
111973,112237
111985,112264
112128,112311
112179,112317
112152,112319
112069,112288
112077,112274
112181,112314
112230,112381
112209,112340
112169,112322
112129,112338
112213,112330
112271,112386
112271,112347
112173,112314
112176,112333
112270,112380
112313,112378
112265,112369
112202,112304
112205,112312
112255,112377
112324,112396
112279,112372
112226,112327
112236,112345
112270,112392
112338,112405
112289,112357
112242,112308
112204,112328
112273,112360
112321,112388
112313,112359
112210,112284
112202,112327
112260,112381
112300,112387
112246,112354
112193,112300
112139,112301
112252,112363
112284,112380
112222,112361
112144,112300
112134,112296
112228,112335
112252,112375
112211,112359
112151,112300
112156,112300
112218,112367
112318,112380
112266,112352
112233,112329
112189,112320
112285,112343
112329,112409
112316,112365
112255,112316
112275,112358
112355,112399
112417,112425
112370,112399
112293,112348
112313,112371
112415,112425
112441,112413
112424,112408
112351,112368
112342,112399
112435,112419
112478,112455
112439,112426
112395,112388
112373,112395
112495,112449
112508,112443
112476,112451
112423,112419
112368,112390
112522,112450
112540,112464
112493,112465
112417,112392
112405,112412
112519,112478
112545,112442
112521,112449
112395,112417
112424,112406
112507,112462
112510,112462
112526,112476
112435,112421
112396,112414
112547,112477
112536,112462
112508,112462
112453,112425
112414,112430
112503,112436
112565,112495
112474,112442
112430,112412
112435,112416
112501,112441
112562,112482
112478,112427
112427,112400
112400,112399
112512,112431
112556,112457
112533,112462
112452,112436
112408,112402
112474,112426
112562,112450
112540,112446
112443,112425
112431,112393
112498,112464
112549,112481
112520,112448
112465,112419
112420,112400
112556,112434
112588,112480
112547,112459
112496,112413
112458,112426
112545,112439
112610,112490
112522,112444
112511,112411
112475,112417
112574,112461
112602,112467
112539,112454
112509,112434
112471,112404
112581,112445
112642,112480
112565,112461
112526,112414
112535,112429
112560,112474
112622,112490
112594,112458
112525,112435
112532,112414
112623,112479
112700,112506
112633,112479
112589,112451
112606,112447
112639,112469
112729,112516
112647,112521
112594,112456
112580,112444
112666,112514
112750,112503
112662,112488
112622,112473
112589,112464
112708,112508
112751,112543
112724,112525
112614,112458
112609,112459
112689,112524
112733,112524
112701,112481
112635,112461
112624,112453
112697,112496
112723,112534
112703,112500
112586,112462
112564,112416
112662,112477
112650,112482
112594,112458
112480,112393
112409,112351
112432,112415
112460,112396
112309,112331
112201,112265
112090,112237
112081,112232
112054,112215
111926,112166
111761,112051
111665,112017
111651,112022
111681,112055
111551,112000
111432,111920
111376,111914
111472,111947
111540,111969
111460,111968
111419,111902
111419,111940
111545,111984
111635,112026
111636,112024
111584,111993
111633,112012
111756,112096
111836,112144
111827,112134
111796,112134
111790,112126
111940,112193
111982,112215
111979,112199
111958,112176
111934,112193
112044,112221
112129,112247
112065,112240
112015,112229
112019,112225
112116,112266
112168,112277
112115,112295
112081,112236
112039,112250
112134,112278
112212,112300
112124,112271
112076,112230
112059,112219
112150,112292
112196,112289
112175,112296
112103,112228
112080,112224
112193,112293
112239,112349
112183,112281
112156,112246
112118,112258
112194,112283
112229,112308
112217,112288
112124,112279
112110,112233
112193,112327
112239,112294
112200,112298
112126,112254
112088,112251
112225,112288
112233,112329
112199,112271
112144,112236
112126,112250
112192,112302
112244,112338
112193,112287
112132,112278
112096,112254
112203,112305
112270,112330
112206,112307
112152,112286
112129,112275
112207,112321
112282,112321
112237,112310
112175,112304
112152,112253
112270,112351
112281,112348
112237,112318
112211,112278
112187,112313
112301,112310
112339,112351
112310,112338
112246,112319
112208,112297
112300,112372
112375,112361
112338,112350
112275,112334
112243,112310
112331,112372
112393,112368
112357,112358
112293,112354
112266,112308
112352,112362
112370,112372
112371,112362
112311,112357
112273,112299
112399,112376
112446,112417
112381,112354
112319,112332
112308,112330
112384,112337
112446,112372
112414,112369
112340,112303
112346,112321
112414,112366
112455,112397
112429,112362
112376,112328
112316,112349
112409,112367
112480,112403
112427,112388
112375,112343
112364,112331
112448,112401
112496,112435
112453,112405
112385,112336
112346,112345
112452,112374
112511,112398
112460,112389
112419,112362
112338,112371
112440,112407
112502,112444
112483,112401
112388,112345
112394,112362
112456,112400
112457,112415
112494,112424
112426,112377
112370,112365
112455,112388
112526,112430
112474,112407
112427,112367
112413,112345
112516,112423
112546,112473
112518,112401
112473,112366
112395,112369
112530,112437
112563,112458
112517,112417
112479,112383
112460,112377
112537,112434
112585,112464
112539,112428
112492,112400
112427,112391
112538,112431
112597,112445
112542,112425
112471,112396
112429,112368
112544,112424
112601,112471
112539,112445
112491,112393
112468,112402
112530,112420
112598,112455
112589,112425
112461,112400
112444,112360
112563,112406
112631,112460
112562,112424
112529,112386
112492,112404
112585,112446
112648,112464
112593,112448
112574,112408
112559,112395
112626,112448
112684,112468
112634,112440
112610,112430
112545,112402
112675,112481
112719,112491
112651,112450
112637,112419
112577,112418
112683,112445
112729,112496
112685,112477
112626,112421
112610,112409
112692,112473
112743,112519
112691,112483
112651,112432
112590,112432
112654,112445
112680,112469
112609,112445
112547,112383
112449,112343
112450,112362
112472,112375
112381,112336
112241,112269
112118,112232
112168,112215
112159,112256
112045,112185
111945,112122
111864,112079
111916,112121
111867,112149
111823,112084
111720,112032
111685,112047
111773,112081
111802,112087
111814,112116
111767,112076
111730,112071
111853,112124
111914,112160
111882,112120
111912,112116
111862,112140
111940,112179
112020,112237
112040,112193
111992,112160
111976,112166
112090,112217
112092,112275
112092,112236
112064,112197
112031,112204
112078,112214
112135,112251
112087,112243
112068,112211
112011,112181
112086,112248
112137,112237
112102,112231
112055,112180
111985,112168
112109,112241
112114,112253
112092,112258
112051,112199
111984,112171
112129,112228
112145,112269
112120,112230
112083,112209
112014,112198
112170,112277
112209,112259
112203,112274
112151,112247
112132,112227
112198,112295
112231,112294
112220,112304
112181,112238
112108,112255
112195,112264
112252,112311
112197,112257
112117,112261
112092,112225
112181,112270
112153,112312
112156,112257
112074,112217
112018,112215
112095,112236
112122,112245
112056,112223
112014,112173
111965,112167
112056,112233
112079,112231
112058,112203
111994,112189
111963,112177
112059,112242
112061,112215
112074,112228
112009,112191
111988,112174
112084,112259
112134,112218
112104,112240
112086,112243
112067,112251
112145,112281
112225,112284
112161,112307
112162,112277
112140,112258
112233,112346
112279,112317
112246,112323
112242,112286
112198,112284
112251,112303
112365,112398
112305,112331
112274,112327
112241,112289
112327,112344
112412,112406
112375,112347
112370,112346
112298,112314
112396,112382
112454,112401
112400,112375
112406,112367
112324,112319
112457,112401
112474,112448
112462,112395
112398,112373
112368,112329
112523,112424
112523,112436
112491,112405
112471,112413
112400,112377
112545,112436
112542,112490
112526,112457
112511,112421
112455,112416
112558,112449
112592,112477
112564,112436
112545,112438
112477,112417
112576,112426
112593,112495
112590,112459
112518,112451
112480,112419
112596,112483
112605,112490
112589,112487
112554,112451
112485,112410
112599,112473
112598,112474
112587,112488
112551,112454
112509,112425
112617,112493
112606,112525
112610,112493
112538,112460
112508,112466
112590,112470
112677,112530
112645,112502
112586,112485
112531,112448
112634,112507
112656,112521
112636,112486
112614,112452
112550,112477
112632,112492
112664,112539
112641,112497
112649,112512
112550,112448
112686,112514
112684,112515
112680,112522
112620,112468
112601,112475
112708,112512
112714,112570
112698,112502
112690,112524
112578,112472
112701,112528
112721,112520
112730,112522
112662,112525
112609,112466
112716,112542
112767,112553
112732,112540
112663,112516
112632,112463
112729,112526
112747,112582
112736,112521
112706,112553
112637,112471
112742,112535
112765,112574
112732,112545
112722,112528
112669,112502
112738,112564
112835,112578
112784,112588
112727,112488
112700,112523
112772,112539
112841,112599
112786,112554
112762,112526
112707,112459
112788,112550
112837,112580
112811,112528
112775,112541
112702,112489
112783,112547
112812,112563
112794,112543
112700,112515
112607,112444
112633,112465
112626,112482
112562,112436
112422,112384
112246,112299
112249,112306
112214,112278
112052,112200
111864,112147
111694,111998
111742,112038
111690,112046
111616,111985
111518,111957
111351,111877
111446,111905
111486,111973
111443,111906
111409,111918
111324,111903
111380,111920
111482,111939
111437,111940
111423,111904
111378,111898
111474,111969
111544,111998
111561,111985
111518,111987
111496,111953
111534,112018
111673,112042
111655,112048
111622,112044
111567,112020
111663,112049
111710,112065
111674,112068
111693,112046
111599,112033
111690,112087
111746,112115
111690,112104
111683,112048
111595,112049
111665,112049
111754,112124
111684,112066
111652,112048
111557,112034
111681,112053
111728,112120
111698,112083
111673,112052
111601,112025
111673,112117
111789,112110
111809,112139
111731,112122
111675,112072
111769,112098
111863,112131
111830,112152
111769,112120
111686,112036
111775,112102
111845,112175
111790,112147
111722,112117
111622,112024
111739,112078
111748,112094
111708,112080
111645,112060
111496,111993
111579,111998
111620,112063
111568,112018
111474,111979
111424,111918
111475,111994
111552,111983
111529,111992
111467,111945
111383,111900
111483,111987
111582,111994
111524,111994
111459,111948
111443,111945
111533,111995
111636,112070
111569,112042
111556,111983
111492,111985
111599,112016
111681,112091
111655,112062
111656,112030
111579,112039
111645,112045
111787,112129
111728,112116
111723,112079
111678,112079
111803,112153
111855,112160
111839,112137
111842,112149
111796,112130
111865,112155
111984,112214
111972,112227
111959,112173
111903,112159
111976,112215
112059,112239
112029,112237
111978,112180
111944,112173
112024,112226
112113,112250
112100,112259
112031,112259
111951,112175
112074,112253
112122,112255
112121,112255
112071,112252
112029,112226
112091,112265
112217,112308
112164,112280
112121,112291
112039,112237
112149,112264
112216,112346
112210,112290
112152,112288
112087,112253
112171,112271
112270,112367
112209,112333
112190,112289
112127,112243
112190,112322
112240,112327
112258,112317
112167,112325
112103,112265
112186,112305
112266,112342
112203,112322
112196,112298
112102,112229
112148,112297
112237,112347
112179,112306
112166,112307
112073,112233
112188,112270
112242,112323
112221,112308
112195,112274
112090,112247
112197,112298
112252,112331
112229,112308
112187,112283
112146,112269
112235,112314
112274,112331
112270,112324
112231,112314
112176,112288
112257,112327
112284,112340
112301,112351
112270,112313
112158,112289
112236,112317
112300,112387
112281,112333
112259,112319
112183,112277
112267,112324
112388,112362
112299,112344
112276,112347
112206,112280
112358,112363
112401,112398
112394,112366
112377,112371
112266,112316
112370,112357
112454,112389
112432,112407
112423,112374
112355,112352
112429,112356
112487,112452
112503,112415
112469,112374
112416,112359
112522,112434
112571,112441
112562,112454
112535,112408
112433,112371
112496,112428
112595,112498
112582,112442
112571,112447
112482,112396
112535,112412
112570,112465
112518,112440
112483,112385
112324,112341
112331,112315
112283,112334
112177,112263
112009,112176
111808,112034
111746,112060
111672,112004
111502,111925
111302,111843
111162,111746
111180,111763
111099,111742
111037,111715
110956,111653
110821,111585
110857,111628
110903,111661
110849,111610
110806,111599
110708,111554
110824,111618
110888,111669
110868,111608
110870,111648
110812,111608
110901,111656
111021,111711
110969,111703
111005,111678
110991,111659
111051,111737
111175,111814
111145,111796
111199,111786
111173,111776
111231,111821
111383,111920
111371,111896
111387,111889
111303,111856
111414,111896
111514,111986
111475,111941
111458,111923
111407,111892
111472,111936
111526,111980
111497,111961
111494,111936
111397,111872
111449,111933
111519,111974
111503,111949
111490,111947
111404,111911
111477,111953
111568,111992
111558,111988
111524,111956
111437,111929
111505,111975
111562,112027
111541,111983
111501,111954
111430,111915
111422,111903
111481,111955
111438,111971
111360,111866
111257,111823
111239,111860
111304,111883
111253,111813
111228,111795
111045,111750
111109,111748
111169,111791
111110,111782
111052,111729
110939,111668
111025,111721
111089,111754
111020,111725
110997,111695
110894,111671
110982,111701
111071,111764
111051,111740
111020,111711
110968,111663
111032,111721
111131,111797
111141,111798
111094,111764
111059,111739
111174,111794
111247,111860
111302,111849
111279,111843
111251,111830
111407,111908
111443,111949
111493,111963
111477,111958
111421,111915
111553,111998
111644,112034
111628,112005
111666,112031
111589,111975
111698,112046
111766,112089
111785,112063
111762,112072
111666,112030
111790,112071
111861,112130
111879,112139
111886,112110
111766,112057
111873,112123
111970,112164
111934,112133
111956,112152
111880,112114
111919,112148
112068,112190
112025,112174
112007,112170
111937,112112
112000,112171
112092,112237
112088,112232
112037,112201
111971,112145
112066,112184
112133,112237
112125,112234
112114,112204
111987,112145
112088,112209
112159,112247
112178,112249
112146,112215
112044,112191
112108,112225
112207,112257
112188,112237
112176,112256
112098,112201
112146,112220
112239,112291
112219,112268
112174,112250
112097,112226
112190,112231
112259,112301
112231,112248
112221,112252
112112,112206
112195,112243
112274,112286
112264,112264
112252,112275
112146,112201
112218,112268
112307,112286
112304,112303
112256,112267
112148,112202
112273,112283
112332,112302
112304,112297
112285,112286
112217,112256
112316,112277
112367,112318
112340,112294
112333,112291
112239,112237
112320,112289
112401,112322
112332,112303
112339,112297
112255,112241
112328,112306
112395,112332
112352,112289
112329,112302
112235,112205
112352,112270
112379,112342
112384,112297
112346,112281
112245,112226
112339,112290
112419,112324
112408,112288
112356,112299
112265,112241
112365,112283
112450,112343
112416,112278
112403,112315
112306,112253
112424,112286
112468,112313
112482,112319
112429,112306
112322,112242
112419,112317
112470,112338
112468,112323
112456,112309
112314,112265
112393,112319
112492,112347
112443,112335
112370,112294
112324,112242
112384,112314
112439,112312
112449,112310
112424,112296
112282,112272
112375,112276
112426,112321
112425,112316
112395,112289
112239,112239
112298,112249
112324,112289
112304,112251
112156,112185
111954,112067
111955,112058
111943,112079
111715,111952
111558,111871
111331,111773
111272,111754
111226,111707
111146,111692
111021,111625
110880,111522
110917,111583
110884,111569
110836,111536
110728,111499
110625,111455
110721,111461
110796,111536
110739,111520
110684,111487
110625,111420
110698,111485
110799,111533
110731,111504
110749,111507
110637,111455
110755,111496
110879,111590
110814,111524
110828,111578
110774,111487
110842,111573
110909,111598
111001,111622
110946,111595
110865,111578
110927,111595
111057,111642
111047,111692
110999,111651
110929,111578
111031,111628
111106,111681
111107,111708
111040,111672
110987,111633
111054,111670
111093,111715
111177,111713
111127,111688
110992,111652
111091,111706
111195,111694
111197,111752
111173,111730
111072,111702
111169,111728
111331,111778
111268,111800
111285,111796
111239,111749
111316,111797
111393,111844
111419,111829
111411,111829
111330,111786
111396,111827
111412,111827
111474,111883
111367,111830
111296,111753
111344,111818
111376,111835
111396,111799
111317,111794
111208,111710
111281,111749
111350,111794
111320,111791
111244,111744
111142,111687
111197,111714
111294,111764
111256,111739
111232,111749
111137,111704
111225,111711
111353,111778
111319,111756
111346,111757
111245,111738
111351,111770
111496,111853
111495,111843
111497,111850
111411,111794
111499,111855
111597,111910
111676,111944
111602,111913
111557,111868
111671,111946
111758,111987
111812,111992
111768,111990
111700,111933
111811,111967
111882,112043
111885,112055
111863,112035
111788,111974
111881,112015
111942,112089
111976,112058
111902,112053
111865,112041
111913,112048
112011,112108
112021,112089
112016,112067
111876,112050
111956,112059
112053,112102
112021,112112
111986,112087
111902,112016
111970,112038
112028,112101
112044,112136
111998,112102
111881,112030
111981,112072
112051,112089
112049,112101
112018,112057
111894,112058
111953,112056
112093,112114
112058,112084
112057,112114
111943,112031
112004,112096
112048,112112
112095,112139
112029,112110
111947,112077
112006,112096
112145,112152
112133,112140
112109,112145
112020,112096
112075,112145
112190,112169
112190,112178
112168,112169
112080,112092
112176,112169
112226,112199
112285,112199
112238,112190
112174,112130
112200,112163
112298,112221
112323,112217
112261,112199
112190,112150
112255,112180
112336,112224
112349,112190
112297,112205
112249,112168
112282,112203
112385,112221
112390,112242
112343,112207
112267,112159
112292,112213
112408,112259
112396,112245
112377,112208
112304,112167
112386,112240
112409,112272
112432,112299
112418,112238
112347,112197
112406,112228
112508,112287
112512,112285
112453,112253
112390,112206
112454,112267
112511,112273
112548,112306
112502,112287
112433,112220
112496,112279
112537,112318
112530,112316
112533,112283
112436,112219
112499,112276
112560,112308
112586,112315
112557,112281
112464,112260
112484,112254
112612,112323
112631,112320
112562,112300
112483,112224
112557,112283
112580,112309
112612,112303
112607,112298
112497,112265
112577,112280
112631,112343
112637,112347
112632,112297
112553,112272
112586,112277
112685,112355
112684,112346
112641,112336
112620,112294
112638,112314
112706,112337
112745,112340
112680,112341
112600,112240
112687,112318
112704,112367
112716,112358
112722,112323
112620,112298
112638,112313
112691,112350
112695,112348
112565,112293
112459,112218
112472,112250
112443,112243
112391,112212
112256,112168
112107,112069
111986,112030
111984,112046
111861,111963
111690,111892
111475,111755
111415,111739
111418,111784
111326,111720
111264,111646
111126,111618
111117,111615
111181,111637
111175,111644
111104,111608
111028,111547
111085,111601
111182,111628
111192,111663
111216,111673
111089,111611
111221,111641
111301,111742
111333,111738
111337,111749
111294,111703
111356,111721
111470,111838
111511,111842
111492,111812
111472,111777
111542,111852
111661,111904
111625,111897
111644,111896
111605,111835
111639,111886
111756,111941
111740,111947
111771,111946
111687,111891
111720,111942
111824,111976
111828,111990
111835,111997
111762,111914
111768,111925
111866,112038
111869,112033
111875,112002
111798,111937
111836,112005
111929,112035
111927,112055
111941,112008
111859,111962
111884,112008
111963,112044
111989,112044
111947,112059
111838,111954
111873,112023
111935,112011
111935,112024
111850,112025
111780,111950
111801,111964
111826,112021
111794,111965
111778,111921
111649,111874
111684,111913
111758,111931
111696,111937
111674,111874
111587,111834
111598,111865
111666,111910
111715,111894
111637,111879
111591,111817
111636,111904
111714,111917
111748,111925
111714,111907
111634,111873
111728,111907
111806,111982
111822,111979
111830,111949
111734,111897
111783,111971
111854,111960
111909,111994
111884,111983
111793,111948
111862,111980
111934,112032
111971,112055
111966,112000
111891,111989
111917,112029
112002,112075
112059,112062
112019,112065
111941,112006
111980,112018
112119,112098
112100,112076
112052,112037
112019,112022
112030,112053
112120,112072
112149,112062
112108,112061
112008,111997
112086,112066
112175,112093
112191,112091
112142,112062
112077,112045
112092,112027
112194,112125
112184,112069
112176,112096
112061,111992
112149,112034
112209,112110
112238,112111
112216,112085
112160,112021
112193,112069
112243,112113
112275,112102
112244,112068
112208,112028
112204,112081
112292,112095
112311,112101
112243,112092
112189,112028
112279,112080
112336,112120
112365,112124
112322,112076
112222,112046
112259,112037
112366,112120
112374,112095
112325,112069
112254,112018
112334,112059
112371,112105
112404,112125
112373,112068
112268,112048
112296,112067
112386,112108
112377,112103
112354,112101
112249,112021
112332,112069
112426,112107
112437,112138
112370,112098
112275,112026
112353,112086
112401,112115
112444,112111
112418,112100
112314,112076
112345,112054
112417,112149
112438,112146
112406,112120
112318,112049
112374,112068
112429,112115
112491,112157
112427,112116
112352,112072
112392,112091
112457,112128
112497,112129
112441,112093
112366,112069
112377,112108
112497,112124
112496,112155
112476,112087
112387,112089
112401,112078
112511,112139
112506,112120
112484,112161
112385,112057
112478,112125
112531,112141
112535,112142
112515,112153
112410,112073
112500,112092
112571,112151
112575,112165
112562,112135
112439,112063
112526,112128
112574,112141
112613,112170
112587,112165
112480,112066
112534,112123
112611,112147
112610,112170
112597,112167
112508,112098
112549,112125
112619,112157
112657,112176
112573,112138
112491,112083
112480,112132
112537,112127
112538,112131
112467,112075
112346,112034
112300,112042
112349,112041
112297,112027
112153,111972
112026,111902
111954,111887
111960,111904
111910,111865
111830,111793
111650,111733
111581,111667
111628,111718
111612,111702
111523,111653
111377,111605
111445,111626
111539,111684
111570,111700
111568,111681
111473,111656
111530,111703
111671,111746
111681,111779
111704,111773
111640,111722
111718,111768
111840,111830
111854,111845
111860,111823
111788,111795
111825,111855
111928,111884
111984,111938
111949,111877
111895,111848
111924,111852
112045,111938
112057,111928
112003,111888
111930,111867
112005,111905
112059,111962
112072,111917
112064,111924
111925,111883
112001,111909
112096,111931
112122,111965
112077,111916
111990,111870
112050,111896
112129,111944
112160,111965
112112,111922
112017,111880
112072,111925
112164,111972
112176,111965
112178,111958
112054,111892
112115,111916
112200,111983
112210,111951
112171,111938
112056,111875
112125,111946
112162,111966
112233,111983
112126,111947
112009,111849
112072,111935
112101,111947
112155,111937
112099,111924
111978,111888
111998,111867
112094,111920
112103,111947
112048,111896
111969,111850
111975,111888
112045,111904
112098,111948
112080,111907
111971,111859
112028,111896
112112,111942
112118,111950
112110,111947
112041,111875
112051,111891
112175,111978
112194,111946
112121,111940
112072,111902
112115,111956
112233,111966
112235,112019
112218,111994
112159,111933
112182,111963
112280,112018
112325,112015
112265,112008
112209,111941
112244,111987
112331,112050
112350,112027
112311,112042
112234,111969
112268,112001
112364,112021
112446,112061
112374,112027
112292,111997
112347,112010
112388,112061
112441,112067
112403,112037
112365,112004
112353,111991
112485,112062
112466,112095
112432,112053
112342,111988
112379,112048
112485,112081
112486,112091
112478,112066
112393,112011
112388,112065
112451,112060
112541,112114
112465,112054
112390,112021
112413,112030
112494,112087
112553,112076
112483,112090
112379,112040
112415,112013
112495,112106
112528,112102
112473,112064
112438,112072
112457,112049
112524,112103
112544,112099
112527,112081
112457,112051
112448,112033
112514,112133
112576,112097
112553,112121
112430,112064
112467,112052
112561,112089
112572,112088
112524,112099
112440,112034
112440,112090
112519,112101
112597,112118
112537,112092
112406,112031
112472,112080
112539,112095
112565,112153
112523,112065
112444,112030
112466,112080
112562,112097
112598,112138
112530,112057
112491,112055
112484,112067
112555,112109
112569,112115
112563,112109
112467,112028
112470,112096
112599,112132
112581,112125
112556,112103
112527,112068
112471,112072
112585,112105
112623,112118
112559,112112
112515,112084
112485,112091
112577,112121
112653,112163
112605,112134
112505,112081
112550,112103
112618,112148
112681,112139
112611,112162
112555,112068
112556,112102
112641,112156
112727,112160
112632,112138
112599,112094
112605,112134
112669,112163
112741,112177
112697,112146
112615,112123
112610,112137
112739,112185
112731,112184
112708,112166
112642,112115
112655,112126
112740,112196
112777,112197
112720,112169
112664,112148
112674,112155
112759,112187
112765,112215
112735,112178
112679,112133
112651,112144
112753,112169
112760,112210
112708,112159
112622,112103
112607,112087
112670,112143
112645,112159
112561,112104
112487,112030
112372,112049
112410,112034
112374,112050
112260,111953
112065,111894
111999,111854
111990,111858
111970,111853
111831,111766
111678,111686
111585,111679
111610,111674
111632,111666
111578,111640
111519,111581
111451,111608
111544,111658
111614,111661
111582,111675
111533,111623
111591,111651
111683,111728
111764,111741
111780,111768
111737,111748
111762,111797
111875,111804
111971,111870
111933,111857
111930,111829
111939,111888
112023,111892
112168,111964
112108,111945
112053,111879
112100,111947
112175,111959
112247,112017
112202,111971
112154,111957
112142,111959
112270,112035
112303,112013
112273,112004
112204,111965
112203,111964
112342,112034
112340,112036
112311,112014
112265,111943
112236,112008
112308,112034
112356,112045
112318,112021
112278,111997
112271,111990
112347,112034
112409,112050
112352,112032
112295,111993
112287,112007
112311,112057
112395,112066
112340,112045
112284,111978
112290,111987
112372,112027
112360,112070
112353,112021
112277,111984
112270,112005
112335,112028
112356,112072
112311,112028
112259,111993
112216,111970
112280,112015
112318,112049
112254,112008
112168,111987
112154,111944
112279,111997
112255,112068
112236,111974
112151,111930
112145,111941
112232,112005
112228,112015
112235,111980
112153,111924
112188,111952
112244,112021
112302,112028
112267,112028
112197,111939
112214,111964
112320,112072
112344,112040
112322,112038
112281,111982
112288,112021
112367,112046
112397,112098
112389,112057
112305,112000
112351,112050
112417,112116
112482,112125
112448,112105
112418,112050
112409,112053
112539,112142
112561,112134
112510,112122
112470,112062
112470,112089
112574,112148
112586,112154
112555,112123
112485,112097
112522,112110
112571,112186
112601,112168
112565,112106
112523,112108
112491,112092
112582,112160
112606,112164
112573,112135
112505,112105
112526,112103
112614,112165
112635,112163
112603,112127
112521,112084
112538,112138
112576,112138
112653,112176
112610,112125
112509,112095
112527,112104
112643,112181
112651,112151
112611,112163
112560,112093
112568,112093
112604,112169
112670,112157
112616,112150
112541,112121
112535,112096
112593,112155
112619,112173
112602,112137
112523,112123
112476,112109
112557,112123
112621,112190
112560,112110
112524,112093
112483,112115
112564,112103
112642,112176
112589,112120
112490,112089
112506,112091
112578,112157
112591,112189
112548,112120
112491,112082
112504,112081
112606,112127
112630,112162
112611,112133
112504,112095
112493,112085
112599,112103
112667,112180
112588,112148
112537,112095
112534,112097
112605,112109
112671,112161
112618,112153
112541,112070
112519,112094
112625,112124
112664,112165
112631,112127
112542,112098
112569,112096
112654,112134
112680,112157
112618,112150
112572,112122
112587,112098
112633,112139
112695,112167
112666,112145
112587,112117
112584,112118
112675,112175
112715,112180
112689,112182
112626,112097
112648,112120
112685,112166
112770,112165
112734,112180
112633,112135
112611,112138
112719,112181
112787,112184
112747,112186
112662,112109
112674,112127
112733,112186
112778,112206
112752,112174
112685,112128
112694,112147
112759,112162
112807,112206
112763,112188
112636,112137
112606,112105
112686,112166
112721,112152
112572,112121
112485,112036
112416,112004
112442,112019
112407,112040
112261,111971
112125,111882
112012,111842
112012,111828
111978,111854
111822,111755
111696,111685
111622,111646
111635,111693
111655,111679
111553,111614
111516,111577
111468,111593
111608,111643
111662,111689
111577,111667
111589,111622
111573,111648
111707,111698
111789,111758
111803,111779
111731,111720
111786,111721
111881,111816
111954,111806
111976,111825
111919,111802
111947,111796
112055,111890
112099,111903
112117,111921
112061,111851
112070,111861
112144,111931
112221,111945
112203,111947
112113,111905
112127,111885
112215,111967
112246,111981
112248,111934
112159,111939
112138,111928
112221,111953
112256,111991
112217,111932
112178,111945
112138,111915
112243,111947
112302,111981
112238,111981
112199,111892
112181,111928
112265,111936
112333,112017
112278,111968
112217,111915
112224,111955
112290,111951
112338,111991
112299,111987
112223,111922
112162,111932
112294,111948
112334,112000
112257,111944
112198,111903
112147,111903
112212,111977
112259,111959
112265,111934
112188,111913
112134,111885
112254,111939
112294,111981
112195,111927
112188,111899
112139,111929
112266,111952
112300,111988
112221,111937
112222,111935
