11111,11111
0,0
82290,82174
113627,115178
113715,115184
113699,115169
113632,115124
113642,115138
113727,115197
113802,115272
113758,115199
113749,115196
113715,115157
113846,115249
113882,115289
113871,115232
113788,115195
113777,115180
113894,115272
113908,115276
113897,115244
113849,115206
113801,115222
113901,115275
113961,115312
113922,115276
113886,115209
113879,115243
113979,115298
114033,115335
114021,115297
113962,115271
113958,115259
114093,115314
114089,115371
114105,115338
114026,115303
114044,115285
114191,115366
114224,115406
114171,115361
114121,115319
114117,115337
114201,115364
114263,115377
114195,115341
114103,115313
114131,115282
114251,115374
114229,115377
114240,115342
114145,115281
114152,115290
114230,115341
114243,115329
114215,115287
114128,115262
114164,115277
114247,115320
114250,115333
114227,115288
114135,115258
114188,115270
114253,115324
114269,115313
114213,115293
114130,115240
114190,115281
114258,115328
114267,115279
114220,115270
114104,115172
114203,115250
114215,115303
114219,115230
114182,115253
114115,115155
114154,115223
114246,115257
114209,115249
114147,115200
114058,115133
114131,115193
114204,115262
114211,115188
114143,115172
114048,115121
114114,115176
114168,115216
114162,115167
114137,115143
114049,115038
114126,115121
114214,115196
114150,115113
114154,115099
114042,115051
114143,115095
114177,115149
114155,115148
114142,115091
114050,115091
114164,115082
114224,115166
114155,115110
114117,115059
114091,115034
114128,115109
114200,115106
114144,115112
114087,115046
114066,114984
114145,115044
114173,115060
114141,115078
114045,115011
114010,114963
114089,115032
114127,115004
114104,115006
114024,114948
114009,114926
114075,115024
114100,114998
114010,114982
113951,114906
112606,114261
113309,114539
113217,114488
113564,114640
113540,114660
113450,114611
113666,114690
113638,114699
113568,114652
113524,114652
113605,114695
113725,114715
113728,114726
113714,114726
113641,114672
113661,114672
113759,114757
113764,114721
113759,114727
113682,114695
113677,114660
113791,114764
113789,114713
113764,114722
113676,114674
113692,114696
113782,114748
113780,114742
113763,114696
113667,114657
113720,114660
113784,114741
113750,114697
113801,114710
113691,114626
113713,114685
113788,114726
113800,114687
113769,114710
113701,114649
113764,114670
113809,114722
113797,114701
113790,114718
113694,114654
113766,114666
113830,114727
113818,114705
113796,114696
113706,114657
113786,114695
113826,114712
113855,114728
113784,114679
113681,114634
113793,114693
113835,114708
113833,114716
113829,114706
113724,114651
113772,114655
113860,114754
113846,114707
113786,114715
113735,114643
113812,114717
113858,114742
113865,114701
113811,114700
113777,114701
113780,114721
113863,114761
113829,114726
113838,114720
113749,114699
113842,114721
113902,114726
113880,114723
113796,114726
113748,114690
113865,114720
113941,114770
113884,114754
113896,114704
113807,114693
113870,114779
113928,114755
113916,114737
113854,114746
113818,114717
113904,114777
113956,114751
113918,114762
113792,114690
113796,114666
113817,114732
113818,114750
113721,114689
113581,114579
113433,114551
113400,114508
113286,114476
113087,114401
112874,114241
112715,114178
112631,114204
112581,114132
112463,114074
112326,113998
112152,113959
112135,113924
112127,113933
111993,113915
111905,113808
111825,113821
111895,113860
111907,113881
111860,113806
111799,113833
111832,113817
111908,113880
111984,113935
111972,113912
111918,113892
111936,113888
112093,113970
112124,113979
112170,114004
112069,113958
112131,113953
112271,114074
112307,114054
112252,114024
112211,114006
112264,114041
112348,114091
112394,114083
112319,114077
112297,114042
112299,114092
112376,114100
112415,114080
112403,114099
112309,114023
112370,114078
112416,114122
112457,114114
112401,114090
112351,114048
112364,114076
112459,114130
112451,114135
112460,114100
112346,114057
112466,114093
112538,114141
112560,114144
112579,114169
112489,114110
112598,114142
112687,114259
112711,114214
112759,114243
112678,114221
112760,114260
112917,114315
112880,114302
112872,114285
112849,114264
112906,114315
112989,114328
113004,114340
112934,114332
112856,114287
112936,114313
112999,114353
113032,114345
112954,114366
112905,114272
112963,114332
113024,114362
113004,114351
112974,114329
112882,114310
112982,114319
113024,114355
113041,114347
112974,114324
112958,114304
113031,114383
113093,114337
113040,114370
113070,114349
112985,114346
113060,114391
113161,114412
113136,114422
113078,114339
113054,114363
113137,114398
113237,114448
113211,114447
113176,114372
113127,114386
113247,114444
113306,114467
113294,114407
113312,114450
113235,114409
113327,114468
113440,114527
113420,114513
113343,114496
113350,114451
113447,114529
113502,114528
113481,114521
113392,114491
113426,114494
113510,114545
113533,114516
113530,114518
113439,114476
113468,114505
113568,114555
113563,114549
113567,114533
113491,114487
113488,114532
113611,114552
113625,114584
113621,114582
113509,114506
113555,114557
113630,114579
113684,114611
113631,114597
113548,114493
113594,114554
113640,114570
113656,114596
113626,114561
113536,114505
113590,114542
113628,114583
113642,114550
113622,114544
113547,114498
113622,114521
113654,114557
113716,114575
113655,114535
113579,114525
113624,114529
113652,114594
113694,114597
113618,114531
113574,114492
113638,114557
113717,114573
113702,114579
113663,114522
113596,114523
113655,114540
113697,114579
113698,114610
113654,114553
113630,114519
113632,114540
113711,114592
113721,114582
113665,114569
113626,114519
113701,114537
113728,114589
113725,114558
113730,114554
113637,114495
113701,114567
113751,114597
113734,114567
113692,114520
113629,114526
113686,114542
113800,114610
113733,114528
113728,114536
113635,114524
113719,114563
113820,114600
113791,114546
113764,114516
113661,114534
113787,114567
113795,114582
113809,114564
113809,114572
113718,114510
113750,114559
113842,114595
113811,114564
113755,114506
113744,114547
113758,114551
113842,114570
113782,114531
113774,114499
113682,114515
113758,114500
113838,114528
113781,114546
113743,114473
113692,114475
113768,114519
113803,114552
113744,114472
113678,114453
113546,114418
113588,114451
113546,114413
113438,114339
113273,114292
113093,114187
113033,114204
112987,114165
112800,114075
112679,114014
112558,113918
112570,113971
112564,113981
112485,113939
112435,113919
112398,113883
112513,113949
112541,113973
112537,113991
112477,113936
112528,113970
112625,114022
112701,114006
112703,114056
112698,114011
112727,114044
112878,114116
112883,114141
112931,114136
112891,114124
112968,114170
113063,114211
113103,114183
113090,114208
113000,114137
113075,114222
113160,114234
113182,114257
113161,114243
113050,114159
113126,114227
113163,114252
113190,114242
113101,114251
113052,114156
113079,114237
113161,114213
113148,114235
113110,114206
113004,114163
113034,114174
113110,114247
113092,114182
113078,114194
112967,114173
113062,114176
113110,114222
113092,114208
113105,114210
113014,114187
113084,114198
113186,114264
113165,114239
113184,114254
113145,114224
113150,114262
113247,114323
113201,114294
113159,114253
113082,114209
113138,114262
113231,114288
113170,114257
113094,114227
113014,114194
113069,114233
113128,114284
113093,114206
113033,114212
112980,114189
113057,114216
113108,114247
113038,114191
113035,114180
112964,114148
113063,114220
113077,114239
113062,114226
113046,114193
113039,114177
113073,114248
113113,114227
113083,114232
113058,114183
113049,114185
113085,114219
113164,114240
113112,114242
113060,114185
113047,114173
113115,114250
113190,114262
113124,114240
113107,114197
113136,114231
113181,114219
113250,114275
113240,114305
113190,114244
113207,114233
113291,114322
113325,114326
113330,114293
113302,114279
113282,114251
113402,114356
113410,114371
113404,114357
113321,114268
113310,114313
113450,114325
113450,114347
113406,114349
113363,114279
113389,114335
113448,114336
113504,114390
113423,114348
113381,114288
113391,114303
113458,114317
113512,114348
113456,114344
113366,114305
113421,114315
113465,114356
113534,114364
113500,114349
113390,114316
113427,114323
113493,114416
113534,114405
113489,114341
113418,114338
113440,114323
113497,114398
113518,114381
113510,114367
113418,114316
113443,114351
113534,114413
113522,114394
113487,114367
113444,114313
113465,114388
113539,114397
113528,114367
113509,114360
113438,114314
113479,114369
113584,114412
113573,114386
113557,114327
113478,114318
113535,114375
113594,114437
113584,114374
113559,114390
113472,114357
113539,114373
113637,114437
113597,114416
113585,114362
113494,114365
113608,114396
113606,114396
113622,114382
113532,114387
113462,114346
113577,114390
113623,114403
113632,114388
113599,114389
113514,114369
113611,114369
113675,114431
113635,114415
113616,114407
113541,114368
113639,114378
113687,114446
113720,114405
113642,114420
113611,114357
113701,114404
113721,114460
113700,114420
113673,114400
113635,114359
113741,114390
113815,114476
113719,114455
113722,114367
113679,114378
113746,114415
113817,114452
113773,114432
113698,114386
113695,114373
113778,114437
113831,114451
113779,114421
113743,114398
113683,114376
113813,114467
113842,114469
113802,114410
113696,114404
113683,114351
113744,114419
113718,114399
113643,114369
113497,114278
113411,114289
113303,114197
113239,114196
113014,114099
112806,113948
112658,113888
112592,113915
112491,113828
112333,113746
112168,113697
112090,113625
112091,113671
112084,113617
111991,113621
111844,113517
111902,113554
111943,113598
111964,113574
111985,113634
111938,113551
111981,113616
112062,113651
112142,113684
112131,113698
112145,113690
112174,113733
112299,113749
112340,113809
112310,113779
112278,113745
112315,113822
112415,113823
112448,113833
112403,113839
112351,113775
112420,113846
112495,113843
112510,113857
112504,113876
112394,113814
112481,113850
112536,113891
112570,113868
112520,113892
112433,113796
112539,113869
112586,113912
112606,113892
112541,113874
112501,113825
112559,113906
112632,113875
112627,113898
112620,113912
112582,113858
112666,113936
112750,113962
112780,113969
112815,113982
112738,113965
112843,114004
112983,114065
112949,114078
112962,114029
112958,114044
113030,114091
113105,114142
113118,114100
113113,114127
113018,114055
113116,114103
113151,114158
113132,114093
113107,114126
112989,114061
113118,114084
113155,114122
113114,114104
113070,114083
113018,114058
113083,114105
113095,114092
113082,114081
113005,114066
112999,114063
113080,114094
113084,114083
113089,114098
113004,114064
113037,114089
113086,114101
113163,114137
113110,114110
113082,114097
113037,114046
113123,114108
113209,114143
113179,114121
113096,114092
113098,114119
113207,114152
113244,114184
113206,114162
113190,114141
113190,114147
113236,114157
113328,114205
113324,114183
113264,114155
113277,114192
113364,114230
113409,114222
113400,114223
113356,114200
113383,114215
113469,114244
113501,114266
113496,114235
113425,114250
113473,114232
113525,114271
113570,114305
113537,114247
113524,114245
113511,114243
113635,114298
113682,114281
113599,114312
113508,114221
113595,114310
113661,114327
113661,114316
113632,114293
113585,114233
113604,114293
113679,114333
113712,114308
113682,114295
113553,114285
113604,114264
113708,114316
113696,114320
113678,114299
113589,114266
113633,114273
113717,114315
113720,114342
113691,114301
113623,114247
113668,114324
113722,114329
113735,114305
113724,114302
113594,114269
113694,114292
113756,114317
113734,114355
113685,114304
113661,114264
113724,114310
113765,114340
113761,114337
113695,114281
113669,114280
113709,114290
113820,114346
113760,114305
113737,114330
113617,114286
113709,114315
113730,114329
113779,114331
113691,114315
113644,114260
113713,114299
113795,114341
113772,114316
113732,114304
113667,114260
113743,114284
113808,114334
113772,114288
113730,114310
113686,114267
113771,114316
113804,114371
113800,114313
113774,114296
113711,114307
113818,114326
113871,114330
113843,114337
113749,114317
113748,114269
113814,114348
113862,114342
113854,114306
113813,114285
113718,114307
113811,114311
113887,114313
113830,114321
113777,114288
113774,114271
113849,114331
113875,114300
113873,114318
113782,114247
113786,114273
113814,114278
113867,114265
113778,114301
113667,114205
113605,114204
113601,114212
113543,114194
113378,114129
113212,113994
113104,113986
113025,113931
112909,113918
112726,113836
112547,113719
112524,113739
112499,113719
112481,113700
112425,113696
112360,113639
112344,113659
112467,113693
112503,113749
112484,113709
112435,113708
112481,113717
112622,113805
112682,113828
112637,113788
112636,113776
112681,113819
112809,113890
112866,113884
112870,113905
112776,113871
112861,113915
112955,113948
112971,113945
112956,113952
112891,113912
113004,113942
113074,114026
113060,113993
113072,113996
112981,113951
113041,113955
113148,114040
113100,114031
113125,114002
113014,113983
113091,113966
113157,114015
113133,114022
113086,114010
112996,113961
113032,113974
113096,114010
113108,114055
113042,113953
112948,113952
113029,113985
113115,114003
113065,114037
113069,113968
113015,113987
113053,113994
113151,114034
113159,114056
113115,114012
113094,114016
113149,114046
113206,114061
113224,114090
113154,114067
113108,114016
113167,114062
113214,114041
113172,114057
113147,114007
113085,114002
113161,114049
113190,114071
113134,114014
113083,113983
113070,113999
113131,114047
113126,114047
113105,113987
113062,114008
113017,113955
113088,114020
113154,114027
113086,114022
113048,113953
113031,113995
113105,114022
113128,114048
113120,114020
113089,113973
113022,113985
113123,114018
113180,114049
113160,114057
113138,114023
113091,114006
113207,114034
113286,114070
113264,114067
113224,114059
113219,114060
113333,114103
113372,114119
113375,114109
113328,114094
113348,114110
113430,114137
113507,114160
113444,114140
113390,114124
113379,114125
113492,114165
113529,114197
113472,114168
113429,114104
113433,114141
113528,114160
113586,114176
113511,114185
113472,114117
113510,114165
113567,114193
113578,114175
113561,114178
113522,114123
113552,114193
113605,114170
113629,114202
113595,114187
113536,114120
113596,114207
113618,114196
113669,114232
113648,114217
113572,114147
113592,114198
113693,114191
113682,114200
113613,114209
113552,114125
113592,114204
113684,114194
113689,114217
113639,114193
113601,114128
113627,114187
113719,114224
113691,114218
113700,114169
113622,114174
113639,114184
113735,114233
113732,114222
113697,114197
113581,114175
113630,114192
113736,114245
113673,114228
113657,114196
113544,114156
113618,114164
113669,114245
113643,114220
113616,114171
113541,114135
113602,114196
113677,114217
113648,114185
113617,114157
113552,114139
113653,114169
113699,114220
113684,114174
113670,114184
113560,114165
113637,114166
113730,114213
113721,114224
113664,114175
113594,114155
113725,114192
113749,114231
113732,114198
113703,114193
113628,114142
113758,114182
113768,114233
113761,114202
113726,114159
113723,114171
113791,114209
113830,114238
113819,114228
113775,114201
113720,114200
113778,114204
113885,114273
113825,114226
113773,114168
113769,114215
113840,114236
113891,114230
113866,114260
113808,114234
113726,114200
113863,114234
113908,114271
113840,114218
113768,114199
113687,114170
113792,114183
113730,114213
113601,114154
113526,114061
113391,114056
113366,114024
113225,113979
113089,113873
112883,113746
112773,113732
112733,113750
112640,113712
112585,113623
112416,113600
112390,113594
112445,113614
112468,113605
112463,113614
112365,113553
112418,113625
112486,113651
112570,113673
112557,113692
112537,113623
112649,113717
112768,113792
112846,113810
112869,113815
112836,113755
112966,113837
113054,113903
113136,113924
113134,113916
113069,113897
113154,113911
113283,113996
113241,113974
113245,113955
113212,113971
113256,113982
113339,113996
113350,113990
113299,114015
113213,113941
113304,113989
113331,114024
113339,114005
113299,113998
113191,113943
113284,113984
113330,114008
113290,114020
113241,113937
113220,113968
113250,113972
113324,114023
113291,114004
113341,113969
113251,113959
113333,114006
113449,114036
113415,114051
113390,113999
113332,114012
113410,114026
113502,114061
113490,114093
113448,114053
113365,113982
113436,114054
113554,114097
113452,114078
113423,114000
113370,114010
113416,114008
113450,114025
113419,114001
113346,113987
113288,113904
113343,113979
113383,113962
113340,113911
113285,113901
113233,113858
113259,113878
113343,113891
113271,113852
113224,113847
113186,113825
113241,113887
113306,113856
113262,113874
113237,113812
113163,113792
113285,113836
113293,113900
113293,113820
113243,113843
113217,113847
113296,113856
113339,113890
113307,113871
113263,113810
113249,113826
113362,113873
113361,113874
113375,113885
113318,113832
113280,113866
113381,113886
113413,113871
113404,113916
113343,113847
113386,113866
113469,113908
113489,113895
113449,113921
113385,113860
113429,113866
113502,113953
113530,113899
113494,113949
113424,113892
113485,113901
113535,113967
113530,113917
113570,113935
113457,113899
113495,113960
113568,113963
113606,113964
113516,113933
113492,113930
113500,113941
113576,113973
113617,114005
113586,113963
113491,113910
113568,113947
113603,113994
113610,113998
113582,113974
113455,113935
113541,113947
113617,114019
113607,113971
113589,113975
113482,113924
113574,113992
113569,113994
113625,113974
113555,113979
113490,113932
113547,113943
113638,113990
113591,113976
113557,113966
113521,113936
113545,113988
113586,114055
113612,113977
113598,114022
113495,113926
113556,114001
113636,114032
113666,114022
113594,114041
113518,113937
113594,114035
113665,114014
113629,114019
113605,113993
113544,114000
113598,113978
113686,114056
113655,114018
113609,114000
113566,114005
113625,114003
113695,114041
113649,114059
113632,114038
113547,113989
113678,114043
113744,114050
113647,114057
113646,113984
113622,114002
113707,114038
113738,114060
113709,114053
113667,114004
113656,114018
113723,114024
113787,114072
113747,114049
113721,114054
113651,114024
113772,114060
113830,114085
113755,114063
113711,114059
113673,113981
113753,114076
113764,114060
113694,114062
113633,113994
113593,113987
113596,113986
113560,113946
113470,113930
113287,113804
113186,113811
113124,113743
113030,113744
112880,113647
112773,113587
112620,113539
112611,113557
112592,113537
112502,113463
112391,113421
112344,113469
112410,113475
112450,113452
112381,113445
112364,113415
112342,113472
112486,113493
112538,113511
112542,113549
112492,113539
112579,113567
112641,113618
112673,113598
112750,113661
112701,113623
112733,113646
112844,113697
112926,113721
112881,113697
112823,113683
112912,113735
113001,113755
113016,113794
113008,113727
112951,113739
113006,113752
113064,113777
113098,113809
113048,113794
112990,113739
113073,113804
113148,113820
113122,113794
113114,113775
113062,113770
113097,113769
113178,113845
113137,113817
113154,113810
113024,113774
113116,113795
113184,113851
113151,113815
113153,113813
113064,113788
113127,113819
113210,113821
113231,113866
113204,113806
113093,113799
113203,113831
113292,113882
113247,113900
113241,113812
113146,113814
113226,113833
113261,113868
113253,113846
113198,113827
113117,113770
113172,113863
113226,113887
113198,113844
113188,113815
113109,113817
113177,113792
113242,113874
113168,113825
113177,113821
113081,113788
113196,113817
113232,113851
113203,113817
113161,113824
113127,113780
113195,113805
113286,113850
113201,113840
113163,113805
113141,113787
113251,113858
113279,113858
113259,113846
113208,113789
113215,113811
113263,113873
113361,113895
113320,113881
113254,113836
113223,113817
113345,113900
113379,113902
113335,113892
113297,113861
113291,113864
113386,113912
113412,113919
113394,113904
113339,113857
113306,113868
113428,113912
113442,113916
113446,113923
113380,113855
113351,113902
113461,113927
113494,113951
113480,113938
113434,113901
113462,113934
113519,113960
113570,113956
113496,113917
113472,113933
113482,113920
113580,113978
113587,113992
113537,113932
113465,113921
113493,113917
113578,113942
113610,113987
113550,113935
113481,113938
113514,113933
113580,113968
113592,113976
113557,113953
113491,113886
113526,113952
113579,113969
113627,113931
113546,113972
113500,113915
113506,113944
113607,114004
113583,113964
113595,113968
113497,113920
113542,113952
113588,113961
113604,113965
113573,113978
113536,113907
113555,113953
113606,113953
113588,113952
113567,113973
113506,113909
113553,113956
113638,113999
113591,113951
113588,113960
113501,113889
113557,113948
113646,113970
113619,113970
113553,113960
113542,113929
113569,113954
113649,113983
113628,113976
113571,113950
113518,113955
113584,113941
113664,113987
113596,113947
113619,113945
113517,113892
113613,113975
113692,114001
113624,113977
113635,113926
113553,113933
113650,113988
113711,113991
113689,113995
113625,113936
113604,113983
113652,113976
113709,114001
113682,113984
113660,113968
113612,113924
113681,113997
113719,113992
113720,113987
113644,113938
113597,113942
113725,114002
113780,114004
113737,114004
113673,113981
113628,113961
113730,113959
113796,114031
113746,114013
113687,113934
113652,113961
113789,114015
113815,114020
113748,114014
113708,113929
113689,113974
113767,114035
113791,114009
113743,113994
113719,113933
113671,113958
113753,114026
113757,114016
113682,113960
113546,113887
113516,113882
113501,113900
113400,113814
113275,113781
113056,113672
112885,113651
112801,113546
112740,113549
112543,113476
112338,113315
112259,113313
112289,113363
112218,113286
112137,113238
111988,113227
112017,113201
112060,113254
112078,113260
111990,113219
112000,113204
112015,113220
112132,113271
112158,113321
112195,113303
112163,113285
112236,113342
112334,113388
112415,113420
112416,113395
112365,113346
112488,113448
112559,113510
112613,113483
112614,113509
112526,113469
112632,113542
112716,113543
112746,113576
112715,113557
112717,113549
112790,113599
112874,113611
112866,113640
112845,113591
112795,113592
112869,113619
112946,113699
112925,113651
112915,113642
112806,113604
112892,113623
112920,113699
112944,113650
112853,113621
112807,113602
112852,113650
112928,113653
112919,113644
112901,113639
112854,113638
112926,113679
113040,113695
113020,113705
113018,113672
112977,113700
113110,113729
113167,113777
113177,113763
113113,113776
113093,113723
113209,113784
113284,113850
113200,113807
113188,113810
113151,113739
113216,113807
113296,113820
113241,113799
113192,113782
113152,113776
113191,113819
113234,113821
113190,113757
113104,113747
113085,113748
113135,113761
113132,113808
113072,113735
113069,113733
113013,113677
113105,113749
113101,113758
113109,113740
113009,113701
113035,113709
113078,113751
113140,113773
113121,113788
113028,113720
113052,113754
113145,113790
113179,113782
113192,113775
113104,113798
113119,113755
113227,113852
113214,113848
113225,113792
113139,113799
113114,113790
113250,113853
113272,113853
113206,113842
113161,113784
113180,113842
113254,113820
113335,113891
113284,113852
113181,113817
113236,113868
113334,113881
113343,113880
113305,113896
113226,113816
113303,113857
113382,113929
113372,113865
113381,113909
113236,113840
113327,113904
113386,113905
113437,113899
113380,113923
113253,113839
113379,113922
113460,113943
113415,113935
113398,113935
113304,113833
113364,113925
113442,113936
113443,113918
113424,113909
113361,113926
113388,113926
113452,113972
113458,113976
113481,113942
113370,113915
113468,113939
113527,114004
113482,113949
113497,113967
113364,113907
113445,113943
113468,113957
113505,113969
113403,113953
113341,113874
113402,113921
113439,113968
113423,113935
113401,113965
113281,113857
113369,113942
113442,113965
113409,113903
113380,113936
113288,113855
113419,113945
113453,113927
113423,113962
113387,113903
113331,113875
113448,113946
113489,113964
113440,113951
113427,113894
113393,113910
113474,113917
113526,113978
113481,113943
113471,113898
113386,113919
113517,113982
113552,113980
113504,113945
113506,113922
113445,113950
113520,113969
113591,113980
113550,113958
113541,113936
113478,113974
113583,113997
113632,114033
113602,113984
113513,113984
113550,113951
113624,114006
113709,114044
113670,114009
113624,113968
113608,113999
113651,114015
113733,114017
113707,114026
113615,113963
113660,113994
113743,114090
113750,114032
113778,114047
113656,113984
113702,114032
113757,114044
113796,114072
113734,114007
113669,113991
113644,113974
113693,114045
113713,114017
113555,113979
113412,113893
113342,113811
113256,113816
113105,113719
112873,113624
112634,113511
112528,113464
112444,113451
112391,113389
112219,113277
112067,113199
111975,113222
111989,113192
111966,113200
111851,113142
111742,113088
111819,113118
111868,113189
111876,113123
111864,113191
111801,113125
111900,113198
112017,113234
112052,113247
112081,113253
111999,113229
112134,113317
112268,113359
112250,113354
112283,113393
112231,113325
112388,113436
112424,113423
112457,113441
112473,113443
112402,113407
112478,113435
112604,113531
112563,113529
112596,113493
112501,113487
112563,113523
112639,113528
112606,113510
112571,113494
112503,113448
112608,113495
112640,113556
112595,113522
112567,113478
112524,113486
112604,113539
112655,113560
112637,113507
112641,113529
112559,113499
112703,113546
112796,113587
112802,113589
112785,113562
112806,113592
112900,113686
113002,113693
113027,113711
113048,113705
113015,113713
113099,113718
113186,113797
113151,113792
113124,113744
113076,113720
113121,113799
113192,113768
113164,113775
113127,113714
113070,113732
113113,113786
113167,113754
113171,113763
113067,113739
113041,113727
113102,113769
113170,113797
113066,113740
113065,113739
112986,113715
113080,113721
113075,113744
113103,113740
113019,113722
113003,113688
113120,113780
113177,113762
113115,113767
113049,113701
113076,113737
113147,113786
113165,113784
113157,113779
113070,113738
113136,113772
113222,113816
113219,113804
113251,113816
113165,113750
113179,113799
113282,113847
113339,113854
113295,113832
113267,113804
113293,113830
113377,113904
113411,113893
113407,113912
113367,113852
113378,113889
113520,113932
113519,113951
113491,113922
113431,113860
113517,113970
113571,113931
113591,113977
113551,113963
113498,113890
113541,113981
113602,113990
113608,113995
113588,113960
113528,113958
113587,113979
113684,114047
113626,113981
113653,113990
113550,113953
113644,113983
113703,114027
113683,114034
113680,113993
113582,113992
113644,114028
113754,114079
113710,114033
113709,114005
113617,114001
113711,114031
113755,114084
113742,114025
113738,114057
113652,113987
113740,114071
113792,114085
113780,114065
113720,114057
113662,114048
113720,114052
113781,114121
113749,114080
113748,114051
113685,114052
113753,114103
113841,114108
113797,114125
113786,114071
113722,114048
113827,114086
113829,114108
113831,114115
113800,114086
113707,114064
113828,114130
113853,114100
113854,114097
113762,114071
113741,114087
113789,114101
113863,114160
113803,114129
113775,114071
113717,114089
113845,114113
113859,114129
113803,114094
113795,114106
113766,114067
113824,114142
113908,114141
113856,114140
113807,114080
113769,114097
113843,114133
113928,114121
113854,114152
113797,114044
113789,114072
113880,114133
113933,114135
113870,114152
113819,114066
113803,114094
113870,114124
113913,114152
113899,114134
113781,114043
113838,114123
113881,114123
113912,114155
113867,114107
113859,114082
113828,114105
113905,114119
113978,114147
113897,114117
113853,114082
113871,114103
113928,114100
113911,114147
113900,114096
113831,114083
113838,114108
113850,114094
113850,114110
113724,114076
113606,113956
113554,113989
113446,113934
113328,113848
113156,113738
112902,113671
112823,113598
112801,113628
112688,113577
112587,113487
112428,113453
112444,113397
112422,113438
112338,113356
112317,113379
112198,113334
112233,113380
112364,113363
112341,113411
112368,113402
112280,113359
112424,113448
112487,113467
112562,113502
112556,113496
112534,113506
112659,113557
112740,113623
112771,113592
112757,113580
112727,113586
112805,113603
112914,113662
112891,113644
112916,113652
112808,113645
112904,113650
112960,113744
112975,113676
112916,113701
112864,113615
112947,113706
112977,113686
112980,113676
112921,113660
112882,113644
112896,113683
112958,113690
112933,113703
112881,113650
112861,113656
112935,113663
112965,113706
112962,113661
112925,113652
112854,113654
112940,113684
113033,113725
113034,113690
113019,113700
112956,113671
113065,113707
113133,113798
113101,113739
113082,113728
113038,113752
113167,113775
113197,113797
113178,113791
113107,113739
113131,113776
113158,113803
113252,113808
113195,113759
113137,113746
113117,113751
113216,113782
113221,113820
113169,113770
113118,113772
113094,113731
113165,113771
113213,113779
113158,113770
113068,113713
113068,113769
113142,113780
113177,113751
113152,113777
113014,113711
113062,113732
113150,113750
113167,113791
113093,113746
113044,113716
113048,113752
113169,113775
113185,113789
113134,113749
113096,113726
113125,113757
113170,113797
113231,113815
113178,113801
113128,113756
113181,113764
113293,113823
113239,113823
113286,113818
113205,113804
113267,113805
113378,113885
113387,113864
113362,113873
113268,113814
113367,113861
113442,113901
113467,113879
113385,113892
113316,113804
113419,113881
113523,113938
113473,113921
113477,113894
113400,113860
113469,113864
113539,113917
113552,113908
113487,113909
113436,113902
113504,113908
113591,113978
113565,113921
113539,113932
113476,113903
113570,113937
113658,114012
113601,113921
113621,113973
113522,113908
113626,113942
113711,114022
113651,113948
113660,113974
113573,113910
113649,113996
113734,114015
113702,113975
113698,113949
113633,113984
113722,113977
113782,114017
113738,113999
113697,113973
113627,113987
113744,113956
113738,114041
113715,113982
113662,113964
113670,113932
113701,113989
113757,113990
113731,114000
113693,113956
113611,113958
113732,113958
113757,114010
113702,113967
113655,113980
113658,113953
113707,113990
113755,114007
113767,113957
113671,113977
113654,113927
113742,114003
113806,114011
113770,113971
113742,113970
113736,113938
113792,114003
113846,114009
113776,113971
113763,113932
113750,114004
113789,114000
113884,114003
113785,114012
113744,113965
113760,113942
113823,114023
113848,114020
113830,113993
113786,113953
113771,114004
113879,114008
113884,114034
113854,113969
113801,113997
113786,113997
113900,114020
113916,114022
113865,114006
113818,114003
113842,113979
113951,114027
113947,114032
113937,114044
113826,113993
113898,113997
113968,114053
113981,114059
113950,114062
113851,113995
113914,114012
113961,114094
114010,114055
113968,114049
113873,114021
113925,114009
114016,114107
113972,114064
113967,114021
113891,114003
113925,114067
114025,114061
113944,114042
113928,114041
113801,113991
113826,113984
113830,114016
113709,113958
113589,113872
113348,113800
113227,113743
113176,113704
112995,113611
112837,113506
112689,113454
112639,113485
112653,113452
112597,113402
112514,113366
112430,113350
112403,113355
112509,113393
112435,113391
112457,113357
112385,113360
112513,113366
112604,113391
112623,113455
112624,113457
112571,113440
112707,113482
112815,113539
112845,113538
112819,113512
112783,113543
112892,113586
112977,113630
112967,113602
112939,113626
112903,113590
113050,113647
113110,113690
113068,113663
113030,113656
112979,113651
113123,113638
113141,113697
113137,113680
113061,113618
113049,113651
113063,113672
113095,113687
113072,113676
112958,113627
112945,113608
112982,113605
113023,113665
112927,113625
112907,113562
112861,113575
112917,113625
112964,113620
112986,113618
112897,113595
112937,113628
113032,113676
113131,113664
113115,113713
113043,113625
113107,113686
113195,113696
113214,113736
113195,113745
113176,113695
113129,113732
113187,113724
113205,113757
113177,113716
113043,113663
113075,113670
113118,113706
113129,113711
113073,113697
112997,113619
113034,113666
113097,113695
113110,113684
113090,113677
113007,113629
113055,113661
113134,113705
113145,113698
113156,113721
113109,113670
113136,113707
113222,113746
113223,113749
113209,113739
113131,113701
113188,113739
113261,113765
113277,113754
113279,113766
113149,113713
113256,113759
113323,113801
113308,113776
113323,113810
113203,113715
113297,113803
113386,113821
113408,113828
113412,113827
113310,113771
113436,113835
113491,113891
113486,113856
113507,113865
113431,113826
113514,113871
113579,113948
113539,113886
113549,113887
113454,113836
113567,113910
113602,113945
113605,113914
113559,113895
113514,113874
113587,113894
113691,113935
113673,113961
113599,113929
113601,113890
113655,113976
113700,113944
113714,113947
113622,113944
113576,113885
113701,113965
113729,113996
113684,113965
113681,113935
113615,113950
113660,113923
113764,114006
113695,113962
113698,113930
113596,113902
113710,113940
113739,114012
113714,113964
113692,113948
113645,113936
113712,113971
113781,114025
113725,113981
113684,113902
113621,113955
113697,113946
113779,114035
113709,113979
113650,113933
113656,113951
113701,113998
113762,113976
113682,113950
113717,113945
113624,113948
113708,113929
113772,114022
113732,113966
113681,113948
113643,113948
113748,113951
113760,114026
113737,113973
113706,113938
113670,113942
113790,114000
113771,114005
113758,113977
113706,113964
113719,113934
113784,114027
113838,113997
113794,114017
113683,113979
113739,113992
113856,114066
113840,113998
113844,114022
113721,113997
113782,113993
113869,114060
113877,114035
113868,114039
113786,114024
113798,114036
113889,114047
113911,114084
113870,114031
113834,113992
113866,114062
113923,114064
113918,114100
113894,114034
113820,114025
113853,114053
113936,114091
113897,114044
113905,114072
113722,114007
113762,114026
113790,113993
113696,113957
113584,113872
113333,113807
113287,113720
113147,113706
112921,113550
112801,113498
112596,113395
112556,113401
112463,113346
112335,113304
112172,113194
112038,113140
111997,113123
111991,113150
111910,113026
111847,113024
111711,112975
111791,113034
111891,113049
111815,113029
111822,113018
111720,112994
111860,113062
111944,113103
111945,113108
111934,113113
111930,113072
112040,113159
112139,113210
112092,113184
112112,113155
112087,113211
112168,113208
112275,113276
112243,113224
112239,113252
112181,113210
112279,113280
112291,113298
112328,113288
112265,113288
112240,113236
112270,113249
112372,113302
112274,113263
112230,113244
112200,113223
112302,113237
112315,113312
112306,113260
112218,113241
112199,113215
112271,113272
112269,113281
112245,113242
112237,113242
112158,113216
112269,113258
112343,113313
112312,113301
112266,113258
112259,113265
112389,113337
112407,113328
112378,113344
112344,113259
112347,113293
112470,113334
112508,113388
112481,113382
112364,113305
112421,113345
112487,113400
112497,113320
112461,113353
112361,113303
112383,113314
112461,113346
112462,113385
112398,113287
112342,113283
112363,113295
112425,113337
112366,113318
112384,113303
112315,113241
112311,113304
112402,113298
112429,113327
112359,113289
112330,113268
112342,113337
112426,113336
112477,113382
112463,113330
112375,113299
112413,113350
112540,113382
112543,113406
112547,113413
112466,113369
112532,113407
112649,113426
112670,113470
112662,113425
112576,113397
112695,113486
112750,113490
112759,113494
112734,113474
112705,113452
112733,113523
112836,113530
112834,113534
112802,113488
112712,113463
112846,113542
112888,113549
112898,113577
112888,113530
112790,113495
112890,113610
112956,113597
112960,113588
112932,113572
112866,113571
112983,113570
113052,113648
112988,113596
113018,113597
112928,113582
113018,113633
113095,113676
113104,113627
113052,113654
112967,113596
113110,113668
113145,113684
113155,113676
113099,113665
113057,113621
113150,113658
113225,113716
113173,113701
113141,113685
113086,113620
113170,113721
113236,113716
113175,113683
113156,113692
113068,113655
113198,113734
113212,113750
113193,113720
113140,113672
113112,113658
113211,113736
113218,113732
113247,113717
113155,113663
113114,113679
113229,113731
113232,113764
113219,113692
113171,113705
113134,113683
113202,113771
113252,113752
113237,113718
113179,113706
113156,113684
113265,113761
113293,113751
113246,113756
113193,113685
113237,113712
113305,113752
113349,113774
113324,113752
113244,113747
113283,113714
113380,113814
113411,113782
113378,113778
113286,113752
113352,113799
113428,113828
113457,113793
113391,113794
113338,113770
113417,113811
113458,113874
113477,113836
113483,113821
113365,113782
113449,113822
113486,113863
113541,113872
113493,113845
113451,113776
113487,113839
113573,113846
113582,113864
113553,113856
113448,113820
113556,113830
113604,113902
113587,113861
113614,113855
113470,113823
113563,113868
113666,113874
113622,113866
113632,113850
113518,113814
113580,113849
113640,113887
113581,113846
113542,113831
113396,113781
113385,113760
113350,113778
113158,113652
112972,113513
112668,113402
112590,113347
112420,113262
112260,113188
112042,113043
111847,112966
111745,112943
111719,112939
111546,112836
111404,112760
111272,112675
111304,112734
111330,112707
111284,112728
111226,112676
111130,112670
111247,112706
111296,112711
111329,112742
111307,112693
111313,112740
111370,112797
111475,112825
111485,112838
111482,112830
111475,112861
111604,112941
111710,112931
111732,112960
111679,112958
111717,112960
111825,113019
111934,113064
111894,113067
111866,112995
111867,113036
111957,113080
112021,113108
111929,113067
111906,113022
111862,113053
111894,113051
111941,113077
111847,113038
111818,112983
111733,112979
111753,113020
111766,112996
111705,112941
111625,112932
111566,112899
111655,112964
111673,112960
111665,112941
111576,112901
111621,112920
111691,112991
111752,112974
111762,112998
111707,112966
111721,112991
111849,113040
111937,113079
111872,113064
111842,113021
111849,113063
111928,113096
111954,113102
111938,113063
111842,113040
111859,113028
111932,113067
111930,113052
111886,113005
111812,112997
111794,113002
111884,113020
111834,113025
111799,112967
111742,112973
111767,112967
111798,113017
111844,112985
111794,112993
111707,112935
111752,112971
111858,113016
111820,112990
111825,112980
111709,112942
111813,113003
111888,113030
111900,113012
111890,113036
111819,112992
111896,113035
111965,113089
111977,113049
111962,113077
111892,113019
111999,113091
112102,113131
112089,113098
112060,113104
112033,113079
112118,113120
112193,113192
112200,113166
112129,113136
112108,113128
112157,113172
112255,113212
112209,113185
112221,113179
112157,113135
112271,113194
112328,113200
112305,113212
112302,113218
112255,113191
112386,113232
112456,113278
112442,113266
112441,113290
112428,113244
112512,113345
112566,113350
112560,113315
112554,113308
112498,113319
112596,113344
112664,113398
112636,113383
112580,113354
112568,113335
112685,113394
112721,113381
112691,113395
112613,113355
112593,113355
112671,113412
112753,113411
112715,113408
112631,113396
112619,113350
112717,113418
112752,113386
112715,113402
112672,113387
112625,113331
112736,113437
112749,113412
112731,113399
112696,113381
112631,113357
112760,113412
112797,113452
112740,113412
112712,113378
112715,113412
112740,113429
112805,113461
112766,113411
112696,113381
112706,113398
112809,113451
112789,113436
112777,113427
112697,113368
112738,113410
112832,113480
112842,113452
112803,113440
112755,113438
112754,113414
112878,113474
112886,113486
112811,113449
112799,113431
112827,113466
112928,113496
112898,113511
112907,113481
112888,113440
112916,113502
113012,113515
113025,113533
112991,113513
112911,113462
113043,113523
113107,113584
113121,113527
113053,113539
113030,113481
113099,113569
113168,113575
113176,113571
113152,113599
113069,113506
113126,113576
113214,113577
113161,113585
113149,113533
113046,113525
113043,113528
113047,113502
112922,113459
112776,113351
112546,113258
112427,113190
112308,113158
112098,113022
111916,112939
111689,112796
111632,112815
111500,112778
111391,112663
111242,112596
111052,112519
111073,112521
111100,112532
111020,112497
110971,112488
110941,112441
111001,112527
111127,112571
111099,112576
111101,112530
111118,112581
111257,112618
111346,112715
111320,112681
111355,112676
111345,112714
111491,112774
111555,112821
111562,112807
111523,112774
111531,112813
111607,112845
111703,112860
111698,112860
111630,112852
111615,112818
111720,112895
111732,112886
111752,112919
111651,112871
111671,112847
111741,112904
111774,112938
111713,112874
111683,112836
111614,112840
111695,112910
111736,112881
111734,112902
111634,112834
111605,112844
111675,112898
111740,112871
111704,112858
111657,112839
111698,112867
111772,112901
111837,112926
111832,112946
111729,112893
111815,112920
111889,112969
111927,112984
111934,112969
111875,112943
111904,112949
111970,113050
111973,112987
111939,112998
111849,112936
111884,112955
111953,113014
111938,113011
111906,112951
111802,112934
111856,112917
111882,112975
111843,112922
111819,112944
111767,112887
111758,112917
111866,112947
111807,112964
111814,112892
111734,112878
111772,112891
111858,112939
111847,112959
111799,112901
111755,112868
111794,112919
111923,112968
111916,112998
111912,112991
111805,112930
111926,112953
112000,113039
112017,113000
112006,112997
111960,113007
112084,113037
112117,113095
112169,113046
112140,113080
112101,113021
112183,113102
112260,113169
112264,113092
112278,113139
112156,113106
112265,113113
112352,113160
112322,113146
112320,113159
112228,113126
112334,113172
112376,113224
112403,113187
112350,113185
112285,113147
112438,113194
112477,113249
112500,113227
112473,113207
112402,113203
112540,113240
112609,113305
112604,113260
112556,113256
112536,113254
112632,113278
112708,113343
112659,113296
112654,113321
112571,113307
112674,113332
112719,113340
112686,113341
112574,113270
112581,113261
112625,113338
112690,113342
112669,113289
112599,113303
112545,113269
112654,113326
112674,113347
112678,113288
112577,113305
112553,113242
112658,113346
112691,113352
112629,113315
112624,113299
112594,113292
112695,113360
112739,113353
112723,113325
112677,113277
112676,113336
112715,113348
112791,113351
112728,113388
112639,113285
112678,113333
112739,113374
112777,113364
112776,113360
112661,113330
112693,113339
112785,113363
112811,113377
112764,113362
112680,113323
112772,113322
112823,113413
112845,113394
112816,113386
112753,113345
112814,113365
112861,113438
112914,113410
112894,113381
112795,113356
112852,113401
112957,113462
112983,113445
112957,113426
112909,113389
112955,113446
113084,113513
113069,113500
113085,113463
112977,113435
113060,113484
113173,113504
113191,113531
113119,113514
113056,113472
113161,113520
113237,113555
113238,113547
113210,113536
113079,113476
113207,113548
113265,113599
113222,113567
113203,113529
113134,113500
113199,113563
113263,113558
113235,113570
113184,113521
113079,113454
113148,113496
113089,113514
112962,113403
112806,113351
112559,113220
112496,113162
112395,113141
112118,113001
111947,112884
111688,112741
111623,112723
111522,112664
111387,112587
111183,112508
111028,112422
111003,112436
111024,112392
110902,112366
110854,112326
110783,112334
110847,112352
110940,112388
110932,112394
110869,112373
110852,112371
111010,112466
111071,112497
111105,112483
111087,112498
111098,112517
111210,112570
111343,112647
111321,112631
111320,112606
111330,112622
111412,112666
111521,112703
111473,112716
111438,112654
111458,112642
111541,112741
111574,112767
111531,112728
111508,112672
111510,112710
111555,112755
111595,112748
111544,112716
111446,112705
111435,112657
111554,112693
111552,112727
111437,112687
111370,112659
111376,112637
111471,112714
111474,112682
111437,112654
111369,112632
111390,112687
111472,112678
111513,112729
111459,112683
111421,112677
111457,112691
111570,112744
111611,112765
111606,112776
111568,112703
111621,112759
111684,112792
111724,112825
111732,112798
111611,112736
111672,112778
111739,112831
111713,112825
111706,112810
111582,112730
111653,112762
111697,112862
111694,112811
111612,112787
111518,112725
111582,112734
111637,112812
111627,112763
111579,112749
111486,112684
111562,112739
111583,112762
111599,112775
111551,112752
111495,112704
111545,112746
111666,112793
111604,112810
111568,112752
111550,112719
111623,112775
111683,112821
111679,112799
111688,112783
111597,112779
111724,112800
111794,112866
111811,112865
111798,112840
111731,112813
111846,112896
111962,112925
111913,112903
111939,112912
111896,112898
112018,112950
112106,113006
112111,113000
112048,112962
112043,112967
112126,113022
112207,113044
112209,113058
112176,113008
112140,112993
112218,113053
112277,113071
112272,113092
112254,113059
112187,113046
112336,113095
112422,113144
112375,113132
112356,113079
112346,113105
112448,113127
112541,113211
112542,113194
112476,113162
112540,113177
112648,113234
112705,113290
112723,113241
112702,113240
112674,113263
112763,113285
112863,113353
112829,113310
112801,113322
112723,113298
112853,113324
112927,113383
112867,113353
112812,113304
112803,113300
112900,113372
112893,113356
112854,113331
112821,113307
112832,113348
112879,113385
112946,113360
112907,113347
112758,113316
112843,113328
112900,113385
112906,113373
112885,113367
112841,113333
112835,113376
112913,113380
112964,113379
112909,113387
112819,113347
112875,113353
112942,113397
112935,113384
112921,113370
112866,113317
112903,113380
112961,113408
112980,113396
112964,113407
112899,113345
112981,113400
113057,113465
113050,113418
113037,113421
112966,113384
113067,113438
113110,113457
113117,113459
113082,113437
113042,113403
113120,113462
113184,113485
113181,113474
113157,113475
113076,113435
113152,113490
113231,113485
113245,113477
113212,113499
113154,113442
113264,113501
113302,113573
113314,113511
113301,113524
113221,113510
113309,113527
113427,113567
113367,113576
113335,113542
113324,113498
113417,113591
113469,113575
113420,113574
113431,113579
113323,113546
113453,113625
113514,113610
113520,113627
113485,113593
113416,113573
113536,113589
113585,113641
113539,113657
113526,113614
113461,113576
113582,113658
113626,113674
113583,113641
113536,113609
113501,113642
113535,113640
113580,113634
113454,113624
113377,113556
113234,113496
113170,113437
113041,113399
112833,113292
112575,113159
112381,113056
112250,113007
112162,112924
111951,112865
111766,112725
111654,112668
111614,112693
111610,112679
111497,112592
111403,112575
111353,112582
111439,112594
111516,112624
111453,112573
111458,112599
111481,112645
111557,112673
111649,112718
111648,112697
111624,112693
111678,112733
111792,112794
111886,112847
111852,112818
111829,112781
111850,112838
111979,112915
112043,112883
112035,112914
111952,112866
112020,112899
112106,112978
112121,112946
112136,112956
112042,112900
112085,112960
112155,112963
112215,113004
112155,112920
112072,112917
112117,112938
112148,113006
112123,112947
112092,112925
111967,112872
112028,112894
112049,112922
112059,112884
111948,112871
111903,112800
111916,112878
111957,112882
112022,112853
111923,112878
111899,112853
111969,112910
112054,112907
112100,112927
112068,112921
112052,112885
112143,112950
112217,113016
112246,112977
112191,113005
112151,112965
112220,113037
112286,113056
112293,113024
112234,113012
112191,112981
112258,113028
112249,113018
112212,112990
112179,112981
112058,112925
112148,112962
112138,112979
112145,112921
112096,112902
112025,112916
112103,112915
112169,112971
112088,112962
112090,112914
112041,112917
112139,112949
112175,113003
112151,112940
112104,112939
112082,112937
112186,112988
112234,113012
112219,112977
112179,112945
112173,112974
112248,112992
112362,113051
112349,113035
112278,113023
112315,113018
112393,113085
112495,113098
112493,113110
112459,113125
112493,113119
112584,113157
112700,113218
112653,113222
112610,113166
112625,113191
112763,113256
112817,113297
112814,113261
112749,113269
112752,113253
112845,113308
112908,113319
112899,113337
112828,113243
112858,113297
112947,113343
112993,113384
112973,113336
112870,113293
112889,113340
113026,113392
113041,113363
113004,113390
112930,113312
112966,113357
113051,113376
113106,113404
113069,113373
112961,113370
113029,113391
113123,113424
113088,113441
113042,113373
112981,113335
113014,113376
113081,113423
113056,113430
113037,113362
112945,113346
112986,113379
113023,113386
113046,113387
113000,113357
112906,113294
112969,113354
113037,113401
113054,113405
113011,113339
112905,113349
112943,113349
113079,113421
113030,113403
113012,113348
112939,113324
113006,113397
113092,113419
113065,113454
113031,113363
112928,113350
113048,113403
113044,113437
113057,113375
113062,113417
112957,113357
113045,113410
113094,113430
113099,113435
113046,113379
112967,113378
113052,113411
113128,113454
113091,113445
113052,113381
113025,113387
113083,113453
113150,113440
113155,113472
113106,113476
113062,113389
113174,113472
113219,113487
113217,113503
113134,113490
113119,113435
113258,113531
113284,113497
113284,113534
113282,113505
113198,113488
113266,113521
113372,113576
113346,113564
113330,113525
113281,113536
113402,113571
113426,113604
113401,113552
113357,113566
113330,113512
113436,113565
113480,113622
113424,113591
113397,113530
113348,113566
113439,113577
113479,113616
113450,113580
113390,113522
113383,113543
113386,113615
113427,113587
113350,113501
113176,113448
113077,113393
113031,113418
112930,113291
112701,113221
112472,113069
112289,113000
112265,112998
112136,112907
111905,112811
111711,112698
111620,112644
111589,112648
111520,112632
111387,112554
111290,112470
111270,112489
111374,112503
111309,112522
111328,112492
111252,112516
111332,112497
111446,112587
111502,112620
111486,112602
111433,112598
111564,112630
111695,112708
111727,112713
111746,112735
111710,112708
111816,112768
111919,112778
111928,112853
111936,112820
111848,112796
111911,112829
112049,112893
112048,112883
111983,112867
111942,112829
112035,112889
112071,112917
112051,112878
112054,112861
111915,112824
112030,112886
112042,112869
112034,112870
111960,112853
111920,112828
111945,112823
111992,112891
111989,112847
111902,112819
111835,112742
111908,112811
111946,112820
111911,112818
111886,112792
111778,112760
111936,112825
112005,112894
111996,112856
112014,112844
111939,112868
112068,112899
112178,112932
112163,112952
112116,112956
112098,112891
112224,112980
112260,112994
112212,112945
112190,112978
112102,112885
112178,112978
112191,112958
112190,112940
112100,112925
112057,112868
112104,112897
112098,112921
112070,112887
112024,112849
111969,112867
112056,112887
112086,112902
112058,112883
111998,112855
111996,112857
112078,112898
112129,112934
112102,112901
112020,112884
112030,112896
112141,112896
112147,112931
112126,112913
112053,112883
112085,112917
112154,112940
112208,112954
112216,112955
112180,112921
112135,112941
112259,113001
112353,113034
112315,113011
112313,112960
112314,113027
112425,113072
112462,113093
112492,113075
112446,113041
112428,113084
112582,113126
112597,113143
112583,113148
112518,113089
112547,113127
112665,113170
112687,113181
112670,113181
112606,113163
112640,113175
112725,113216
112750,113220
112770,113224
112735,113185
112750,113215
112870,113266
112825,113264
112880,113254
112790,113236
112863,113284
112960,113334
112950,113320
112964,113308
112855,113268
112922,113311
113032,113352
113019,113329
112996,113328
112928,113286
112988,113341
113084,113394
113072,113356
113042,113365
112966,113289
113067,113368
113127,113395
113122,113391
113088,113374
112982,113338
113092,113358
113142,113433
113115,113396
113105,113376
113038,113357
113106,113386
113152,113418
113143,113406
113089,113339
113066,113376
113127,113384
113145,113414
113153,113419
113074,113395
113052,113342
113115,113424
113226,113416
113167,113439
113115,113391
113090,113374
113156,113429
113251,113472
113208,113431
113136,113411
113113,113412
113210,113424
113216,113474
113202,113437
113145,113416
113103,113397
113178,113429
113241,113494
113181,113428
113150,113394
113094,113411
113201,113450
113250,113463
113183,113440
113143,113408
113150,113429
113233,113434
113275,113487
113263,113437
113197,113414
113165,113452
113304,113502
113318,113487
113296,113469
113268,113461
113212,113485
113318,113522
113363,113518
113325,113507
113291,113451
113263,113505
113365,113557
113364,113520
113350,113539
113274,113453
113312,113500
113395,113515
113440,113567
113383,113519
113303,113470
113357,113516
113398,113564
113449,113551
113415,113538
113364,113496
113396,113569
113525,113571
113543,113577
113482,113610
113430,113527
113515,113612
113590,113630
113596,113598
113544,113605
113460,113574
113553,113589
113598,113611
113637,113605
113589,113601
113520,113572
113564,113570
113592,113620
113616,113609
113503,113540
113353,113485
113301,113454
113244,113438
113063,113341
112852,113261
112585,113103
112437,113046
112379,113009
112185,112896
111995,112794
111778,112663
111735,112671
111706,112649
111593,112616
111519,112549
111377,112471
111419,112529
111478,112542
111424,112500
111434,112491
111326,112485
111448,112527
111522,112587
111545,112610
111543,112561
111507,112562
111631,112633
111712,112679
111755,112677
111726,112671
111698,112667
111839,112744
111915,112781
111937,112775
111880,112759
111872,112756
111964,112811
112063,112838
112034,112829
112031,112819
111983,112812
112072,112848
112124,112875
112096,112856
112046,112836
111975,112809
112095,112874
112130,112872
112069,112851
112011,112804
111985,112814
112067,112849
112137,112856
112021,112823
112005,112810
111936,112800
112046,112829
112074,112855
112037,112839
112010,112819
111958,112806
112075,112845
112147,112877
112140,112877
112116,112862
112114,112879
112235,112939
112317,112982
112318,112974
112316,112942
112317,112974
112438,113035
112512,113068
112455,113035
112392,113012
112434,113019
112520,113082
112533,113087
112458,113031
112412,113017
112418,113025
112430,113048
112481,113051
112450,113039
112365,112969
112378,112995
112440,113021
112450,113017
112415,113000
112309,112952
112390,112993
112402,113023
112435,113040
112404,112976
112297,112954
112348,112986
112426,113035
112450,113019
112398,112999
112314,112958
112391,113010
112502,113062
112492,113034
112442,113046
112403,113013
112463,113050
112590,113111
112566,113090
112582,113101
112505,113056
112605,113091
112676,113139
112675,113130
112664,113145
112591,113094
112663,113140
112746,113186
112719,113156
112728,113159
112667,113136
112721,113171
112824,113222
112805,113203
112749,113200
112688,113145
112804,113218
112886,113241
112859,113234
112776,113210
112782,113199
112823,113225
112948,113288
112902,113266
112890,113215
112853,113242
112921,113312
113006,113322
112974,113283
112942,113297
112927,113261
112990,113324
113089,113354
113012,113332
112992,113270
112965,113278
113003,113321
113071,113365
113025,113312
113008,113276
112939,113277
113046,113339
113080,113340
113044,113289
112973,113323
112940,113293
113043,113346
113062,113352
113065,113308
112996,113312
112950,113310
113073,113329
113107,113371
113065,113306
113012,113294
112993,113281
113034,113357
113077,113338
113084,113335
112987,113296
112993,113305
113031,113352
113099,113388
113047,113333
113026,113268
113020,113337
113095,113336
113130,113384
113064,113339
113043,113302
113085,113333
113146,113384
113154,113370
113146,113366
113082,113356
113124,113380
113166,113416
113227,113409
113197,113418
113166,113350
113188,113400
113256,113442
113299,113465
113282,113443
113242,113374
113281,113415
113370,113472
113384,113499
113311,113461
113277,113416
113293,113457
113432,113495
113374,113494
113375,113453
113275,113465
113345,113468
113404,113507
113436,113488
113393,113505
113272,113410
113364,113461
113410,113518
113418,113490
113400,113479
113311,113453
113372,113484
113473,113542
113448,113511
113406,113528
113340,113437
113438,113502
113473,113546
113442,113538
113444,113480
113351,113460
113425,113534
113490,113541
113378,113499
113353,113470
113243,113400
113260,113442
113224,113400
113073,113323
112894,113208
112622,113085
112571,113067
112424,112972
112210,112866
112058,112794
111870,112690
111775,112636
111728,112614
111587,112548
111439,112474
111342,112459
111365,112461
111348,112464
111320,112406
111271,112382
111200,112367
111303,112428
111384,112447
111368,112439
111339,112439
111327,112444
111437,112509
111537,112561
111587,112560
111516,112553
111531,112571
111690,112616
111768,112687
111742,112674
111717,112666
111756,112667
111890,112719
111973,112764
111935,112764
111894,112752
111875,112761
112012,112821
112059,112812
112019,112796
111963,112775
111953,112763
111996,112792
112087,112821
112026,112795
111946,112753
111928,112768
112027,112817
112062,112838
112019,112803
111928,112755
111964,112778
112057,112806
112089,112824
112078,112813
111992,112757
112032,112824
112169,112870
112188,112878
112187,112885
112125,112842
112214,112888
112330,112956
112379,112970
112374,112966
112303,112911
112381,112985
112483,113014
112484,113050
112462,113009
112365,112965
112441,113006
112514,113057
112459,113011
112410,113004
112300,112942
112357,113000
112409,113010
112358,112949
112292,112943
112231,112895
112219,112923
112324,112969
112301,112905
112227,112911
112188,112890
112243,112924
112288,112940
112265,112932
112284,112926
112199,112930
112320,112959
112337,112986
112325,112949
112347,112954
112284,112944
112372,112989
112422,113006
112408,112999
112409,112972
112357,112980
112437,113000
112465,113052
112476,113040
112446,113003
112395,112996
112484,113035
112577,113062
112523,113062
112550,113049
112471,113024
112565,113077
112622,113118
112648,113097
112607,113093
112541,113052
112696,113161
112720,113175
112703,113146
112703,113116
112685,113134
112775,113163
112861,113206
112804,113216
112770,113158
112796,113171
112891,113225
112924,113266
112899,113223
112907,113201
112860,113240
112996,113279
113045,113297
113053,113305
113024,113283
112965,113266
113091,113321
113152,113349
113128,113350
113086,113318
113104,113316
113184,113406
113265,113418
113204,113372
113179,113348
113188,113352
113274,113415
113324,113439
113282,113393
113241,113386
113245,113404
113345,113448
113381,113454
113328,113446
113278,113420
113317,113428
113395,113487
113421,113481
113367,113477
113315,113437
113354,113474
113383,113478
113429,113473
113384,113464
113320,113442
113362,113450
113401,113486
113441,113501
113428,113503
113341,113422
113384,113472
113447,113523
113484,113513
113473,113502
113358,113449
113463,113502
113550,113523
113502,113536
113457,113517
113414,113465
113461,113508
113541,113541
113514,113545
113516,113528
113410,113490
113483,113512
113546,113555
113538,113532
113511,113557
113400,113470
113507,113543
113535,113543
113551,113537
113532,113507
113464,113505
113503,113497
113563,113580
113573,113542
113536,113528
113468,113495
113576,113551
113624,113559
113584,113551
113559,113555
113497,113497
113567,113575
113628,113617
113602,113559
113591,113555
113539,113544
113617,113552
113702,113592
113647,113595
113618,113548
113616,113526
113657,113595
113742,113626
113701,113580
113639,113576
113631,113552
113696,113623
113767,113616
113741,113615
113645,113606
113627,113554
113747,113644
113796,113661
113755,113625
113676,113575
113679,113573
113711,113646
113794,113655
113745,113618
113716,113595
113699,113583
113763,113601
113809,113643
113795,113609
113692,113602
113645,113569
113713,113606
113708,113577
113590,113570
113459,113452
113312,113438
113237,113346
113099,113304
112864,113169
112623,113038
112459,113006
112403,112939
112311,112886
112154,112825
111947,112696
111876,112684
111834,112670
111816,112680
111739,112611
111679,112533
111637,112600
111691,112576
111733,112614
111658,112602
111606,112601
111681,112593
111760,112685
111788,112683
111804,112646
111770,112648
111798,112694
111950,112753
111990,112773
111967,112746
111949,112748
111989,112810
112097,112819
112165,112867
112142,112841
112128,112816
112164,112895
112257,112908
112277,112912
112229,112888
112146,112867
112244,112870
112268,112943
112267,112920
112235,112888
112137,112876
112156,112857
112271,112866
112222,112874
112163,112839
112057,112785
112102,112832
112111,112816
112109,112821
112010,112791
111967,112724
112029,112779
112066,112838
112040,112796
112035,112779
111986,112797
112055,112829
112182,112865
112165,112859
112113,112830
112107,112813
112226,112863
112286,112941
112282,112907
112292,112883
112234,112895
112298,112952
112420,112994
112380,112977
112344,112938
112320,112904
112419,112971
112452,113016
112405,112999
112368,112944
112345,112964
112409,112992
112518,113032
112457,113008
112393,112953
112385,112954
112426,112992
112510,113041
112429,112992
112394,112956
112379,112967
112438,113024
112468,113006
112427,112981
112423,112985
112343,112963
112459,112988
112557,113056
112489,113012
112432,113000
112423,112981
112557,113033
112584,113095
112576,113063
112550,113045
112581,113037
112699,113126
112755,113129
112760,113131
112735,113137
112767,113167
112875,113179
112975,113265
112950,113235
112924,113219
112921,113262
113075,113275
113096,113327
113083,113309
113064,113262
113078,113321
113165,113311
113208,113377
113216,113370
113138,113335
113162,113342
113273,113408
113271,113397
113267,113378
113149,113367
113235,113379
113347,113451
113317,113388
113345,113406
113269,113380
113272,113404
113385,113422
113376,113442
113386,113422
113288,113398
113330,113438
113436,113482
113451,113471
113391,113457
113322,113426
113411,113448
113483,113499
113499,113481
113476,113499
113412,113463
113454,113505
113541,113498
113524,113499
113492,113506
113381,113459
113492,113464
113559,113534
113522,113482
113535,113517
113383,113468
113475,113499
113567,113511
113492,113496
113466,113484
113440,113450
113495,113505
113571,113509
113492,113506
113457,113486
113407,113439
113489,113482
113588,113553
113550,113462
113492,113481
113435,113467
113533,113486
113580,113557
113558,113489
113544,113485
113492,113488
113535,113521
113627,113510
113607,113509
113540,113497
113506,113459
113610,113534
113645,113574
113651,113528
113604,113497
113586,113515
113642,113590
113728,113553
113679,113601
113624,113541
113647,113541
113722,113578
113792,113649
113744,113577
113710,113574
113693,113574
113807,113625
113816,113629
113801,113627
113743,113590
113709,113602
113825,113647
113884,113662
113848,113603
113800,113609
113778,113660
113855,113656
113911,113655
113852,113658
113835,113625
113832,113646
113955,113692
113920,113661
113906,113688
113853,113636
113813,113637
113913,113673
113972,113717
113961,113656
113849,113628
113852,113650
113976,113676
113968,113722
113938,113673
113830,113630
113880,113664
113972,113732
113963,113658
113958,113699
113895,113639
113930,113685
113992,113719
113974,113699
113979,113709
113889,113656
113930,113683
114022,113755
114012,113715
113986,113697
113851,113656
113907,113700
113906,113672
113878,113678
113771,113606
113594,113532
113564,113548
113464,113472
113347,113372
113156,113316
112967,113218
112860,113196
112876,113167
112758,113139
112684,113089
112526,113042
112560,113060
112612,113051
112535,113030
112498,113020
112456,112973
112481,113033
112608,113063
112544,113078
112562,113054
112539,113036
112660,113117
112751,113155
112804,113158
112804,113137
112767,113150
112898,113203
112996,113290
113010,113280
112994,113276
112979,113278
113112,113314
113170,113355
113170,113364
113151,113351
113137,113352
113234,113365
113251,113384
113262,113394
113196,113364
113171,113357
113217,113405
113268,113402
113215,113395
113146,113336
113096,113342
113175,113360
113214,113359
113114,113350
113089,113304
113008,113315
113103,113327
113160,113350
113110,113319
113053,113317
113027,113288
113147,113356
113143,113386
113153,113333
113116,113321
113055,113338
113206,113357
113262,113415
113184,113370
113155,113310
113179,113369
113282,113393
113301,113442
113235,113385
113192,113339
113164,113382
113258,113411
113263,113406
113198,113408
113119,113308
113192,113351
113219,113385
113250,113392
113188,113321
113138,113323
113119,113354
113204,113352
113209,113381
113167,113385
113058,113296
113149,113337
113170,113356
113208,113397
113174,113361
113096,113321
113138,113358
113184,113382
113223,113355
113156,113356
113105,113331
113160,113338
113270,113399
113286,113421
113236,113370
113180,113346
113226,113408
113316,113459
113334,113420
113331,113449
113260,113401
113337,113427
113405,113491
113423,113450
113418,113487
113334,113438
113429,113434
113533,113508
113504,113517
113495,113473
113461,113481
113494,113516
113632,113550
113566,113572
113572,113514
113513,113504
113556,113497
113662,113580
113646,113540
113590,113505
113557,113487
113656,113578
113711,113588
113666,113578
113664,113565
113561,113525
113678,113562
113752,113597
113695,113604
113695,113581
113605,113550
113730,113571
113772,113623
113745,113591
113684,113593
113655,113552
113710,113618
113774,113632
113799,113600
113729,113557
113703,113570
113751,113611
113797,113650
113741,113614
113717,113596
113674,113572
113751,113651
113852,113646
113764,113622
113756,113588
113705,113606
113777,113598
113805,113631
113783,113616
113752,113603
113698,113618
113788,113601
113844,113650
113776,113623
113727,113627
113719,113605
113784,113620
113823,113636
113802,113637
113713,113539
113724,113577
113799,113648
113813,113632
113815,113569
113744,113575
113732,113619
113839,113629
113859,113652
113797,113646
113755,113574
113770,113622
113869,113661
113853,113666
113813,113602
113777,113604
113779,113640
113862,113664
113858,113640
113857,113602
113729,113629
113780,113610
113872,113673
113872,113695
113809,113615
113744,113601
113766,113599
113887,113683
113910,113620
113850,113633
113788,113621
113792,113618
113887,113655
113909,113627
113847,113627
113795,113602
113792,113631
113917,113666
113928,113656
113851,113673
113787,113583
113899,113631
113933,113677
113895,113659
113901,113655
113772,113583
113851,113640
113948,113665
113904,113644
113917,113612
113811,113611
113863,113623
113964,113694
113907,113664
113913,113622
113851,113620
113901,113676
113966,113659
113947,113643
113899,113640
113853,113583
113935,113663
113977,113674
113971,113673
113910,113658
113813,113617
113921,113644
113952,113703
113885,113643
113824,113613
113701,113557
113720,113576
113640,113529
113499,113428
113328,113352
113060,113237
112969,113187
112898,113155
112710,113076
112547,112995
112368,112896
112405,112885
112351,112907
112243,112820
112127,112783
112065,112725
112134,112788
112102,112757
112115,112761
112078,112746
112016,112748
112150,112785
112240,112865
112240,112851
112190,112827
112257,112853
112379,112889
112457,112954
112434,112948
112435,112922
112461,112965
112613,113035
112681,113046
112663,113069
112595,113035
112649,113068
112754,113098
112794,113164
112770,113108
112748,113081
112738,113089
112834,113161
112843,113152
112807,113108
112760,113119
112752,113082
112806,113142
112825,113165
112757,113095
112691,113066
112695,113069
112754,113122
112731,113095
112656,113072
112569,113011
112598,113023
112694,113048
112658,113084
112597,113023
112568,112986
112592,113053
112678,113104
112689,113045
112700,113085
112592,113031
112704,113094
112795,113165
112802,113167
112802,113129
112712,113053
112830,113134
112855,113190
112855,113157
112831,113141
112732,113093
112782,113123
112868,113166
112818,113148
112800,113128
112656,113105
112750,113098
112789,113152
112766,113079
112724,113079
112614,113031
112698,113074
112702,113099
112723,113061
112646,113047
112559,112985
112641,113066
112737,113076
112651,113093
112634,113047
112595,113014
112693,113095
112767,113113
112727,113076
112701,113092
112659,113085
112772,113104
112805,113124
112809,113131
112770,113126
112702,113074
112872,113150
112907,113201
112905,113138
112888,113162
112846,113149
112983,113211
113020,113266
113036,113235
113013,113222
112985,113221
113104,113259
113161,113330
113166,113265
113121,113300
113165,113294
113227,113370
113271,113347
113264,113364
113232,113297
113254,113319
113310,113390
113380,113403
113342,113363
113293,113344
113291,113347
113387,113413
113408,113439
113388,113395
113358,113366
113346,113374
113441,113405
113476,113473
113458,113408
113410,113397
113378,113433
113472,113464
113529,113450
113473,113448
113433,113399
113433,113425
113542,113449
113593,113517
113507,113445
113474,113430
113509,113446
