11111,11111
0,0
82271,81729
108325,104585
108350,104594
108364,104568
108348,104592
108432,104591
108419,104657
108421,104661
108483,104662
108513,104656
108476,104699
108513,104647
108561,104713
108553,104709
108576,104774
108564,104715
108635,104771
108619,104749
108641,104749
108671,104807
108623,104772
108661,104787
108641,104774
108683,104803
108672,104818
108669,104785
108660,104787
108663,104798
108609,104788
108671,104809
108627,104816
108631,104786
108606,104814
108653,104793
108652,104813
108665,104789
108694,104826
108663,104801
108690,104846
108695,104811
108737,104867
108708,104821
108753,104885
108774,104876
108788,104878
108831,104938
108840,104889
108889,104941
108870,104937
108927,104952
108952,104983
108971,105037
108982,104994
109046,105023
109072,105059
109099,105064
109147,105113
109126,105091
109178,105102
109167,105128
109213,105134
109271,105158
109286,105150
109299,105188
109323,105230
109320,105192
109336,105196
109373,105232
109410,105215
109390,105237
109445,105250
109431,105224
109499,105280
109451,105240
109492,105286
109513,105266
109495,105273
109559,105286
109558,105326
109530,105299
109555,105285
109579,105332
109600,105291
109622,105318
109603,105319
109606,105329
109643,105300
109649,105358
109650,105311
109699,105369
109681,105343
109717,105302
109683,105353
109722,105371
109722,105333
109739,105367
109744,105361
109771,105339
109739,105382
109763,105340
109750,105361
109802,105351
109774,105383
109809,105418
109800,105369
109847,105408
109796,105395
109841,105438
109869,105426
109852,105400
109882,105417
109863,105421
109857,105427
109917,105419
109888,105406
109921,105446
109921,105412
109958,105481
109910,105469
109972,105472
109959,105479
109991,105461
109958,105475
110004,105469
110227,105588
110367,105669
110400,105662
108818,104920
108769,104900
108699,104865
108813,104953
108888,104998
108921,104973
108907,105020
109140,105159
109216,105130
109205,105141
109230,105164
109222,105141
109276,105165
109254,105145
109297,105170
109290,105193
109307,105173
109364,105232
109385,105199
109389,105231
109411,105230
109404,105255
109429,105251
109445,105286
109438,105230
109504,105309
109477,105294
109466,105268
109537,105260
109526,105310
109522,105269
109533,105270
109506,105276
109515,105264
109528,105304
109511,105236
109522,105274
109485,105254
109483,105256
109441,105260
109455,105231
109430,105231
109439,105225
109389,105228
109394,105195
109372,105192
109365,105195
109337,105176
109328,105134
109292,105157
109299,105167
109291,105174
109308,105115
109254,105161
109299,105172
109340,105153
109320,105185
109304,105136
109334,105172
109350,105171
109346,105158
109423,105188
109389,105199
109404,105205
109387,105205
109419,105243
109434,105203
109473,105271
109501,105219
109505,105258
109553,105240
109500,105257
109574,105276
109598,105275
109580,105291
109590,105271
109619,105291
109580,105314
109620,105280
109676,105323
109644,105311
109640,105308
109700,105331
109671,105360
109690,105301
109679,105334
109725,105328
109707,105330
109731,105330
109703,105373
109754,105331
109714,105347
109761,105350
109756,105319
109758,105333
109741,105341
109789,105323
109772,105323
109752,105323
109727,105328
109793,105331
109750,105316
109771,105285
109778,105306
109743,105301
109762,105292
109735,105295
109745,105290
109746,105265
109732,105309
109757,105278
109766,105267
109765,105279
109760,105262
109790,105304
109757,105240
109769,105263
109751,105257
109758,105255
109763,105261
109796,105261
109785,105264
109778,105265
109782,105271
109817,105247
109773,105285
109746,105253
109815,105242
109770,105267
109758,105226
109772,105218
109743,105213
109762,105184
109698,105172
109710,105162
109724,105154
109678,105140
109686,105123
109695,105110
109659,105138
109669,105080
109671,105060
109612,105060
109648,105047
109650,105016
109567,105026
109556,104978
109533,104967
109494,104948
109460,104900
109390,104885
109328,104820
109235,104773
109163,104716
108931,104606
108765,104474
108628,104398
108413,104284
108280,104191
108137,104113
107993,104064
107836,103943
107771,103931
107625,103830
107508,103790
107427,103740
107340,103689
107274,103619
107211,103614
107103,103536
107060,103545
107038,103528
106980,103511
107000,103500
106928,103522
106911,103493
106934,103499
106900,103489
106909,103508
106924,103479
106915,103518
106931,103485
106950,103494
106962,103545
106979,103571
106971,103551
107042,103544
106991,103590
107022,103568
107050,103595
107067,103631
107047,103574
107109,103627
107081,103609
107107,103645
107128,103654
107121,103641
107112,103652
107154,103660
107132,103622
107165,103659
107137,103617
107157,103679
107134,103639
107164,103662
107178,103644
107184,103673
107220,103635
107203,103660
107189,103640
107233,103636
107209,103682
107210,103692
107215,103685
107236,103701
107237,103689
107285,103689
107260,103665
107327,103714
107303,103715
107347,103744
107362,103709
107328,103755
107358,103691
107353,103706
107360,103738
107410,103726
107364,103710
107391,103765
107371,103687
107399,103728
107382,103720
107361,103698
107379,103657
107336,103689
107315,103645
107311,103667
107273,103644
107247,103598
107249,103621
107248,103570
107219,103582
107177,103535
107191,103556
107146,103503
107149,103502
107087,103471
107104,103507
107060,103461
107100,103445
107057,103452
107039,103440
107051,103446
107011,103447
107050,103410
107029,103438
107005,103432
107041,103459
107019,103395
107052,103439
107068,103432
107073,103453
107057,103440
107110,103469
107131,103475
107122,103475
107133,103469
107140,103452
107151,103492
107182,103492
107174,103478
107213,103508
107202,103520
107231,103501
107252,103545
107215,103516
107273,103531
107297,103546
107277,103546
107310,103551
107352,103572
107366,103597
107361,103614
107379,103632
107435,103632
107400,103643
107427,103686
107485,103676
107478,103685
107510,103713
107560,103734
107539,103684
107592,103762
107608,103727
107598,103764
107627,103761
107661,103782
107656,103782
107723,103805
107694,103782
107701,103807
107728,103843
107754,103842
107724,103820
107765,103863
107761,103840
107803,103878
107807,103827
107808,103877
107821,103858
107835,103875
107831,103862
107850,103896
107825,103848
107829,103879
107825,103863
107837,103826
107895,103867
107823,103893
107840,103835
107850,103857
107828,103861
107872,103859
107829,103855
107921,103878
107900,103846
107886,103907
107907,103858
107974,103910
107926,103879
107980,103922
107995,103938
108049,103956
108018,103948
108066,103985
108048,103984
108104,104002
108101,104002
108141,104043
108147,104008
108173,104049
108161,104060
108222,104044
108187,104081
108250,104065
108222,104078
108225,104095
108233,104056
108195,104051
108230,104070
108240,104048
108220,104025
108260,104048
108195,104084
108245,104024
108210,104051
108201,104027
108235,104033
108202,104008
108212,104045
108157,103993
108202,104004
108190,104008
108197,103987
108201,103997
108201,104002
108172,103914
108130,103932
108116,103930
108105,103883
108037,103912
108025,103862
107923,103808
107813,103768
107659,103651
107512,103580
107357,103496
107190,103411
107044,103311
106896,103268
106793,103199
106662,103147
106557,103087
106465,103042
106338,102967
106240,102922
106157,102857
106065,102849
106000,102823
105937,102788
105894,102735
105829,102722
105749,102703
105781,102688
105695,102676
105700,102661
105670,102656
105662,102651
105613,102609
105668,102669
105644,102638
105616,102631
105656,102637
105636,102660
105645,102688
105668,102654
105705,102668
105688,102726
105683,102688
105708,102696
105743,102698
105731,102747
105726,102730
105799,102750
105760,102720
105786,102769
105776,102740
105813,102742
105816,102806
105821,102760
105788,102764
105812,102773
105830,102781
105814,102745
105859,102788
105854,102785
105841,102770
105859,102802
105884,102763
105832,102794
105881,102809
105898,102822
105904,102826
105909,102849
105916,102855
105949,102853
105935,102852
106005,102897
105975,102918
105999,102888
106016,102932
106069,102904
106065,102950
106074,102901
106105,102978
106160,102969
106144,103008
106183,102984
106159,103030
106224,103020
106195,103031
106244,103056
106213,103064
106290,103055
106260,103021
106272,103082
106314,103035
106316,103060
106299,103084
106330,103080
106298,103056
106293,103078
106308,103052
106319,103055
106297,103061
106319,103074
106327,103101
106309,103084
106322,103048
106353,103088
106328,103079
106320,103083
106348,103084
106361,103085
106375,103108
106334,103100
106391,103110
106402,103101
106377,103116
106404,103130
106404,103127
106431,103109
106448,103142
106445,103139
106479,103132
106510,103169
106487,103137
106547,103156
106523,103204
106557,103160
106605,103214
106611,103196
106638,103271
106647,103263
106697,103252
106677,103285
106740,103316
106759,103288
106757,103349
106817,103334
106824,103339
106897,103348
106886,103383
106907,103347
106919,103406
106970,103401
106962,103399
107027,103445
106998,103411
107075,103470
107051,103443
107093,103494
107096,103491
107163,103476
107178,103549
107172,103480
107223,103555
107231,103548
107252,103539
107304,103546
107257,103572
107338,103587
107340,103608
107373,103578
107370,103578
107398,103619
107378,103612
107393,103591
107448,103629
107461,103601
107425,103649
107480,103659
107493,103696
107505,103636
107504,103692
107512,103703
107545,103700
107530,103665
107592,103703
107552,103663
107617,103708
107593,103693
107621,103713
107638,103702
107647,103723
107644,103718
107683,103753
107688,103764
107694,103721
107691,103781
107711,103738
107711,103788
107755,103769
107778,103784
107805,103785
107777,103788
107853,103837
107788,103831
107827,103811
107859,103818
107854,103836
107874,103875
107849,103843
107911,103835
107894,103876
107914,103880
107946,103873
107931,103878
107972,103849
107943,103909
107989,103887
107986,103929
108001,103904
108014,103921
108026,103911
108031,103899
108033,103954
108056,103917
108046,103932
108073,103941
108057,103951
108063,103925
108111,103962
108078,103942
108118,103949
108114,103951
108087,103968
108124,103925
108129,103956
108156,103971
108129,103971
108192,103999
108161,103993
108203,104000
108177,103965
108220,103988
108195,104010
108244,104005
108238,104010
108194,104002
108201,103972
108195,103949
108168,103959
108168,103971
108093,103950
108055,103875
107953,103913
107845,103816
107745,103746
107534,103648
107423,103555
107228,103492
107122,103403
106948,103379
106851,103303
106801,103247
106711,103229
106620,103222
106576,103180
106511,103117
106413,103119
106351,103069
106334,103038
106244,103075
106209,103023
106187,103050
106181,103012
106126,102992
106132,102993
106140,102976
106148,103005
106123,102979
106123,102996
106163,103027
106175,102984
106168,103052
106201,103023
106225,103046
106180,103068
106249,103043
106232,103114
106310,103078
106292,103110
106337,103093
106317,103092
106334,103113
106378,103117
106367,103108
106428,103139
106378,103133
106470,103167
106437,103147
106454,103150
106440,103178
106465,103156
106488,103146
106489,103166
106466,103190
106529,103152
106527,103189
106493,103166
106497,103168
106529,103203
106542,103173
106515,103195
106535,103151
106559,103213
106534,103181
106564,103226
106579,103220
106588,103199
106651,103205
106607,103246
106660,103221
106636,103254
106665,103242
106693,103225
106720,103276
106701,103218
106725,103272
106735,103280
106716,103247
106739,103246
106699,103248
106738,103265
106739,103257
106696,103264
106677,103237
106704,103259
106651,103230
106645,103209
106678,103207
106622,103180
106647,103197
106620,103170
106580,103161
106560,103156
106589,103169
106531,103127
106569,103169
106495,103123
106512,103110
106511,103107
106494,103133
106501,103108
106500,103113
106479,103101
106513,103097
106500,103123
106501,103097
106494,103073
106539,103121
106486,103123
106563,103134
106550,103130
106524,103108
106542,103160
106579,103107
106575,103170
106605,103134
106592,103165
106580,103141
106654,103186
106647,103180
106683,103171
106639,103150
106684,103190
106729,103217
106740,103202
106729,103222
106749,103215
106776,103200
106796,103232
106801,103209
106841,103234
106816,103232
106888,103254
106840,103283
106865,103284
106886,103290
106926,103275
106945,103315
106912,103257
106960,103330
106945,103294
106976,103305
106952,103300
107011,103305
106986,103335
106970,103266
107008,103278
107017,103305
107033,103315
107016,103346
106990,103270
107042,103322
107042,103310
107018,103335
107057,103328
107016,103301
107057,103337
107039,103293
107051,103337
107085,103328
107103,103330
107063,103337
107106,103312
107134,103363
107117,103332
107144,103350
107149,103346
107153,103354
107179,103375
107159,103316
107159,103336
107216,103377
107169,103355
107202,103345
107162,103357
107175,103331
107204,103356
107170,103370
107228,103371
107199,103338
107231,103349
107194,103335
107246,103348
107180,103345
107252,103353
107198,103353
107235,103339
107221,103371
107236,103326
107235,103324
107234,103337
107220,103325
107211,103339
107209,103272
107228,103305
107178,103306
107207,103315
107161,103295
107231,103299
107180,103295
107151,103258
107127,103235
107105,103214
106973,103178
106910,103113
106781,103071
106648,102950
106536,102884
106381,102804
106316,102771
106158,102750
106039,102623
105867,102539
105749,102460
105616,102397
105491,102310
105376,102266
105241,102210
105120,102130
105008,102077
104954,102036
104825,102012
104726,101877
104713,101918
104612,101892
104568,101830
104551,101837
104440,101812
104445,101770
104405,101768
104387,101772
104385,101740
104344,101739
104363,101733
104348,101738
104359,101753
104343,101715
104342,101746
104360,101752
104371,101768
104386,101774
104427,101767
104401,101776
104436,101809
104430,101797
104474,101827
104483,101842
104471,101844
104508,101825
104489,101841
104512,101867
104523,101876
104503,101869
104560,101897
104513,101863
104532,101864
104543,101866
104521,101856
104577,101903
104549,101870
104522,101895
104567,101888
104558,101902
104585,101882
104562,101911
104585,101902
104590,101915
104588,101902
104595,101908
104573,101885
104633,101908
104625,101924
104637,101940
104644,101909
104694,101929
104684,101979
104688,101961
104701,101968
104748,101960
104745,102005
104750,101951
104756,101990
104802,101964
104764,101964
104779,101988
104823,101988
104776,102001
104830,102017
104829,101981
104819,102015
104830,101985
104798,101974
104832,102003
104776,101985
104786,101968
104781,101988
104795,101994
104789,101992
104817,101978
104778,101991
104775,101946
104764,101967
104749,101944
104760,101921
104788,101981
104735,101928
104729,101963
104749,101970
104774,101940
104783,101972
104752,101952
104779,101987
104816,101970
104762,101969
104806,101962
104793,102014
104836,101985
104848,101997
104857,102007
104889,101979
104924,102023
104894,102048
104911,101999
104968,102058
104987,102043
104990,102077
104997,102081
105034,102059
105025,102114
105062,102092
105115,102105
105106,102150
105140,102113
105161,102184
105186,102164
105214,102138
105215,102198
105220,102192
105274,102206
105262,102192
105324,102216
105315,102237
105300,102210
105368,102233
105385,102250
105355,102236
105370,102260
105414,102259
105417,102263
105423,102263
105415,102282
105454,102301
105478,102292
105461,102269
105506,102268
105507,102313
105535,102314
105533,102315
105541,102283
105567,102309
105541,102341
105590,102354
105617,102333
105618,102333
105627,102373
105665,102349
105672,102363
105657,102356
105684,102356
105693,102402
105678,102361
105736,102411
105716,102418
105733,102390
105742,102422
105764,102429
105780,102391
105811,102418
105795,102405
105836,102445
105841,102433
105806,102451
105876,102427
105852,102508
105866,102430
105915,102461
105914,102465
105910,102460
105927,102519
105935,102492
105986,102517
105988,102512
105960,102505
106032,102521
106009,102557
106060,102520
106057,102562
106090,102548
106076,102552
106109,102593
106132,102604
106134,102596
106156,102564
106173,102608
106221,102627
106214,102606
106230,102632
106260,102665
106291,102645
106286,102685
106320,102664
106349,102675
106387,102724
106392,102688
106391,102735
106415,102713
106447,102727
106389,102735
106463,102765
106474,102799
106473,102742
106525,102769
106486,102784
106542,102814
106540,102794
106562,102813
106556,102795
106568,102817
106611,102844
106637,102822
106602,102809
106645,102808
106578,102833
106548,102800
106509,102748
106453,102708
106372,102654
106226,102611
106138,102528
105994,102472
105859,102412
105750,102352
105616,102286
105527,102217
105385,102197
105264,102135
105141,102069
105083,102011
104954,102000
104830,101895
104774,101929
104697,101853
104634,101860
104587,101805
104484,101766
104472,101795
104389,101750
104355,101745
104331,101711
104301,101719
104291,101681
104286,101694
104242,101705
104230,101695
104283,101678
104218,101684
104239,101682
104239,101710
104245,101669
104280,101699
104250,101697
104304,101694
104297,101703
104258,101703
104314,101689
104310,101727
104342,101737
104374,101733
104361,101768
104342,101712
104412,101773
104386,101742
104409,101740
104389,101737
104436,101774
104424,101735
104454,101769
104461,101752
104439,101752
104458,101765
104474,101765
104451,101769
104460,101768
104437,101764
104479,101784
104495,101782
104455,101792
104462,101741
104508,101771
104485,101723
104483,101778
104471,101742
104527,101773
104511,101794
104538,101760
104582,101771
104586,101792
104574,101801
104577,101788
104636,101838
104625,101794
104624,101813
104650,101827
104638,101834
104681,101830
104639,101833
104695,101871
104661,101823
104698,101837
104691,101899
104716,101842
104724,101848
104669,101828
104710,101835
104669,101855
104712,101854
104687,101876
104695,101814
104675,101866
104652,101850
104652,101859
104628,101807
104675,101831
104616,101802
104664,101821
104632,101827
104630,101798
104624,101795
104636,101788
104631,101829
104638,101800
104622,101796
104623,101789
104667,101821
104615,101803
104696,101830
104679,101852
104713,101829
104705,101845
104735,101838
104765,101892
104735,101864
104787,101884
104787,101890
104804,101914
104849,101873
104870,101919
104859,101897
104929,101951
104944,101965
104954,101958
105029,101992
104992,101990
105031,102008
105046,102048
105086,102026
105092,102045
105155,102082
105139,102072
105223,102117
105201,102088
105222,102081
105236,102142
105237,102115
105298,102134
105334,102152
105310,102146
105366,102182
105345,102166
105416,102151
105394,102200
105429,102151
105404,102188
105458,102212
105455,102215
105487,102219
105472,102236
105468,102192
105506,102228
105523,102230
105474,102226
105542,102229
105542,102219
105542,102248
105552,102243
105572,102264
105555,102246
105564,102265
105616,102279
105578,102252
105591,102262
105649,102303
105629,102275
105659,102296
105647,102314
105673,102298
105672,102323
105732,102306
105712,102315
105720,102290
105752,102330
105703,102300
105732,102324
105764,102345
105760,102364
105779,102350
105800,102336
105823,102349
105806,102365
105829,102351
105851,102344
105813,102369
105879,102362
105849,102397
105904,102370
105882,102372
105895,102390
105958,102392
105920,102417
105935,102374
105968,102431
105939,102429
105965,102429
105996,102406
105986,102455
106032,102405
106011,102438
106009,102488
106047,102456
106077,102439
106075,102472
106108,102480
106123,102480
106126,102490
106124,102498
106128,102463
106166,102514
106134,102430
106111,102473
106054,102421
106038,102420
105944,102388
105843,102307
105754,102267
105625,102173
105491,102126
105418,102079
105264,102019
105129,101915
105066,101901
104926,101798
104791,101768
104679,101700
104555,101635
104471,101619
104344,101519
104299,101482
104180,101464
104112,101429
104048,101360
103927,101329
103883,101281
103821,101247
103806,101264
103760,101232
103695,101200
103685,101173
103633,101166
103640,101165
103578,101141
103574,101117
103593,101124
103574,101111
103563,101108
103568,101097
103566,101102
103571,101098
103575,101077
103542,101089
103570,101082
103567,101078
103581,101110
103592,101092
103591,101076
103589,101093
103628,101108
103609,101092
103607,101105
103608,101067
103631,101131
103603,101085
103626,101097
103603,101076
103633,101084
103578,101084
103580,101059
103616,101075
103554,101060
103560,101057
103623,101090
103564,101055
103598,101025
103608,101074
103590,101024
103584,101038
103581,101030
103612,101059
103636,101040
103599,101052
103646,101053
103651,101029
103664,101076
103678,101050
103635,101051
103629,101080
103654,101010
103631,101048
103657,101009
103619,100977
103580,100979
103579,100940
103577,100945
103518,100920
103486,100910
103468,100888
103471,100848
103480,100901
103478,100876
103468,100879
103402,100862
103392,100865
103411,100822
103390,100832
103349,100818
103352,100816
103328,100780
103299,100806
103318,100787
103260,100747
103254,100734
103246,100726
103287,100742
103266,100729
103255,100742
103278,100729
103257,100745
103230,100696
103184,100680
103166,100666
103161,100644
103140,100650
103132,100595
103103,100604
103136,100603
103155,100606
103168,100593
103149,100621
103129,100583
103197,100623
103163,100620
103203,100590
103183,100632
103191,100584
103246,100644
103220,100588
103240,100639
103248,100626
103271,100612
103284,100630
103255,100634
103301,100608
103292,100642
103319,100622
103317,100665
103345,100648
103345,100670
103311,100652
103363,100643
103403,100659
103341,100664
103354,100666
103398,100658
103389,100680
103389,100665
103367,100665
103367,100615
103415,100672
103374,100604
103383,100662
103341,100608
103373,100592
103337,100625
103356,100575
103358,100598
103344,100564
103328,100566
103325,100533
103349,100548
103319,100547
103345,100510
103319,100537
103309,100479
103295,100514
103317,100475
103311,100528
103332,100482
103340,100502
103355,100515
103328,100497
103340,100498
103355,100479
103339,100489
103337,100471
103323,100431
103301,100437
103275,100411
103288,100440
103254,100376
103232,100391
103298,100401
103226,100351
103263,100365
103215,100329
103258,100307
103210,100286
103243,100317
103224,100296
103215,100306
103207,100249
103244,100315
103245,100323
103242,100267
103216,100301
103250,100297
103231,100265
103269,100294
103228,100279
103230,100276
103268,100277
103253,100272
103237,100255
103252,100265
103256,100265
103221,100239
103247,100237
103220,100239
103213,100212
103230,100246
103222,100217
103257,100202
103203,100208
103252,100192
103208,100207
103208,100162
103205,100186
103208,100169
103131,100132
103085,100077
103054,100037
102934,99960
102871,99915
102714,99867
102624,99764
102453,99693
102287,99566
102107,99464
101957,99366
101736,99248
101591,99124
101470,99059
101278,99010
101170,98899
101015,98841
100942,98781
100785,98724
100644,98636
100580,98617
100469,98559
100397,98516
100296,98473
100231,98432
100202,98408
100093,98364
100100,98357
100050,98319
100053,98353
99993,98326
100007,98321
100005,98368
100014,98325
99977,98363
100018,98328
100024,98352
99984,98324
100034,98382
100030,98371
100035,98408
100054,98392
100066,98391
100111,98452
100092,98417
100135,98444
100149,98457
100170,98486
100153,98495
100199,98487
100195,98490
100245,98513
100288,98520
100258,98549
100245,98515
100325,98576
100303,98591
100320,98589
100353,98581
100355,98590
100383,98618
100348,98605
100401,98617
100386,98613
100407,98650
100431,98657
100421,98650
100471,98669
100436,98676
100471,98657
100505,98712
100520,98731
100568,98743
100606,98743
100663,98754
100633,98809
100710,98834
100724,98841
100751,98830
100826,98870
100814,98911
100879,98911
100918,98958
100971,98984
100951,99042
101027,99025
101039,99052
101041,99051
101083,99084
101123,99099
101194,99140
101131,99140
101205,99153
101219,99165
101243,99172
101261,99224
101264,99204
101285,99241
101300,99218
101292,99285
101350,99280
101332,99302
101328,99287
101406,99351
101368,99285
101377,99331
101436,99360
101433,99366
101442,99383
101446,99351
101483,99409
101502,99374
101516,99404
101535,99398
101564,99432
101548,99417
101617,99453
101609,99468
101625,99469
101696,99480
101652,99516
101681,99468
101750,99526
101740,99513
101740,99525
101787,99547
101770,99584
101812,99568
101855,99607
101919,99635
101948,99614
101955,99645
102023,99683
102033,99715
102042,99671
102101,99740
102104,99752
102115,99766
102168,99749
102206,99809
102188,99787
102270,99817
102270,99823
102291,99875
102319,99820
102308,99883
102333,99857
102397,99861
102403,99899
102423,99919
102429,99897
102460,99896
102456,99942
102473,99951
102493,99930
102522,99944
102561,99952
102548,99956
102611,100006
102610,99985
102640,99977
102649,100057
102676,100043
102686,100078
102698,100046
102739,100091
102741,100100
102781,100084
102796,100166
102774,100125
102815,100151
102822,100147
102796,100154
102821,100155
102817,100123
102833,100157
102908,100195
102921,100192
102910,100220
102977,100220
103003,100266
102991,100247
103079,100287
103103,100290
103099,100317
103105,100293
103182,100344
103166,100358
103199,100349
103227,100382
103258,100384
103243,100379
103309,100454
103291,100432
103384,100448
103387,100444
103391,100453
103435,100468
103474,100500
103460,100486
103475,100529
103491,100517
103528,100552
103584,100550
103549,100591
103590,100565
103618,100605
103616,100573
103647,100600
103645,100629
103644,100627
103699,100604
103691,100662
103701,100632
103719,100649
103790,100660
103775,100699
103826,100653
103827,100726
103877,100723
103909,100737
103911,100722
103908,100772
103904,100731
103921,100765
103897,100758
103892,100732
103836,100702
103753,100640
103713,100636
103551,100569
103466,100472
103352,100440
103229,100339
103131,100327
102986,100250
102919,100177
102784,100143
102702,100122
102617,100059
102482,100038
102386,99935
102330,99936
102244,99897
102201,99865
102137,99850
102073,99820
102007,99792
101970,99769
101973,99773
101958,99746
101933,99729
101844,99739
101874,99741
101895,99746
101891,99764
101905,99753
101849,99743
101887,99736
101894,99750
101936,99782
101932,99774
101949,99782
101987,99826
102005,99812
102000,99803
102051,99827
102045,99840
102109,99881
102111,99865
102136,99912
102138,99861
102183,99914
102215,99924
102221,99942
102208,99922
102260,99965
102300,99973
102284,99959
102347,99990
102327,99976
102326,99958
102368,99982
102306,99983
102362,100005
102369,99989
102389,100023
102397,99994
102422,100019
102420,100023
102445,100027
102478,100041
102496,100045
102501,100082
102544,100050
102566,100085
102569,100118
102604,100088
102621,100135
102637,100087
102662,100124
102649,100139
102659,100108
102669,100118
102678,100103
102630,100116
102590,100033
102565,100054
102564,100016
102512,99950
102534,99992
102453,99974
102426,99935
102428,99937
102397,99898
102364,99882
102274,99812
102241,99775
102148,99677
101984,99566
101917,99488
101801,99457
101730,99401
101705,99338
101633,99292
101626,99276
101584,99246
101514,99224
101489,99149
101474,99175
101472,99127
101457,99101
101400,99110
101404,99068
101362,99089
101386,99058
101362,99024
101387,99026
101379,99042
101363,99062
101399,99026
101413,99025
101426,99065
101411,99007
101421,99037
101415,99041
101426,99065
101406,99011
101501,99063
101482,99028
101488,99075
101491,99064
101545,99052
101516,99040
101561,99089
101510,99077
101518,99074
101542,99080
101561,99081
101557,99085
101575,99036
101635,99097
101618,99103
101657,99089
101625,99091
101637,99101
101651,99061
101661,99123
101652,99077
101675,99101
101678,99095
101660,99043
101692,99085
101670,99097
101672,99103
101694,99101
101696,99073
101721,99096
101720,99062
101718,99091
101723,99086
101737,99072
101729,99092
101725,99020
101717,99091
101704,99035
101725,99035
101695,99021
101701,99009
101663,99016
101644,98965
101697,98977
101652,98924
101616,98937
101610,98955
101590,98895
101634,98930
101579,98888
101587,98893
101567,98862
101596,98892
101552,98873
101584,98867
101541,98834
101554,98861
101581,98847
101546,98859
101502,98845
101548,98815
101521,98853
101535,98819
101524,98774
101556,98807
101535,98837
101495,98789
101546,98777
101555,98797
101555,98809
101558,98789
101580,98826
101531,98842
101536,98781
101565,98782
101479,98781
101439,98738
101411,98680
101317,98649
101180,98558
101115,98518
100992,98441
100896,98349
100762,98330
100603,98233
100536,98160
100414,98115
100283,98035
100135,97954
100032,97915
99889,97816
99827,97773
99659,97718
99594,97661
99480,97601
99336,97526
99236,97477
99118,97430
99045,97328
98957,97302
98884,97248
98829,97197
98734,97146
98732,97133
98654,97097
98664,97055
98598,97055
98607,97021
98606,97067
98599,97024
98595,97032
98552,97074
98593,97064
98600,97015
98621,97039
98647,97105
98655,97123
98652,97078
98696,97107
98683,97132
98695,97095
98701,97132
98695,97128
98699,97087
98712,97126
98696,97093
98683,97088
98731,97114
98648,97083
98690,97088
98657,97057
98654,97042
98683,97091
98640,97029
98643,97033
98650,97038
98604,97044
98597,97013
98615,97053
98586,97009
98609,97010
98606,96999
98584,97009
98615,97008
98600,97002
98668,96998
98623,97021
98672,97025
98656,97007
98715,97028
98703,97070
98740,97029
98727,97054
98725,97014
98743,97050
98740,97009
98753,97017
98729,97027
98735,97012
98701,97006
98738,97008
98701,97019
98721,96998
98752,97046
98738,97044
98787,97037
98732,97018
98808,97022
98758,97029
98790,97044
98793,97050
98812,97056
98772,97053
98801,97066
98802,97074
98809,97062
98793,97045
98819,97074
98778,97077
98778,97047
98803,97106
98794,97052
98842,97117
98824,97074
98845,97107
98888,97103
98876,97137
98897,97140
98938,97168
98949,97162
98944,97154
99040,97196
98993,97238
99047,97216
99014,97249
99099,97249
99111,97307
99121,97266
99178,97328
99170,97295
99191,97360
99203,97353
99260,97370
99264,97376
99322,97361
99309,97404
99294,97405
99360,97412
99355,97441
99334,97420
99419,97441
99378,97447
99410,97457
99437,97467
99496,97461
99503,97491
99519,97483
99516,97496
99534,97482
99560,97520
99572,97544
99578,97512
99614,97552
99611,97520
99645,97561
99635,97554
99668,97574
99684,97561
99677,97605
99674,97564
99739,97563
99757,97603
99755,97583
99742,97638
99744,97606
99798,97633
99809,97629
99840,97651
99806,97644
99857,97630
99840,97703
99899,97671
99943,97700
99924,97716
99958,97697
99985,97767
99997,97719
100017,97778
100040,97768
100037,97769
100065,97804
100082,97784
100098,97828
100101,97766
100102,97816
100103,97836
100142,97798
100208,97835
100157,97844
100207,97831
100174,97871
100235,97869
100251,97864
100246,97907
100264,97850
100265,97915
100270,97888
100314,97931
100313,97925
100357,97898
100364,97973
100397,97957
100432,97963
100419,98002
100439,97959
100485,98015
100457,97997
100468,98004
100507,98025
100514,98017
100552,98030
100534,98026
100533,98046
100557,98055
100567,98025
100544,98054
100544,98045
100591,98032
100554,98039
100578,98005
100556,98052
100601,98025
100613,98017
100600,98052
100570,98006
100550,98028
100534,97988
100495,97975
100430,97914
100420,97912
100286,97797
100192,97745
100095,97691
99996,97660
99865,97570
99736,97523
99628,97426
99516,97382
99405,97340
99277,97267
99137,97226
99025,97132
98948,97092
98838,97016
98727,96983
98650,96945
98530,96903
98432,96785
98368,96792
98242,96731
98208,96711
98117,96648
98074,96574
98040,96581
97962,96586
97938,96523
97902,96500
97899,96497
97860,96480
97921,96498
97887,96515
97904,96522
97914,96477
97965,96503
97971,96539
97976,96571
97988,96566
98047,96610
98088,96634
98155,96670
98214,96741
98245,96761
98333,96772
98337,96825
98347,96826
98383,96830
98390,96843
98425,96889
98438,96883
98448,96907
98489,96905
98461,96917
98504,96912
98536,96942
98562,96949
98540,96971
98560,96987
98598,96989
98591,97012
98658,97060
98665,97050
98675,97066
98746,97106
98776,97137
98794,97174
98828,97179
98884,97218
98900,97239
98966,97270
98949,97271
98991,97300
99052,97315
99040,97327
99111,97359
99115,97383
99147,97400
99209,97424
99230,97428
99259,97441
99254,97483
99315,97503
99329,97481
99383,97540
99393,97548
99454,97562
99461,97612
99542,97616
99523,97676
99578,97685
99629,97741
99611,97763
99637,97789
99699,97762
99713,97805
99686,97823
99729,97810
99788,97860
99758,97852
99778,97862
99838,97872
99818,97923
99838,97883
99839,97896
99874,97899
99858,97932
99879,97919
99892,97908
99897,97956
99927,97956
99924,97971
99964,97952
100034,98017
100019,98009
100073,98046
100099,98041
100159,98092
100196,98153
100229,98119
100271,98193
100253,98214
100272,98179
100364,98230
100342,98203
100402,98265
100404,98292
100409,98275
100460,98325
100490,98332
100484,98321
100542,98344
100580,98355
100598,98409
100628,98371
100671,98426
100686,98413
100720,98481
100699,98463
100764,98518
100759,98520
100808,98500
100862,98542
100873,98606
100926,98578
100952,98629
101011,98632
101009,98655
101057,98659
101060,98665
101104,98706
101136,98751
101170,98757
101196,98771
101252,98832
101266,98826
101267,98836
101280,98865
101334,98869
101364,98871
101363,98889
101409,98914
101420,98940
101414,98903
101463,98957
101463,98928
101494,98935
101493,98957
101519,98941
101558,98976
101574,98974
101593,98986
101606,99016
101646,99065
101684,99025
101714,99076
101720,99044
101769,99095
101751,99117
101811,99124
101846,99144
101829,99156
101888,99153
101922,99211
101947,99189
101958,99245
102000,99212
101990,99272
102017,99248
102073,99251
102081,99286
102115,99317
102107,99313
102179,99298
102178,99348
102208,99374
102248,99391
102223,99391
102305,99390
102312,99447
102374,99440
102404,99449
102418,99507
102461,99493
102450,99502
102552,99578
102527,99567
102561,99567
102644,99615
102634,99607
102639,99622
102677,99647
102680,99638
102697,99630
102708,99660
102746,99669
102751,99683
102735,99666
102789,99658
102743,99663
102784,99676
102801,99698
102773,99647
102863,99698
102836,99687
102883,99720
102863,99743
102903,99697
102919,99777
102968,99751
102978,99788
102971,99768
103025,99779
102977,99799
103006,99769
102989,99792
102952,99761
102869,99730
102822,99647
102755,99596
102654,99571
102535,99468
102451,99459
102306,99364
102230,99309
102090,99293
101991,99166
101932,99164
101814,99087
101736,99048
101620,99019
101535,98966
101428,98916
101381,98912
101313,98852
101204,98806
101190,98781
101126,98717
101036,98754
101016,98661
101002,98702
100983,98646
100942,98637
100913,98625
100908,98586
100918,98630
100882,98599
100884,98592
100901,98596
100896,98645
100888,98595
100970,98645
100951,98647
100952,98636
101003,98679
100974,98638
101018,98670
100990,98659
101074,98690
101061,98675
101086,98682
101066,98689
101099,98685
101099,98705
101123,98685
101104,98695
101131,98708
101105,98686
101164,98685
101161,98727
101146,98709
101154,98685
101101,98699
101151,98697
101150,98666
101155,98695
101114,98637
101098,98641
101110,98659
101069,98627
101054,98582
101040,98628
101035,98590
101030,98606
101068,98595
101030,98589
101029,98578
101038,98557
101067,98583
101036,98554
101082,98553
101036,98536
101074,98507
101060,98584
101063,98547
101047,98537
101011,98523
101049,98497
101046,98539
101038,98488
101034,98487
101040,98508
101026,98470
101009,98498
100992,98472
100986,98425
100959,98449
100901,98400
100911,98415
100899,98378
100862,98351
100859,98376
100843,98339
100782,98284
100789,98304
100748,98273
100740,98282
100706,98243
100717,98236
100683,98227
100646,98174
100577,98184
100547,98111
100575,98154
100559,98134
100530,98120
100567,98085
100539,98116
100533,98088
100572,98130
100567,98106
100553,98113
100588,98124
100589,98119
100569,98105
100578,98114
100611,98118
100607,98118
100623,98123
100600,98129
100604,98071
100620,98117
100611,98098
100624,98101
100607,98128
100612,98076
100641,98114
100575,98080
100617,98083
100594,98075
100652,98086
100640,98086
100600,98042
100652,98086
100648,98039
100625,98039
100584,98012
100647,98031
100606,97973
100593,97995
100600,98003
100584,97993
100550,97942
100595,97991
100563,97953
100559,97954
100549,97945
100524,97949
100540,97912
100587,97955
100514,97886
100556,97926
100527,97915
100520,97874
100517,97838
100406,97753
100407,97770
100383,97775
100411,97733
100396,97745
100386,97729
100423,97718
100383,97740
100392,97699
100376,97700
100394,97696
100367,97744
100385,97675
100375,97721
100374,97658
100369,97659
100368,97679
100408,97675
100363,97645
100398,97671
100344,97636
100358,97677
100332,97611
100333,97619
100296,97613
100328,97603
100304,97581
100307,97551
100299,97544
100272,97565
100263,97502
100229,97539
100202,97462
100216,97496
100129,97440
100184,97424
100153,97422
100164,97427
100119,97365
100119,97400
100084,97354
100105,97347
100079,97345
100057,97297
100071,97348
100040,97274
99997,97273
99905,97232
99831,97160
99778,97097
99667,97051
99600,97006
99480,96928
99357,96902
99239,96809
99169,96739
99029,96691
98916,96619
98819,96574
98731,96515
98596,96438
98559,96414
98441,96364
98346,96271
98265,96253
98191,96222
98092,96175
98049,96081
97962,96110
97915,96087
97893,96057
97889,96039
97837,96000
97845,96030
97790,96032
97775,95998
97778,95997
97829,95994
97797,96031
97776,96002
97832,96034
97807,96040
97807,96037
97826,96038
97868,96035
97877,96058
97876,96086
97872,96077
97908,96078
97955,96123
97927,96100
98012,96126
97983,96169
97997,96167
98048,96185
98053,96267
98069,96252
98183,96323
98181,96336
98223,96404
98275,96445
98367,96507
98423,96543
98501,96623
98509,96647
98583,96713
98653,96801
98734,96835
98767,96878
98814,96911
98867,96982
98970,97072
98990,97063
99016,97090
99075,97130
99112,97187
99195,97209
99164,97230
99233,97249
99265,97274
99296,97296
99340,97318
99367,97352
99405,97375
99429,97350
99457,97405
99494,97439
99500,97442
99557,97479
99606,97502
99590,97542
99628,97542
99660,97580
99707,97597
99684,97617
99717,97627
99765,97657
99799,97711
99843,97707
99893,97749
99912,97812
100057,97874
100114,98024
100218,98059
100298,98108
100350,98171
100426,98206
100496,98294
100600,98361
100685,98434
100812,98541
100854,98604
100989,98676
101050,98721
101045,98736
101158,98790
101217,98854
101215,98827
101289,98905
101322,98931
101378,98938
101397,98966
101422,99011
101492,99020
101488,99033
101536,99031
101560,99061
101602,99087
101652,99106
101645,99138
101689,99124
101720,99159
101771,99164
101793,99166
101772,99188
101809,99209
101823,99214
101868,99270
101897,99263
101937,99268
101945,99278
101947,99286
102006,99297
101988,99326
101989,99328
102058,99326
102042,99331
102092,99353
102105,99366
102099,99355
102134,99429
102185,99414
102196,99407
102209,99455
102193,99435
102231,99469
102253,99456
102253,99473
102294,99438
102334,99524
102342,99494
102343,99501
102342,99525
102373,99505
102396,99537
102401,99505
102414,99527
102439,99570
102472,99578
102460,99564
102490,99587
102514,99548
102541,99599
102531,99612
102528,99580
102576,99612
102569,99628
102593,99596
102602,99645
102598,99608
102612,99651
102585,99629
102658,99650
102656,99645
102635,99622
102660,99630
102670,99667
102661,99632
102712,99668
102702,99669
102747,99683
102726,99739
102778,99685
102776,99708
102816,99716
102803,99742
102817,99718
102868,99724
102841,99750
102903,99733
102892,99757
102895,99758
102915,99756
102963,99794
102925,99787
102940,99792
102971,99776
102943,99782
102972,99776
102949,99823
102957,99795
102988,99801
102993,99778
103004,99829
103010,99819
103020,99803
103022,99797
103040,99836
103039,99844
103093,99830
103074,99841
103111,99835
103115,99881
103132,99860
103173,99856
103147,99876
103150,99843
103176,99902
103157,99861
103187,99865
103186,99861
103147,99878
103187,99874
103157,99864
103225,99853
103208,99876
103207,99864
103216,99865
103209,99852
103206,99884
103189,99874
103222,99865
103180,99804
103110,99788
103083,99808
103006,99739
102929,99661
102807,99642
102679,99512
102631,99470
102475,99428
102390,99345
102245,99267
102127,99164
102015,99159
101865,99058
101786,99005
101678,98978
101544,98889
101486,98849
101350,98805
101287,98731
101219,98730
101113,98690
101037,98623
101039,98597
100942,98591
100922,98539
100859,98510
100878,98536
100801,98531
100796,98547
100817,98519
100806,98533
100803,98507
100843,98527
100843,98561
100847,98539
100866,98559
100866,98570
100843,98563
100927,98620
100932,98625
100965,98629
100984,98692
101000,98679
101032,98700
101056,98707
101061,98719
101086,98705
101092,98772
101085,98735
101112,98715
101136,98733
101105,98734
101125,98762
101154,98764
101131,98735
101132,98736
101147,98784
101166,98772
101183,98766
101189,98798
101164,98779
101215,98787
101223,98797
101209,98786
101241,98811
101187,98813
101232,98814
101248,98827
101223,98846
101244,98806
101296,98839
101245,98821
101274,98846
101288,98857
101316,98838
101302,98836
101344,98872
101326,98866
101356,98850
101378,98837
101337,98862
101368,98863
101371,98831
101410,98874
101373,98835
101375,98867
101398,98866
101388,98887
101352,98836
101443,98867
101391,98878
101384,98871
101412,98872
101460,98881
101427,98913
101424,98846
101439,98893
101431,98872
101433,98871
101412,98898
101399,98909
101464,98903
101429,98865
101456,98888
101468,98928
101431,98899
101480,98905
101459,98936
101488,98885
101469,98928
101527,98934
101522,98905
101528,98951
101533,98952
101577,98963
101585,98966
101552,99008
101588,98984
101667,99027
101630,99005
101648,99015
101685,99062
101691,99047
101713,99037
101798,99087
101783,99080
101790,99088
101797,99090
101810,99109
101835,99096
101876,99118
101879,99140
101933,99139
101951,99200
101985,99177
101961,99222
101983,99165
102052,99221
102059,99268
102073,99255
102109,99274
102076,99276
102156,99264
102144,99334
102207,99299
102233,99331
102214,99359
102240,99345
102317,99393
102294,99363
102352,99398
102339,99417
102390,99427
102406,99456
102455,99505
102477,99484
102516,99505
102543,99497
102569,99529
102547,99538
102590,99522
102595,99598
102633,99563
102634,99574
102685,99575
102671,99627
102700,99581
102741,99624
102711,99590
102717,99620
102748,99642
102722,99620
102728,99607
102749,99645
102735,99606
102738,99613
102720,99567
102662,99574
102645,99539
102661,99572
102613,99576
102631,99537
102613,99547
102647,99570
102605,99560
102693,99553
102647,99574
102626,99556
102587,99543
102586,99502
102594,99531
102569,99501
102607,99550
102559,99532
102584,99532
102614,99519
102594,99574
102595,99520
102645,99583
102673,99565
102644,99628
102669,99588
102718,99608
102709,99601
102759,99640
102767,99611
102789,99658
102836,99655
102824,99635
102886,99695
102899,99676
102878,99731
102938,99736
102961,99750
102955,99780
102962,99722
103016,99789
103002,99759
103023,99753
103083,99802
103053,99802
103088,99800
103115,99820
103100,99839
103126,99838
103148,99835
103144,99834
103179,99852
103192,99856
103225,99853
103192,99859
103278,99896
103214,99902
103265,99884
103276,99894
103292,99912
103313,99907
103329,99934
103366,99980
103334,99939
103359,99971
103363,99929
103286,99911
103266,99878
103211,99820
103101,99802
103009,99749
102947,99695
102853,99642
102767,99587
102664,99564
102609,99510
102471,99448
102366,99397
102232,99362
102167,99326
102050,99234
102009,99198
101910,99197
101855,99157
101821,99121
101745,99112
101657,99070
101682,99077
101602,99043
101606,99044
101553,99032
101578,99000
101523,99049
101543,99004
101556,99041
101572,99033
101587,99057
101578,99038
101625,99076
101640,99100
101661,99107
101688,99108
101678,99136
101754,99171
101771,99187
101803,99179
101806,99201
101811,99224
101879,99248
101901,99259
101894,99257
101918,99295
101957,99271
101979,99300
102012,99305
102035,99316
102048,99318
102077,99342
102085,99323
102082,99351
102123,99376
102113,99386
102128,99346
102175,99370
102176,99361
102181,99370
102194,99409
102206,99403
102193,99432
102274,99423
102280,99430
102261,99434
102308,99444
102342,99506
102327,99456
102370,99511
102414,99494
102460,99534
102427,99554
102490,99538
102525,99546
102541,99592
102581,99609
102552,99621
102639,99630
102665,99661
102655,99661
102711,99690
102694,99671
102728,99692
102728,99700
102775,99703
102759,99707
102792,99703
102775,99694
102801,99689
102741,99720
102745,99686
102770,99670
102746,99716
102749,99688
102795,99736
102773,99689
102796,99698
102774,99726
102774,99729
102815,99723
102767,99707
102823,99715
102793,99765
102807,99771
102823,99761
102867,99751
102918,99820
102904,99787
102938,99803
102955,99845
102956,99856
102998,99846
103014,99896
103046,99902
103057,99887
103103,99918
103099,99938
103118,99944
103150,99961
103166,99967
103191,99987
103203,99992
103229,100013
103242,100010
103282,100019
103252,100031
103303,100040
103303,100074
103318,100077
103344,100085
103332,100073
103373,100064
103385,100117
103406,100125
103448,100100
103420,100150
103490,100139
103456,100135
103502,100170
103503,100182
103535,100189
103551,100158
103530,100218
103577,100191
103596,100196
103607,100229
103595,100211
103653,100241
103625,100259
103667,100252
103640,100276
103667,100268
103707,100298
103698,100290
103692,100295
103721,100298
103710,100320
103785,100299
103776,100331
103771,100330
103807,100325
103807,100311
103813,100378
103823,100323
103859,100386
103872,100346
103861,100361
103897,100402
103878,100389
103960,100395
103913,100401
103959,100411
103954,100448
103945,100421
104035,100456
103994,100453
104008,100441
104024,100488
104058,100463
104039,100469
104091,100462
104075,100503
104103,100486
104126,100499
104103,100518
104152,100534
104158,100502
104181,100555
104160,100539
104191,100541
104238,100542
104206,100600
104270,100554
104313,100628
104295,100601
104313,100609
104365,100599
104339,100626
104391,100621
104359,100679
104427,100658
104419,100674
104437,100697
104429,100685
104489,100674
104446,100730
104463,100683
104506,100703
104434,100678
104409,100656
104309,100616
104256,100602
104164,100525
104136,100491
104028,100460
103911,100426
103778,100291
103736,100311
103575,100247
103511,100213
103370,100122
103322,100106
103182,100043
103117,100013
103010,99999
102909,99946
102860,99916
102758,99838
102684,99803
102591,99798
102574,99751
102483,99749
102408,99707
102364,99682
102328,99626
102307,99627
102260,99646
102209,99593
102219,99619
102192,99604
102136,99582
102142,99568
102113,99562
102087,99573
102086,99583
102057,99557
102088,99550
102052,99586
102064,99561
102055,99546
102036,99593
102033,99527
102061,99584
102028,99536
102028,99544
102075,99529
102024,99553
102012,99586
102005,99547
102043,99546
102051,99543
102010,99537
102019,99549
101972,99563
101986,99514
101980,99551
101953,99537
101963,99504
101930,99500
101915,99520
101905,99475
101944,99529
101941,99500
101940,99511
101906,99498
101936,99493
101916,99532
101942,99500
101970,99489
101962,99529
101987,99543
101974,99567
101986,99581
102024,99533
102015,99552
102046,99587
102077,99582
102027,99565
102092,99573
102044,99621
102095,99600
102081,99605
102123,99618
102097,99627
102119,99582
102101,99626
102126,99622
102113,99613
102087,99605
102093,99618
102089,99579
102114,99620
102101,99603
102051,99597
102073,99627
102069,99574
102107,99622
102075,99593
102085,99591
102084,99602
102071,99601
102065,99595
102098,99589
102065,99624
102035,99579
102079,99592
102047,99626
102060,99582
102131,99607
102101,99625
102094,99609
102139,99605
102119,99616
102123,99598
102205,99642
102147,99611
102194,99632
102195,99638
102200,99635
102216,99618
102258,99645
102231,99647
102259,99653
102285,99689
102296,99687
102306,99681
102314,99700
102379,99711
102353,99708
102386,99745
102380,99723
102391,99737
102416,99729
102498,99785
102502,99805
102511,99785
102510,99802
102548,99784
102568,99836
102552,99807
102615,99832
102595,99830
102598,99848
102586,99810
102646,99880
102618,99853
102664,99878
102694,99870
102680,99886
102726,99906
102748,99870
102735,99924
102739,99903
102785,99906
102768,99916
102791,99903
102804,99950
102815,99934
102836,99914
102851,99952
102829,99936
102897,99973
102873,99954
102882,99964
102907,99956
102938,99977
102902,99967
102958,99999
102927,100016
102952,100002
102962,99994
102988,100005
102993,100015
103048,100027
102992,100019
103030,100027
103048,100073
103070,100032
103083,100059
103059,100045
103089,100057
103099,100081
103075,100060
103110,100061
103137,100075
103138,100082
103152,100040
103151,100102
103164,100084
103174,100111
103186,100063
103173,100127
103180,100083
103240,100106
103255,100106
103238,100125
103194,100106
103232,100124
103276,100093
103221,100096
103247,100121
103249,100099
103235,100141
103229,100083
103247,100146
103230,100077
103268,100134
103217,100095
103247,100066
103207,100119
103160,100057
103181,100087
103208,100090
103212,100044
103221,100074
103182,100077
103216,100066
103198,100064
103185,100064
103219,100103
103224,100101
103276,100101
103218,100083
103235,100101
103237,100093
103273,100121
103279,100116
103278,100085
103280,100145
103303,100062
103292,100133
103272,100074
103273,100097
103215,100081
103174,100016
103170,100031
103096,99973
103024,99947
102925,99903
102793,99826
102717,99767
102592,99714
102477,99687
102349,99616
102207,99543
102111,99459
101978,99455
101872,99356
101759,99305
101603,99260
101508,99181
101428,99185
101292,99100
101247,99045
101122,99001
101050,98961
101018,98932
100943,98934
100878,98853
100868,98874
100802,98844
100760,98860
100746,98828
100776,98855
100727,98847
100724,98820
100716,98775
100756,98815
100742,98829
100729,98858
100730,98805
100714,98853
100716,98811
100741,98819
100727,98821
100746,98816
100754,98826
100719,98823
100749,98810
100736,98828
100710,98814
100743,98832
100726,98819
100749,98817
100737,98812
100748,98831
100772,98832
100773,98822
100742,98846
100747,98816
100760,98839
100775,98838
100781,98827
100755,98822
100791,98843
100775,98826
100777,98817
100772,98820
100749,98815
100790,98817
100744,98794
100751,98781
100743,98806
100796,98810
100760,98840
100754,98778
100828,98847
100827,98822
100839,98819
100867,98834
100883,98873
100919,98855
100913,98898
100950,98861
100928,98893
100955,98860
100915,98900
100944,98894
100962,98866
100957,98906
100903,98858
100937,98890
100936,98866
100909,98870
100927,98872
100892,98861
100908,98883
100892,98842
100895,98881
100911,98857
100870,98876
100909,98853
100881,98883
100924,98863
100941,98879
100897,98885
100931,98860
100902,98886
100939,98870
100921,98887
100900,98868
100943,98892
100915,98892
100897,98902
100904,98871
100944,98897
100959,98877
100993,98886
100960,98915
101022,98939
101035,98964
101027,98943
101058,98943
101061,98963
101103,98976
101111,98971
101155,99024
101119,99012
101165,98992
101166,99014
101181,99023
101189,99017
101215,99069
101240,99024
101263,99085
101277,99066
101262,99063
101307,99075
101304,99092
101357,99099
101324,99105
101367,99110
101371,99111
101399,99149
101407,99138
101396,99126
101437,99139
101472,99129
101476,99167
101499,99163
101459,99155
101487,99177
101486,99145
101502,99168
101546,99174
101522,99154
101530,99184
101555,99169
101565,99192
101596,99191
101609,99207
101641,99222
101661,99217
101673,99245
101701,99267
101720,99285
101732,99274
101755,99294
101808,99307
101795,99316
101794,99336
101812,99343
101853,99372
101855,99362
101859,99371
101875,99385
101880,99376
101904,99375
101889,99377
101919,99377
101927,99382
101927,99397
101954,99398
101945,99395
101977,99414
102001,99437
102017,99434
102033,99443
102049,99448
102076,99466
102075,99465
102112,99484
102129,99487
102142,99531
102192,99534
102219,99565
102226,99537
102238,99564
102267,99572
102255,99588
102310,99591
102325,99608
102351,99615
102362,99627
102381,99645
102410,99663
102419,99677
102457,99714
102503,99706
102498,99688
102510,99734
102538,99767
102572,99762
102588,99766
102613,99792
102616,99775
102667,99795
102638,99813
102678,99815
102698,99794
102713,99846
102701,99841
102728,99828
102725,99854
102764,99866
102749,99857
102796,99867
102771,99870
102795,99873
102771,99887
102818,99898
102833,99879
102862,99916
102859,99921
102892,99923
102903,99918
102919,99922
102941,99950
102913,99951
102952,99955
102966,99971
102977,99954
102981,99971
102990,99993
103014,99979
103037,99988
103062,99990
103035,100005
103074,100023
103061,100030
103111,100030
103127,100040
103123,100058
103092,100053
103070,100023
103053,100005
103017,99960
102930,99954
102865,99896
102778,99851
102667,99779
102528,99750
102486,99720
102313,99659
102241,99611
102153,99557
102049,99516
101939,99476
101834,99431
101733,99380
101634,99334
101565,99307
101464,99273
101389,99240
101320,99210
101274,99162
101223,99158
101152,99141
101090,99102
101110,99105
101059,99111
101047,99090
101040,99098
100998,99082
100989,99097
101024,99105
101021,99114
101046,99117
101034,99124
101091,99143
101069,99148
101090,99161
101125,99163
101148,99186
101158,99195
101167,99205
101188,99219
101191,99219
101266,99252
101274,99257
101269,99276
101321,99300
101370,99311
101346,99333
101398,99298
101386,99324
101425,99351
101462,99349
101461,99375
101462,99371
101473,99379
101518,99396
101529,99406
101501,99415
101538,99418
101562,99445
101583,99452
101585,99424
101603,99444
101612,99445
101601,99465
101640,99466
101647,99475
101662,99468
101682,99501
101719,99471
101729,99506
101744,99556
101784,99520
101805,99537
101783,99568
101856,99586
101866,99607
101878,99631
101880,99578
101942,99640
101954,99620
101958,99622
102012,99643
101973,99656
102016,99684
101996,99652
102010,99647
101993,99650
102046,99664
101980,99673
101986,99645
102025,99667
102027,99671
101996,99655
102052,99687
102008,99703
102028,99680
102067,99686
102031,99714
102050,99698
102108,99739
102107,99701
102118,99753
102112,99775
102132,99721
102170,99775
102140,99760
102170,99763
102176,99774
102228,99779
102245,99821
102228,99781
102287,99831
102300,99846
102315,99861
102369,99878
102363,99829
102379,99868
102447,99897
102431,99925
102431,99880
102491,99944
102500,99934
102525,99932
102552,99965
102600,99956
102578,100027
102614,100007
102667,100030
102696,100062
102729,100050
102750,100096
102742,100069
102823,100068
102810,100121
102810,100103
102858,100139
102871,100134
102908,100149
102946,100150
102965,100173
102937,100146
102970,100176
102983,100195
103030,100206
103026,100220
103025,100178
103085,100211
103052,100222
103101,100248
103127,100253
103082,100274
103111,100227
103175,100277
103171,100266
103163,100281
103159,100257
103202,100277
103196,100309
103227,100284
103233,100274
103218,100296
103274,100340
103267,100310
103290,100323
103295,100344
103332,100302
103322,100368
103323,100322
103378,100347
103353,100389
103386,100328
103354,100380
103419,100413
103396,100361
103454,100380
103433,100365
103469,100416
103443,100394
103511,100399
103480,100431
103521,100409
103519,100442
103522,100446
103534,100469
103554,100455
103560,100445
103575,100448
103582,100478
103615,100494
103611,100474
103659,100513
103630,100484
103610,100497
103629,100488
103660,100497
103669,100497
103690,100499
103695,100546
103685,100520
103703,100512
103693,100523
103718,100520
103735,100532
103753,100546
103734,100528
103799,100552
103775,100552
103804,100571
103786,100569
103797,100538
103784,100611
103844,100578
103863,100593
103848,100582
103871,100598
103842,100563
103871,100598
103865,100592
103853,100603
103803,100567
103790,100522
103699,100502
103611,100461
103555,100390
103449,100354
103367,100296
103225,100242
103070,100168
102996,100089
102917,100099
102771,99988
102660,99937
102541,99885
102464,99841
102305,99835
102254,99753
102119,99708
102040,99631
101964,99631
101902,99611
101815,99536
101755,99537
101697,99513
101651,99484
101595,99458
101610,99460
101555,99421
101528,99407
101545,99409
101487,99392
101522,99425
101550,99417
101513,99388
101551,99431
101525,99442
101560,99439
101557,99437
101563,99429
101591,99428
101639,99484
101670,99467
101641,99481
101682,99494
101669,99487
101754,99513
101732,99544
101754,99539
101754,99584
101767,99546
101833,99577
101818,99571
101852,99570
101850,99584
101856,99592
101928,99592
101904,99636
101892,99605
101943,99632
101914,99624
101902,99640
101959,99616
101968,99662
101957,99625
101997,99677
101997,99647
101993,99663
102027,99674
102038,99690
102077,99676
102126,99721
102113,99717
102160,99730
102126,99713
102205,99736
102153,99786
102191,99773
102221,99764
102235,99753
102224,99760
102240,99808
102265,99772
102224,99783
102239,99785
102251,99791
102202,99731
102200,99778
102207,99778
102206,99714
102184,99748
102163,99713
102156,99761
102145,99692
102115,99710
102083,99684
102078,99710
102063,99666
102035,99628
102021,99677
101987,99621
102023,99601
101988,99644
101979,99606
101986,99583
101953,99617
101924,99575
101955,99589
101956,99580
101936,99616
101947,99601
101997,99622
102029,99627
102001,99618
102012,99638
102067,99654
102035,99654
102040,99659
102106,99702
102096,99685
102134,99704
102137,99687
102167,99744
102146,99694
102226,99746
102208,99743
102242,99745
102236,99739
102280,99782
102281,99748
102312,99807
102310,99827
102319,99805
102362,99791
102350,99796
102413,99828
102407,99838
102431,99866
102427,99865
102478,99863
102465,99873
102473,99850
102482,99892
102531,99888
102523,99907
102544,99892
102555,99941
102583,99930
102604,99915
102568,99932
102566,99928
102608,99961
102584,99935
102642,99961
102621,99938
102657,99947
102701,99956
102697,99968
102678,99986
102650,99974
102727,99968
102703,100025
102715,100009
102720,100004
102739,99996
102742,100025
102722,99983
102750,100015
102739,99999
102770,100004
102749,100016
102775,100038
102793,100020
102771,100040
102789,100025
102785,100030
102807,100058
102832,100035
102800,100041
102842,100065
102854,100044
102859,100076
102885,100075
102892,100077
102902,100104
102914,100107
102944,100060
102936,100102
102960,100152
102997,100118
102947,100115
103006,100142
103003,100131
102997,100118
103000,100136
102993,100138
103035,100132
103003,100125
103033,100136
103027,100142
103035,100167
103018,100115
103047,100136
103014,100138
103036,100117
103033,100118
103050,100165
103016,100149
103079,100130
103061,100127
103082,100145
103059,100152
103091,100148
103132,100205
103155,100189
103157,100175
103159,100185
103153,100197
103121,100171
103072,100165
103008,100110
102943,100057
102851,100042
102758,99961
102639,99896
102535,99869
102422,99774
102323,99752
102156,99697
102047,99627
101914,99550
101816,99528
101661,99424
101592,99384
101467,99324
101313,99250
101234,99194
101133,99188
100998,99077
100919,99069
100852,99007
100767,99022
100729,98983
100667,98926
100612,98908
100548,98900
100551,98894
100488,98877
100521,98868
100496,98858
100516,98879
100447,98871
100505,98853
100494,98907
100501,98881
100542,98901
100516,98908
100522,98886
100547,98900
100546,98913
100586,98920
100570,98900
100588,98900
100586,98936
100599,98887
100619,98927
100601,98901
100611,98920
100643,98940
100624,98931
100651,98945
100624,98908
100637,98910
100627,98939
100653,98901
100664,98966
100629,98938
100684,98943
100662,98948
100644,98929
100706,98944
100682,98942
100690,98960
100664,98971
100689,98933
100745,98986
100716,98929
100727,98964
100718,98998
100711,98964
100796,99006
100772,98994
100780,99006
100821,99000
100840,99019
100813,99002
100873,99024
100842,99021
100911,99049
100906,99029
100925,99073
100891,99070
100894,99034
100973,99081
100939,99079
100969,99064
100916,99069
100983,99047
100922,99105
100941,99067
100976,99095
100959,99076
100936,99046
100936,99091
100924,99053
100925,99057
100934,99050
100939,99032
100872,99066
100900,99027
100896,99024
100915,99071
100897,99045
100921,99045
100904,99039
100903,99011
100945,99068
100905,99072
100941,99073
100959,99088
100994,99080
101002,99128
100958,99099
101032,99130
101007,99132
101037,99140
101078,99157
101066,99127
101121,99161
101107,99157
101103,99157
101142,99169
101147,99164
101183,99193
101151,99192
101244,99214
101236,99252
101248,99245
101259,99229
101300,99243
101319,99286
101353,99307
101326,99283
101381,99322
101405,99330
101474,99360
101417,99354
101468,99344
101500,99401
101538,99405
101526,99419
101531,99362
101599,99377
101554,99442
101591,99414
101615,99442
101603,99410
101609,99426
101673,99452
101652,99445
101683,99453
101697,99464
101690,99439
101721,99501
101713,99501
101725,99492
101769,99493
101802,99518
101771,99499
101833,99516
101839,99519
101833,99535
101807,99514
101872,99544
101895,99551
101884,99551
101878,99547
101925,99537
101894,99596
101946,99594
101963,99583
101970,99621
101984,99599
101956,99602
102018,99611
102051,99660
102031,99642
102068,99635
102074,99641
102101,99682
102118,99661
102132,99648
102101,99685
102168,99674
102148,99676
102153,99662
102185,99686
102178,99702
102195,99709
102210,99729
102252,99693
102209,99737
102201,99700
102251,99741
102257,99734
102227,99757
102285,99737
102302,99738
102314,99762
102324,99770
102348,99750
102360,99786
102343,99799
102377,99779
102376,99796
102369,99781
102382,99823
102387,99764
102429,99833
102402,99808
102434,99828
102475,99815
102461,99843
102492,99877
102526,99859
102541,99860
102588,99893
102553,99896
102586,99919
102611,99900
102582,99905
102679,99928
102611,99934
102650,99922
102659,99928
102674,99955
102668,99941
102682,99966
102696,99964
102696,99937
102705,99961
102690,99941
102751,99987
102738,99932
102744,99966
102731,99966
102708,99943
102755,99996
102733,99954
102723,99947
102723,99962
102669,99916
102641,99904
102563,99824
102468,99804
102389,99772
102252,99686
102179,99628
102031,99563
101963,99527
101775,99462
101719,99416
101540,99355
101428,99267
101338,99224
101169,99150
101086,99097
100919,99074
100815,98979
100713,98937
100618,98879
100557,98873
100422,98772
100347,98762
100326,98758
100231,98692
100195,98685
100136,98644
100120,98652
100095,98624
100041,98610
100073,98630
100018,98590
100004,98595
100047,98618
100010,98611
100057,98597
100041,98599
100046,98631
100058,98633
100046,98632
100086,98624
100102,98680
100106,98672
100127,98645
100142,98693
100167,98664
100177,98718
100211,98690
100218,98711
100236,98758
100222,98709
100295,98744
100288,98747
100270,98754
100322,98745
100314,98788
100346,98740
100359,98782
100345,98781
100360,98812
100379,98781
100411,98836
100427,98825
100479,98838
100412,98833
100481,98833
100491,98835
100485,98865
100470,98874
100531,98899
100488,98877
100543,98882
100578,98934
100546,98895
100597,98922
100628,98937
100660,98897
100665,98919
100682,98979
100730,98954
100714,98993
100729,98940
100779,98984
100793,99018
100803,98998
100840,99030
100809,99058
100838,99056
100885,99057
100894,99097
100888,99076
100935,99109
100948,99123
100952,99128
100931,99121
100979,99139
100974,99114
100963,99129
100970,99148
100995,99129
100942,99138
100982,99144
101012,99148
101003,99167
101015,99164
100997,99166
101027,99194
101069,99175
101057,99190
101069,99212
101067,99195
101128,99245
101138,99250
101132,99249
101192,99261
101178,99266
101225,99279
101188,99285
101266,99306
101269,99354
101311,99327
101281,99341
101340,99368
101392,99362
101365,99391
101436,99401
101405,99448
101440,99407
101514,99449
101498,99492
101514,99456
101587,99499
101585,99498
101658,99514
101642,99543
101698,99589
101709,99543
101757,99581
101779,99597
101812,99595
101837,99647
101820,99603
101887,99652
101869,99678
101891,99658
101973,99672
101925,99700
101945,99698
102016,99698
102002,99719
101997,99742
102054,99716
102046,99748
102084,99743
102121,99778
102136,99786
102168,99826
102196,99803
102220,99805
102216,99827
102236,99878
102289,99855
102295,99871
102305,99893
102350,99880
102391,99936
102362,99888
102408,99946
102442,99930
102456,99967
102446,99975
102505,99999
102493,99981
102525,99976
102560,100001
102549,100033
102576,100000
102588,100035
102611,100059
102629,100040
102673,100051
102648,100060
102699,100085
102701,100094
102728,100102
102750,100127
102790,100135
102769,100147
102834,100177
102831,100189
102870,100169
102897,100207
102937,100212
102932,100246
102951,100212
102997,100248
102999,100258
103062,100282
103045,100313
103078,100292
103145,100307
103124,100334
103161,100358
103204,100358
103230,100401
103231,100365
103237,100409
103239,100415
103314,100421
103311,100437
103323,100424
103325,100428
103354,100425
103362,100464
103382,100468
103402,100453
103422,100501
103432,100473
103445,100480
103448,100501
103444,100466
103471,100501
103503,100496
103521,100493
103520,100532
103502,100493
103521,100531
103534,100527
103540,100550
103570,100533
103638,100586
103615,100551
103630,100589
103664,100592
103651,100601
103646,100564
103655,100628
103646,100580
103649,100572
103582,100535
103523,100530
103467,100442
103360,100407
103259,100401
103127,100288
103055,100244
102907,100147
102804,100106
102659,100072
102492,99984
102427,99905
102299,99882
102148,99819
102055,99733
101986,99695
101842,99680
101749,99628
101661,99556
101567,99525
101506,99471
101422,99443
101399,99478
101323,99426
101306,99373
101251,99402
101195,99337
101210,99388
101223,99344
101152,99336
101162,99342
101176,99376
101187,99348
101193,99375
101227,99390
101194,99370
101207,99366
101263,99418
101285,99402
101305,99442
101313,99419
101350,99425
101389,99466
101388,99451
101433,99470
101446,99514
101428,99466
101527,99551
101490,99536
101551,99535
101524,99519
101580,99575
101552,99543
101600,99534
101597,99555
101629,99598
101613,99600
101631,99569
101683,99607
101651,99588
101688,99610
101668,99605
101662,99606
101698,99606
101688,99654
101699,99588
101727,99637
101731,99642
101778,99649
101805,99647
101781,99655
101808,99658
101832,99683
101852,99701
101871,99697
101855,99703
101892,99700
101910,99716
101951,99723
101931,99737
101924,99751
101939,99684
101992,99747
101949,99750
101987,99705
101961,99739
101955,99694
101963,99735
101936,99726
101966,99704
101932,99724
