11111,11111
0,0
82497,82089
132454,105644
135359,105628
135344,105653
135433,105659
135424,105670
135401,105648
135345,105607
135385,105629
135412,105613
135462,105661
135405,105660
135350,105593
135410,105615
135456,105633
135467,105649
135426,105645
135405,105597
135454,105661
135456,105635
135506,105615
135479,105666
135411,105601
135514,105634
135514,105665
135529,105681
135489,105634
135460,105595
135501,105639
135501,105663
135451,105612
135452,105596
135381,105613
135401,105565
135354,105601
135343,105546
135279,105535
135159,105555
135162,105521
135181,105506
135098,105483
135065,105427
134966,105422
134953,105433
134954,105409
134897,105413
134797,105375
134752,105334
134733,105361
134723,105357
134650,105285
134620,105292
134521,105288
134506,105275
134497,105264
134492,105246
134461,105275
134390,105204
134410,105218
134397,105233
134383,105221
134356,105187
134318,105213
134367,105204
134390,105224
134363,105221
134357,105190
134287,105180
134367,105195
134333,105211
134352,105172
134361,105202
134298,105191
134338,105216
134369,105197
134356,105197
134323,105178
134324,105172
134355,105192
134375,105223
134367,105184
134397,105188
134328,105217
134366,105186
134424,105183
134429,105193
134365,105200
134409,105184
134457,105232
134455,105234
134492,105205
134466,105225
134451,105214
134468,105251
134492,105211
134501,105233
134458,105247
134471,105216
134521,105211
134486,105251
134484,105207
134469,105219
134447,105215
134504,105238
134496,105244
134467,105230
134441,105174
134439,105239
134507,105250
134479,105190
134491,105229
134384,105180
134391,105178
134459,105217
134429,105201
134424,105194
134415,105196
134359,105198
134386,105163
134435,105198
134412,105195
134330,105163
134357,105178
134372,105150
134393,105195
134533,105226
134567,105223
134471,105201
134467,105186
134408,105161
133657,104905
133606,104901
133590,104882
133609,104877
133677,104893
133661,104891
133665,104901
133698,104916
133633,104865
133650,104921
133725,104918
133782,104913
133743,104946
133728,104906
133742,104895
133765,104929
133779,104914
133819,104925
133726,104918
133759,104912
133764,104944
133809,104928
133791,104916
133780,104911
133766,104908
133797,104905
133831,104938
133782,104938
133708,104861
133718,104898
133763,104910
133752,104906
133694,104898
133678,104845
133663,104871
133681,104881
133718,104898
133689,104889
133613,104850
133632,104879
133727,104871
133696,104922
133644,104870
133608,104849
133639,104899
133675,104877
133690,104903
133647,104883
133666,104885
133608,104920
133670,104901
133713,104885
133704,104912
133613,104883
133640,104914
133676,104913
133670,104911
133671,104861
133622,104909
133589,104891
133668,104907
133651,104852
133689,104880
133580,104914
133597,104876
133674,104865
133661,104888
133680,104891
133603,104871
133602,104887
133692,104896
133689,104907
133664,104880
133661,104878
133679,104887
133721,104904
133731,104922
133682,104892
133666,104879
133742,104890
133781,104903
133779,104935
133726,104904
133726,104884
133760,104915
133820,104887
133853,104920
133796,104936
133748,104876
133788,104944
133803,104917
133837,104941
133767,104954
133765,104909
133789,104919
133833,104906
133836,104921
133817,104939
133771,104896
133830,104922
133843,104946
133863,104955
133822,104923
133792,104908
133852,104939
133906,104921
133912,104947
133829,104937
133824,104930
133874,104955
133923,104931
133924,104975
133865,104921
133858,104954
133877,104937
133907,104952
133885,104937
133853,104951
133817,104894
133824,104948
133839,104933
133775,104879
133734,104880
133637,104838
133646,104853
133647,104828
133585,104833
133440,104759
133403,104802
133350,104750
133376,104747
133243,104731
133220,104688
133119,104653
133103,104665
133086,104632
133028,104631
132919,104602
132867,104551
132903,104588
132871,104586
132788,104553
132728,104505
132692,104517
132753,104530
132663,104504
132632,104496
132583,104442
132597,104494
132592,104501
132609,104449
132596,104453
132564,104428
132569,104460
132569,104502
132579,104430
132575,104466
132560,104449
132511,104465
132559,104443
132622,104477
132596,104482
132547,104460
132551,104480
132626,104466
132625,104512
132603,104469
132643,104482
132614,104479
132695,104512
132730,104507
132747,104527
132655,104532
132668,104495
132764,104509
132754,104529
132782,104527
132719,104503
132739,104517
132805,104562
132818,104558
132781,104547
132745,104526
132749,104560
132762,104514
132789,104555
132799,104546
132716,104529
132776,104525
132808,104577
132783,104512
132796,104542
132693,104527
132721,104522
132814,104553
132791,104575
132752,104546
132727,104527
132716,104520
132783,104540
132765,104517
132738,104537
132701,104489
132693,104541
132684,104507
132711,104510
132654,104503
132648,104512
132654,104526
132706,104487
132692,104476
132678,104514
132650,104477
132671,104506
132650,104509
132678,104517
132654,104484
132571,104476
132646,104531
132654,104509
132686,104494
132639,104488
132638,104513
132642,104524
132713,104507
132679,104501
132687,104529
132632,104473
132674,104491
132660,104520
132692,104496
132708,104488
132652,104544
132682,104482
132736,104532
132737,104489
132714,104521
132652,104488
132725,104489
132716,104534
132731,104483
132737,104522
132642,104507
132743,104539
132770,104505
132806,104522
132777,104525
132747,104542
132785,104581
132833,104519
132837,104551
132845,104560
132779,104505
132857,104564
132868,104577
132907,104580
132819,104591
132804,104586
132837,104568
132905,104600
132859,104584
132901,104535
132854,104580
132923,104583
132903,104584
132918,104599
132897,104543
132881,104585
132895,104594
132955,104584
132955,104610
132890,104599
132851,104555
132908,104572
132828,104580
132785,104524
132787,104540
132695,104501
132695,104530
132644,104469
132596,104442
132505,104438
132427,104402
132387,104403
132373,104372
132336,104372
132187,104371
132165,104339
132149,104316
132119,104328
132025,104262
132007,104249
131911,104266
131957,104239
131954,104226
131872,104223
131845,104205
131792,104226
131786,104178
131834,104201
131813,104185
131766,104166
131720,104196
131720,104170
131792,104182
131743,104152
131706,104158
131662,104135
131741,104147
131719,104184
131706,104125
131710,104137
131708,104150
131721,104154
131761,104184
131728,104193
131686,104123
131668,104191
131753,104161
131787,104205
131796,104178
131722,104161
131804,104217
131858,104198
131855,104201
131866,104202
131839,104219
131831,104223
131921,104241
131917,104235
131932,104254
131874,104228
131902,104254
131971,104264
131973,104246
131947,104228
131912,104252
131925,104237
131957,104243
131989,104269
131979,104236
131920,104242
131907,104253
131944,104275
131994,104264
131943,104254
131892,104239
131889,104269
131943,104214
131946,104262
131955,104220
131884,104245
131882,104232
131949,104209
131916,104225
131905,104230
131823,104178
131863,104214
131911,104223
131897,104213
131888,104207
131794,104196
131845,104194
131884,104229
131869,104186
131857,104228
131765,104184
131793,104185
131885,104250
131886,104201
131872,104220
131785,104204
131878,104215
131885,104192
131913,104194
131920,104221
131874,104217
131900,104250
131913,104255
131930,104225
131968,104226
131878,104273
131978,104242
132006,104276
132040,104279
131966,104273
131990,104271
132010,104297
132057,104290
132062,104280
132039,104280
132029,104267
132039,104312
132091,104284
132070,104280
132080,104297
132021,104284
132101,104302
132076,104299
132123,104300
132086,104291
132043,104265
132117,104280
132152,104294
132100,104305
132063,104287
132051,104292
132102,104287
132155,104302
132109,104323
132082,104278
132071,104330
132124,104307
132181,104315
132164,104322
132144,104269
132115,104317
132214,104329
132241,104331
132251,104348
132227,104310
132228,104329
132249,104377
132267,104319
132278,104351
132217,104331
132175,104330
132196,104340
132218,104340
132185,104296
132091,104302
132019,104254
132076,104258
131963,104278
131901,104232
131798,104211
131758,104215
131721,104135
131692,104158
131605,104139
131544,104090
131437,104090
131412,104026
131389,104070
131269,104010
131172,103950
131132,103944
131077,103937
131048,103897
130982,103888
130901,103889
130871,103877
130865,103833
130866,103843
130833,103821
130752,103789
130750,103813
130784,103836
130800,103783
130764,103807
130698,103778
130720,103793
130724,103845
130756,103773
130732,103789
130676,103797
130683,103773
130678,103807
130728,103762
130670,103775
130664,103765
130692,103813
130760,103811
130730,103788
130732,103779
130702,103817
130739,103844
130780,103841
130791,103823
130818,103816
130751,103844
130822,103866
130866,103840
130895,103854
130897,103857
130805,103876
130846,103873
130924,103888
130958,103900
130940,103893
130926,103868
130976,103901
131020,103947
131033,103923
130984,103917
130953,103900
130960,103936
131038,103895
131013,103922
130970,103874
130938,103904
130932,103907
130979,103906
130952,103878
130928,103891
130853,103864
130934,103870
130927,103892
130879,103900
130899,103870
130825,103866
130865,103843
130933,103911
130891,103883
130905,103852
130789,103869
130854,103858
130897,103865
130885,103869
130867,103858
130780,103840
130804,103865
130857,103845
130844,103853
130848,103861
130787,103865
130841,103844
130902,103914
130897,103873
130846,103886
130885,103877
130878,103909
130957,103908
130928,103882
130935,103915
130874,103902
130952,103881
130989,103943
131025,103937
130978,103931
130983,103921
131005,103958
131021,103904
131041,103924
131029,103925
130971,103937
131009,103967
131076,103959
131075,103954
131029,103914
131004,103958
131071,103962
131059,103942
131094,103943
131060,103965
131038,103974
131083,103969
131112,103954
131140,103965
131135,104017
131087,103978
131175,103991
131214,104027
131193,103991
131225,104031
131208,104021
131253,104014
131318,104050
131257,104044
131302,104060
131265,104052
131326,104070
131396,104048
131369,104068
131364,104077
131354,104056
131424,104082
131403,104085
131442,104083
131420,104082
131378,104102
131455,104096
131422,104092
131372,104059
131372,104087
131326,104042
131312,104068
131239,104017
131217,103994
131089,104015
131017,103960
131023,103959
130971,103929
130886,103924
130776,103855
130744,103830
130747,103850
130648,103820
130586,103782
130474,103732
130424,103750
130314,103723
130326,103680
130248,103677
130104,103624
130095,103612
130067,103618
130008,103557
129961,103545
129868,103492
129818,103508
129845,103522
129775,103481
129751,103471
129662,103461
129636,103438
129680,103429
129689,103440
129618,103412
129600,103430
129597,103415
129637,103450
129627,103441
129633,103453
129557,103389
129641,103423
129647,103439
129680,103468
129628,103449
129578,103427
129647,103420
129673,103450
129656,103443
129660,103453
129590,103453
129625,103428
129724,103448
129716,103495
129707,103446
129693,103433
129738,103482
129857,103519
129847,103539
129862,103526
129843,103546
129930,103576
129984,103596
129987,103588
129985,103578
130032,103591
130056,103630
130092,103631
130099,103627
130062,103632
130075,103597
130121,103639
130123,103621
130116,103599
130099,103632
130086,103631
130138,103652
130160,103623
130153,103657
130152,103635
130154,103624
130181,103701
130154,103659
130192,103650
130166,103665
130076,103616
130127,103636
130153,103654
130143,103645
130110,103673
130069,103618
130103,103652
130165,103643
130155,103661
130116,103694
130111,103637
130200,103677
130245,103721
130236,103691
130218,103721
130185,103686
130287,103715
130287,103726
130310,103745
130295,103745
130261,103738
130349,103748
130389,103784
130393,103767
130381,103793
130359,103790
130458,103824
130447,103814
130470,103796
130470,103823
130472,103809
130522,103839
130577,103844
130590,103874
130517,103865
130540,103868
130554,103865
130604,103907
130589,103866
130631,103853
130599,103898
130700,103917
130679,103916
130713,103916
130681,103881
130684,103922
130741,103962
130781,103965
130780,103963
130760,103956
130789,103965
130853,104004
130835,103973
130842,103980
130804,103939
130782,104003
130833,104004
130881,103974
130890,104015
130825,104005
130875,104023
130895,104032
130952,104011
130943,104055
130883,104004
130947,104057
131015,104066
130997,104066
131039,104039
131039,104073
131021,104086
131108,104064
131153,104112
131116,104094
131087,104133
131123,104130
131124,104114
131128,104128
131106,104116
131093,104074
131069,104140
131041,104088
131054,104075
130961,104087
130864,103997
130840,104017
130799,104042
130715,103954
130676,103939
130516,103916
130441,103914
130445,103881
130349,103903
130246,103839
130153,103783
130110,103782
130067,103798
129969,103752
129920,103683
129829,103714
129818,103689
129823,103699
129769,103681
129716,103661
129685,103615
129708,103659
129702,103661
129692,103621
129638,103634
129601,103623
129609,103643
129589,103631
129605,103633
129569,103615
129507,103625
129547,103611
129560,103601
129547,103624
129515,103588
129515,103611
129523,103627
129569,103643
129574,103585
129573,103621
129536,103606
129558,103612
129670,103641
129654,103655
129654,103633
129582,103682
129634,103661
129690,103688
129704,103687
129722,103664
129662,103698
129757,103707
129784,103726
129771,103712
129798,103724
129727,103731
129849,103742
129865,103755
129893,103763
129870,103768
129884,103774
129940,103799
130006,103824
130030,103802
130010,103801
129968,103827
130056,103849
130027,103835
130054,103864
129995,103820
129972,103805
130027,103838
130032,103870
130044,103845
129930,103857
129965,103804
129979,103827
129982,103801
129979,103820
129942,103841
129932,103803
129972,103830
129956,103840
129901,103811
129891,103783
129810,103811
129873,103793
129861,103804
129827,103779
129783,103801
129748,103770
129777,103807
129766,103761
129771,103767
129740,103809
129768,103785
129807,103825
129870,103840
129848,103853
129808,103798
129859,103835
129971,103847
129975,103871
130056,103918
129995,103941
130049,103913
130141,103964
130203,103958
130215,103984
130167,103944
130224,104024
130283,104029
130363,104040
130337,104044
130331,103998
130345,104041
130460,104063
130448,104083
130471,104059
130508,104040
130506,104088
130580,104103
130623,104098
130604,104140
130559,104127
130610,104141
130631,104170
130695,104132
130734,104138
130663,104172
130695,104178
130775,104160
130797,104191
130772,104188
130767,104162
130782,104204
130867,104200
130846,104202
130870,104181
130829,104249
130884,104241
130907,104262
130929,104273
130924,104250
130923,104242
130920,104268
131026,104250
131006,104306
131003,104298
130990,104275
131059,104290
131117,104361
131124,104307
131127,104336
131068,104322
131131,104330
131211,104322
131199,104373
131152,104349
131094,104331
131145,104342
131132,104354
131110,104310
131072,104290
130973,104314
130958,104278
130970,104254
130877,104239
130833,104246
130737,104210
130667,104212
130632,104162
130552,104164
130490,104105
130315,104083
130329,104033
130288,104060
130196,104019
130098,103989
129960,103969
129939,103926
129955,103921
129865,103915
129773,103856
129737,103886
129766,103869
129733,103842
129771,103857
129692,103884
129628,103849
129648,103861
129708,103875
129657,103853
129611,103849
129596,103804
129655,103866
129651,103823
129640,103850
129632,103853
129582,103846
129640,103841
129688,103848
129680,103866
129649,103862
129639,103846
129746,103891
129742,103927
129812,103874
129811,103928
129811,103912
129867,103950
129879,103928
129958,103945
129906,103948
129881,103971
129998,103970
130035,103994
130069,104007
129978,103966
130025,104014
130085,103990
130099,104006
130148,104013
130113,104055
130098,104000
130190,104040
130196,104053
130199,104057
130146,104030
130188,104032
130253,104078
130264,104052
130239,104063
130206,104063
130163,104038
130240,104032
130312,104104
130284,104096
130226,104063
130217,104061
130317,104098
130298,104112
130277,104073
130233,104096
130260,104056
130292,104090
130292,104074
130273,104089
130160,104025
130212,104048
130215,104070
130211,104028
130190,104024
130135,104057
130107,104001
130122,104050
130137,104022
130172,104049
130123,103998
130126,104067
130134,104020
130180,104013
130179,104019
130140,104013
130141,104042
130182,104075
130187,104042
130200,104044
130120,104049
130116,104029
130203,104019
130227,104079
130183,104052
130216,104064
130243,104039
130309,104089
130319,104080
130314,104065
130324,104105
130370,104107
130378,104123
130438,104131
130447,104152
130387,104099
130472,104130
130492,104145
130536,104164
130532,104181
130460,104125
130534,104164
130546,104199
130592,104149
130601,104180
130525,104195
130588,104182
130630,104222
130652,104193
130673,104206
130664,104215
130704,104204
130773,104245
130780,104283
130774,104231
130784,104235
130833,104269
130901,104294
130875,104321
130868,104277
130889,104322
130948,104336
130983,104369
131013,104318
131012,104317
130969,104375
131046,104338
131102,104364
131079,104377
131066,104353
131018,104348
131071,104357
131133,104396
131085,104359
131030,104341
130947,104341
130912,104333
130914,104272
130880,104294
130768,104231
130629,104210
130627,104194
130585,104213
130494,104133
130439,104118
130283,104085
130291,104116
130226,104080
130167,104036
130109,103980
130036,103993
130000,103991
129919,103930
129881,103950
129817,103920
129675,103868
129712,103881
129655,103840
129618,103842
129585,103812
129496,103826
129524,103819
129552,103809
129482,103796
129437,103766
129453,103768
129505,103788
129467,103829
129475,103768
129449,103787
129440,103781
129494,103765
129546,103823
129494,103792
129483,103799
129495,103786
129532,103827
129575,103797
129545,103818
129513,103815
129490,103803
129568,103829
129626,103821
129608,103836
129559,103840
129638,103835
129643,103876
129637,103860
129700,103838
129687,103885
129698,103858
129771,103878
129798,103886
129822,103897
129817,103911
129806,103910
129866,103914
129929,103956
129937,103973
129869,103934
129910,103964
129991,103965
129952,104007
129960,103956
129917,103942
129973,103981
129998,103981
129968,104006
129977,103967
129944,103947
129938,103975
130007,104000
129938,104003
129898,103946
129894,103922
129833,103966
129880,103936
129809,103951
129765,103899
129677,103891
129677,103858
129681,103889
129605,103847
129556,103832
129472,103795
129506,103806
129488,103832
129487,103788
129477,103811
129459,103826
129505,103840
129591,103889
129576,103863
129614,103859
129607,103858
129663,103894
129744,103909
129722,103932
129723,103899
129728,103935
129794,103916
129783,103940
129810,103941
129830,103956
129739,103906
129811,103933
129859,103973
129846,103971
129870,103938
129877,103989
129897,103976
129998,104010
130012,103984
130036,104020
130005,104019
130089,104044
130136,104042
130164,104062
130179,104083
130122,104069
130194,104080
130261,104094
130285,104120
130249,104106
130225,104079
130282,104144
130382,104130
130368,104172
130331,104121
130372,104126
130455,104131
130475,104195
130475,104192
130490,104147
130491,104214
130536,104186
130593,104224
130565,104233
130585,104200
130558,104224
130634,104247
130621,104252
130679,104252
130635,104236
130654,104254
130718,104271
130726,104274
130763,104259
130751,104247
130713,104273
130805,104288
130861,104300
130827,104301
130872,104312
130833,104298
130907,104340
130947,104334
130900,104312
130855,104308
130830,104295
130833,104303
130803,104265
130766,104252
130644,104226
130566,104181
130517,104199
130482,104125
130343,104105
130243,104059
130144,104043
130141,104044
130041,103996
129937,103959
129849,103919
129748,103909
129704,103886
129673,103843
129606,103844
129453,103792
129439,103788
129431,103775
129359,103764
129268,103728
129214,103710
129125,103674
129142,103651
129140,103686
129065,103654
128997,103594
128945,103607
128994,103638
128985,103590
128943,103606
128858,103581
128899,103592
128918,103609
128942,103586
128939,103576
128906,103620
128932,103591
128951,103608
128986,103627
128953,103591
128945,103579
128942,103625
129020,103625
129026,103617
129027,103604
128950,103631
129001,103643
129002,103628
129039,103655
129047,103642
128985,103629
129014,103651
129045,103640
129094,103619
129062,103668
128972,103623
129043,103649
129024,103646
129102,103636
129072,103660
129016,103656
129010,103654
129076,103651
129141,103692
129076,103655
129072,103619
129126,103695
129139,103706
129196,103706
129165,103691
129114,103708
129173,103689
129250,103731
129238,103708
129257,103725
129195,103714
129225,103721
129271,103757
129313,103733
129318,103755
129266,103761
129327,103761
129334,103756
129383,103763
129373,103771
129302,103737
129384,103797
129417,103779
129452,103771
129407,103792
129322,103770
129426,103752
129453,103774
129498,103783
129473,103805
129393,103782
129488,103799
129500,103843
129525,103806
129460,103805
129471,103821
129507,103817
129579,103858
129515,103806
129494,103784
129469,103816
129524,103824
129522,103817
129556,103811
129539,103834
129469,103786
129541,103820
129616,103841
129628,103872
129587,103873
129625,103834
129716,103914
129784,103895
129800,103919
129776,103935
129815,103911
129846,103966
129928,103930
129967,103964
129943,103939
129912,103966
129940,103962
129996,103968
129981,103978
129985,103967
129944,103964
130035,103986
130080,104023
130078,103985
130071,103999
130096,103985
130169,104077
130182,104057
130225,104038
130246,104056
130241,104037
130357,104114
130388,104113
130358,104138
130326,104077
130358,104121
130404,104110
130441,104143
130423,104113
130409,104121
130438,104125
130481,104156
130520,104152
130537,104132
130513,104180
130505,104156
130649,104186
130664,104177
130681,104196
130691,104216
130677,104186
130753,104235
130732,104233
130730,104211
130671,104218
130650,104223
130645,104211
130675,104175
130563,104197
130496,104128
130429,104144
130410,104116
130356,104082
130298,104032
130224,104040
130146,104002
130107,104008
130071,103959
130011,103939
129865,103896
129882,103899
129859,103895
129776,103880
129731,103881
129600,103791
129621,103816
129579,103832
129515,103793
129454,103741
129423,103709
129361,103756
129346,103705
129370,103721
129302,103662
129266,103667
129216,103664
129249,103633
129258,103692
129204,103666
129184,103625
129214,103666
129268,103661
129253,103679
129291,103663
129212,103691
129314,103694
129317,103690
129310,103676
129300,103662
129288,103685
129283,103684
129330,103676
129356,103734
129321,103698
129333,103688
129370,103755
129406,103740
129454,103720
129481,103761
129444,103727
129537,103774
129615,103816
129599,103773
129600,103794
129599,103788
129638,103849
129686,103845
129671,103840
129683,103814
129648,103820
129704,103840
129725,103849
129753,103838
129687,103867
129645,103801
129690,103844
129726,103813
129740,103846
129710,103845
129668,103806
129728,103855
129720,103863
129728,103854
129738,103820
129677,103855
129729,103823
129772,103848
129755,103829
129749,103840
129691,103843
129795,103889
129788,103838
129798,103886
129761,103867
129791,103832
129856,103901
129839,103906
129842,103850
129815,103875
129836,103883
129889,103886
129915,103874
129918,103920
129866,103916
129869,103872
129947,103932
129918,103944
129953,103913
129968,103908
129915,103963
129998,103945
130002,103940
129989,103979
129978,103914
130032,103969
130081,103988
130136,103963
130125,103967
130122,103957
130115,104002
130148,104002
130188,103987
130210,104020
130179,103970
130219,104055
130257,104050
130250,104044
130279,104017
130282,104010
130297,104073
130363,104053
130395,104074
130389,104082
130351,104026
130407,104061
130468,104092
130516,104107
130513,104112
130460,104068
130502,104135
130577,104140
130592,104146
130603,104127
130603,104139
130579,104132
130687,104157
130715,104186
130732,104166
130660,104161
130743,104170
130779,104215
130770,104182
130818,104224
130768,104178
130810,104200
130891,104241
130870,104219
130886,104219
130869,104226
130897,104207
130928,104256
130964,104265
130931,104274
130896,104203
130951,104252
130990,104287
130988,104288
130986,104270
130979,104262
131016,104306
131037,104299
131094,104288
131081,104284
131013,104293
131030,104299
131079,104290
131042,104308
130976,104291
130920,104257
130917,104268
130865,104260
130836,104196
130707,104168
130629,104129
130567,104157
130536,104081
130485,104109
130363,104060
130284,104008
130260,103999
130213,104020
130157,103967
130121,103936
129969,103905
130008,103915
130022,103914
130009,103914
129928,103900
129912,103846
129960,103915
129971,103920
129978,103892
129973,103902
129915,103906
129978,103877
130032,103915
130013,103880
130019,103904
129945,103905
129984,103920
130048,103890
130034,103935
130030,103918
129998,103880
130075,103905
130097,103942
130045,103926
130091,103899
130057,103939
130118,103947
130156,103933
130197,103976
130100,103949
130137,103906
130227,103948
130276,103951
130258,103987
130215,103958
130261,103934
130320,103998
130333,104013
130332,103999
130372,103983
130418,104033
130453,104037
130526,104043
130527,104032
130525,104058
130530,104058
130627,104080
130676,104110
130659,104116
130659,104100
130679,104093
130708,104123
130772,104141
130805,104134
130732,104124
130750,104156
130805,104156
130796,104146
130827,104139
130798,104139
130779,104144
130823,104155
130848,104161
130841,104176
130778,104122
130788,104150
130828,104179
130849,104165
130847,104149
130778,104131
130766,104135
130853,104151
130852,104161
130819,104146
130764,104105
130811,104150
130807,104154
130828,104164
130812,104140
130790,104101
130728,104175
130793,104113
130840,104144
130797,104152
130780,104112
130790,104123
130894,104164
130905,104153
130869,104165
130798,104137
130862,104140
130937,104181
130910,104209
130923,104172
130950,104164
130936,104204
131037,104230
131027,104233
131055,104230
130995,104220
131058,104252
131087,104243
131135,104255
131111,104271
131075,104220
131148,104260
131162,104311
131156,104254
131186,104279
131171,104264
131195,104301
131234,104321
131288,104275
131300,104315
131239,104324
131311,104305
131385,104320
131396,104388
131386,104361
131353,104335
131430,104385
131471,104398
131526,104385
131515,104407
131501,104381
131581,104385
131601,104421
131592,104441
131588,104424
131614,104427
131669,104453
131700,104469
131736,104471
131733,104454
131700,104472
131746,104486
131856,104476
131867,104532
131847,104524
131808,104525
131886,104521
131979,104544
131935,104566
131938,104529
131926,104533
131993,104544
131973,104575
132006,104559
131999,104550
131927,104550
131965,104538
131980,104565
131938,104531
131872,104481
131849,104519
131812,104484
131811,104490
131760,104455
131698,104464
131613,104396
131643,104443
131609,104406
131563,104373
131488,104351
131379,104340
131465,104348
131430,104380
131391,104304
131339,104335
131258,104291
131312,104314
131314,104292
131313,104257
131242,104310
131206,104263
131263,104286
131216,104295
131215,104255
131209,104268
131159,104283
131229,104268
131249,104279
131209,104271
131198,104255
131195,104300
131232,104290
131264,104324
131259,104313
131251,104262
131295,104324
131317,104322
131383,104313
131348,104359
131350,104282
131363,104342
131445,104332
131531,104409
131508,104342
131499,104369
131451,104373
131582,104412
131596,104415
131613,104397
131570,104407
131591,104375
131680,104417
131652,104450
131682,104402
131678,104448
131690,104445
131738,104472
131727,104473
131744,104436
131733,104446
131755,104497
131811,104484
131838,104490
131832,104483
131865,104482
131847,104513
131903,104512
131935,104524
131906,104519
131917,104506
131955,104537
131935,104576
131998,104522
132004,104535
131894,104540
131966,104540
131970,104537
132029,104574
131981,104572
131944,104534
131958,104532
132010,104583
132003,104594
131981,104554
131990,104515
132014,104553
132073,104590
132095,104592
132063,104615
131995,104533
132089,104589
132122,104607
132087,104594
132121,104581
132022,104576
132066,104570
132138,104585
132125,104612
132096,104581
132090,104582
132132,104593
132226,104632
132145,104596
132164,104601
132167,104631
132199,104613
132248,104639
132226,104613
132265,104630
132214,104625
132242,104646
132329,104664
132306,104631
132300,104630
132250,104668
132318,104648
132338,104684
132316,104646
132347,104681
132296,104619
132356,104677
132405,104671
132395,104708
132353,104677
132350,104650
132419,104692
132430,104713
132456,104698
132456,104701
132440,104663
132536,104722
132520,104761
132532,104710
132498,104705
132503,104726
132550,104726
132604,104723
132583,104761
132575,104724
132572,104725
132617,104765
132662,104791
132673,104776
132667,104746
132625,104789
132709,104817
132765,104792
132733,104803
132704,104794
132703,104758
132747,104836
132731,104788
132742,104778
132720,104786
132620,104789
132643,104762
132674,104766
132608,104718
132533,104720
132478,104702
132494,104727
132443,104686
132437,104675
132301,104643
132320,104656
132302,104652
132281,104596
132227,104620
132175,104581
132175,104590
132167,104584
132202,104564
132133,104586
132051,104551
132045,104532
132103,104566
132113,104561
132084,104575
131989,104520
132048,104544
132072,104579
132084,104546
132079,104521
132015,104553
132028,104502
132084,104574
132088,104533
132039,104557
132013,104532
132043,104561
132082,104551
132153,104553
132104,104566
132095,104514
132085,104522
132146,104562
132143,104577
132143,104537
132101,104552
132114,104600
132180,104584
132198,104603
132170,104565
132191,104541
132212,104608
132277,104606
132308,104620
132277,104643
132224,104598
132309,104614
132343,104654
132365,104634
132374,104606
132354,104642
132338,104650
132391,104632
132450,104650
132417,104646
132365,104644
132401,104668
132475,104661
132448,104688
132425,104643
132387,104647
132389,104631
132491,104648
132460,104666
132453,104664
132353,104625
132447,104656
132453,104643
132483,104634
132446,104644
132317,104628
132387,104617
132457,104651
132441,104628
132423,104629
132363,104644
132420,104611
132447,104627
132456,104654
132419,104613
132403,104627
132390,104638
132473,104624
132485,104659
132451,104636
132408,104643
132436,104671
132473,104650
132536,104662
132489,104670
132438,104637
132493,104675
132523,104668
132552,104692
132527,104688
132516,104649
132541,104683
132616,104717
132614,104673
132603,104700
132522,104715
132646,104691
132674,104729
132645,104715
132650,104732
132619,104733
132663,104722
132690,104752
132744,104747
132682,104737
132697,104696
132762,104777
132785,104797
132785,104759
132759,104764
132751,104734
132832,104764
132849,104781
132837,104756
132783,104764
132811,104759
132857,104820
132893,104773
132930,104806
132843,104773
132878,104790
132956,104811
132951,104827
132966,104771
132908,104796
132936,104821
132994,104791
133015,104816
133044,104841
133026,104830
132986,104845
133114,104888
133128,104859
133129,104862
133144,104868
133106,104877
133183,104909
133229,104880
133206,104920
133153,104890
133129,104886
133193,104920
133203,104887
133125,104877
133068,104851
133042,104839
133042,104849
133070,104854
132992,104835
132880,104784
132890,104775
132889,104790
132830,104765
132825,104730
132734,104747
132702,104697
132737,104753
132700,104709
132662,104713
132535,104690
132544,104647
132587,104669
132538,104682
132520,104656
132438,104606
132461,104653
132477,104656
132460,104657
132464,104609
132410,104643
132426,104589
132489,104645
132501,104637
132455,104627
132406,104595
132486,104646
132498,104624
132511,104661
132484,104633
132448,104611
132488,104648
132549,104663
132596,104653
132573,104672
132502,104647
132551,104642
132601,104660
132618,104662
132609,104679
132528,104650
132628,104675
132642,104679
132673,104715
132633,104681
132601,104657
132681,104721
132741,104706
132763,104722
132801,104724
132716,104733
132814,104761
132845,104753
132860,104753
132868,104766
132856,104719
132850,104786
132943,104791
132955,104758
132915,104749
132907,104776
132903,104738
132978,104797
132963,104772
132977,104788
132870,104790
132912,104775
132957,104774
132954,104787
132912,104789
132874,104734
132908,104794
132935,104776
132945,104780
132900,104732
132907,104765
132923,104767
132985,104793
132948,104782
132905,104740
132876,104779
132949,104754
132958,104800
132927,104734
132935,104770
132878,104733
132951,104794
132973,104787
132962,104789
132940,104767
132934,104762
133011,104765
133018,104804
133033,104796
132994,104811
132953,104777
133051,104816
133057,104791
133069,104818
133042,104799
132985,104794
133056,104841
133109,104827
133119,104814
133063,104781
133049,104829
133104,104810
133185,104806
133146,104789
133134,104821
133115,104856
133146,104865
133218,104833
133219,104883
133194,104846
133178,104841
133274,104881
133250,104886
133297,104871
133222,104879
133245,104849
133318,104894
133300,104906
133358,104884
133274,104896
133264,104854
133331,104892
133386,104916
133382,104929
133310,104886
133386,104906
133393,104936
133441,104958
133422,104934
133375,104887
133406,104909
133472,104959
133479,104944
133447,104975
133441,104925
133445,104929
133513,104930
133549,104979
133529,104946
133443,104925
133478,104937
133555,104941
133582,104981
133553,104939
133511,104939
133485,104949
133536,104950
133553,104955
133506,104930
133443,104904
133424,104927
133412,104893
133439,104917
133335,104862
133239,104816
133286,104884
133241,104844
133212,104833
133143,104791
133082,104759
133042,104803
133043,104742
133019,104773
132966,104770
132880,104719
132929,104702
132937,104721
132870,104709
132868,104701
132762,104684
132846,104691
132791,104682
132810,104707
132782,104658
132716,104645
132780,104709
132812,104671
132808,104672
132773,104683
132670,104630
132749,104658
132788,104665
132775,104642
132800,104653
132713,104667
132762,104653
132826,104683
132802,104689
132791,104675
132774,104682
132793,104666
132851,104670
132843,104699
132820,104684
132814,104694
132863,104717
132903,104680
132909,104708
132891,104690
132860,104676
132918,104693
132974,104718
132949,104748
132935,104691
132909,104697
132966,104743
133023,104743
133004,104739
132970,104692
133000,104712
133072,104774
133032,104749
133073,104781
133025,104723
133036,104721
133079,104774
133111,104747
133084,104745
133056,104750
133006,104733
133098,104770
133129,104749
133107,104766
133069,104760
133064,104726
133110,104761
133097,104792
133074,104714
133009,104748
133002,104714
133094,104728
133097,104760
133040,104713
133051,104725
132996,104733
133052,104743
133038,104744
133075,104737
132983,104731
132991,104704
133055,104711
133078,104727
133057,104716
133044,104722
132982,104724
133089,104735
133064,104747
133030,104731
133035,104709
133038,104743
133055,104734
133120,104730
133095,104749
133023,104726
133005,104698
133067,104711
133109,104722
133059,104716
133011,104704
133024,104695
133082,104730
133068,104697
133090,104713
133047,104730
133084,104699
133140,104714
133145,104745
133110,104729
133099,104704
133108,104760
133152,104760
133206,104755
133204,104747
133136,104730
133132,104765
133239,104758
133203,104751
133248,104804
133192,104758
133186,104758
133266,104752
133294,104777
133289,104772
133220,104768
133269,104754
133342,104786
133364,104842
133318,104775
133275,104779
133336,104796
133363,104841
133375,104785
133360,104819
133323,104800
133373,104833
133375,104846
133441,104808
133415,104842
133383,104821
133413,104846
133422,104846
133439,104818
133448,104843
133390,104810
133412,104846
133494,104820
133513,104821
133428,104841
133418,104809
133464,104842
133486,104876
133461,104835
133415,104793
133351,104818
133340,104793
133363,104796
133331,104812
133281,104751
133181,104754
133203,104756
133179,104729
133175,104721
133051,104706
133000,104685
132974,104634
132999,104670
132939,104641
132906,104618
132801,104619
132819,104623
132788,104600
132778,104590
132718,104549
132682,104567
132684,104556
132664,104584
132667,104539
132639,104511
132583,104537
132590,104554
132642,104508
132599,104551
132566,104513
132545,104511
132624,104552
132664,104519
132598,104545
132585,104525
132596,104518
132639,104530
132702,104554
132628,104580
132612,104515
132614,104543
132712,104586
132725,104568
132699,104573
132658,104541
132696,104538
132757,104559
132827,104580
132782,104572
132788,104580
132794,104617
132845,104604
132898,104620
132916,104596
132853,104628
132881,104648
132924,104628
133015,104641
132953,104607
132957,104618
132903,104641
132983,104645
132992,104624
133014,104671
132960,104651
132912,104637
133035,104659
133019,104673
133030,104637
132969,104644
132948,104643
132988,104635
132996,104652
132993,104638
132902,104635
132905,104634
132968,104641
132973,104631
132934,104609
132906,104616
132908,104608
132924,104629
132950,104631
132943,104616
132862,104593
132880,104611
132929,104635
132912,104603
132898,104591
132843,104579
132884,104618
132934,104607
132912,104590
132941,104622
132844,104578
132908,104616
132971,104633
132968,104616
132942,104634
132878,104618
132920,104633
132976,104647
132947,104639
132941,104589
132970,104605
132937,104650
132976,104633
133038,104670
133008,104647
132976,104633
132955,104637
133044,104651
133034,104628
133058,104674
132998,104641
133072,104656
133098,104672
133092,104646
133116,104648
133056,104657
133094,104651
133148,104683
133120,104690
133158,104666
133099,104655
133126,104674
133157,104651
133201,104721
133166,104664
133125,104672
133164,104702
133218,104707
133285,104720
133241,104698
133215,104725
133275,104736
133293,104738
133270,104733
133295,104739
133270,104698
133285,104753
133336,104745
133393,104749
133331,104731
133291,104722
133390,104780
133409,104806
133388,104756
133367,104753
133354,104766
133436,104759
133477,104794
133426,104771
133422,104787
133448,104769
133472,104824
133502,104800
133503,104796
133497,104776
133409,104802
133463,104783
133449,104776
133472,104769
133363,104745
133297,104760
133316,104733
133325,104753
133208,104692
133156,104697
133111,104656
133095,104674
133052,104629
133037,104629
132937,104606
132848,104598
132898,104559
132907,104583
132835,104571
132736,104559
132729,104507
132761,104563
132726,104556
132704,104502
132609,104492
132610,104478
132648,104511
132641,104492
132629,104493
132561,104497
132535,104465
132605,104460
132604,104463
132568,104492
132516,104475
132520,104427
132614,104470
132572,104474
132577,104477
132496,104439
132539,104420
132580,104492
132588,104457
132560,104471
132535,104451
132483,104457
132585,104451
132607,104495
132540,104425
132522,104415
132538,104421
132569,104470
132602,104523
132575,104433
132548,104440
132607,104483
132655,104465
132665,104482
132626,104475
132587,104436
132626,104463
132684,104492
132709,104495
132645,104479
132658,104447
132672,104518
132700,104476
132761,104509
132704,104510
132670,104469
132747,104534
132745,104500
132785,104548
132753,104508
132681,104491
132673,104518
132728,104498
132770,104523
132689,104511
132662,104482
132661,104509
132696,104509
132732,104501
132693,104528
132663,104448
132697,104502
132689,104485
132758,104507
132689,104516
132636,104459
132706,104511
132741,104510
132704,104513
132713,104479
132686,104471
132679,104511
132746,104509
132773,104531
132753,104498
132684,104501
132721,104485
132752,104531
132753,104552
132749,104521
132668,104507
132771,104502
132823,104538
132806,104553
132814,104510
132733,104530
132807,104567
132789,104558
132848,104511
132813,104549
132798,104518
132855,104545
132889,104572
132878,104546
132883,104540
132826,104573
132918,104551
132962,104601
132925,104613
132922,104593
132880,104562
132966,104595
133007,104597
133019,104581
132998,104580
133014,104612
133014,104613
133063,104636
133071,104620
133057,104607
133050,104624
133079,104655
133122,104635
133146,104663
133076,104641
133087,104618
133152,104668
133148,104655
133192,104632
133142,104635
133178,104656
133223,104686
133268,104705
133234,104671
133225,104672
133257,104699
133264,104680
133335,104712
133304,104720
133310,104701
133286,104727
133377,104748
133389,104736
133362,104713
133378,104715
133321,104758
133398,104716
133440,104754
133455,104745
133384,104707
133407,104755
133430,104769
133440,104743
133435,104744
133368,104733
133399,104739
133397,104756
133399,104724
133354,104711
133284,104685
133202,104696
133219,104696
133223,104697
133114,104610
133078,104593
132968,104624
133017,104594
132947,104584
132894,104583
132774,104525
132780,104501
132750,104516
132777,104504
132708,104448
132611,104434
132581,104491
132592,104430
132594,104460
132554,104453
132457,104439
132449,104388
132478,104416
132437,104399
132426,104397
132377,104378
132370,104380
132400,104393
132409,104382
132364,104381
132290,104353
132327,104362
132381,104371
132353,104361
132331,104370
132321,104336
132326,104381
132358,104386
132351,104377
132388,104386
132304,104356
132374,104387
132417,104410
132457,104386
132416,104364
132393,104375
132433,104414
132507,104422
132534,104425
132506,104425
132494,104407
132537,104469
132577,104454
132610,104468
132574,104459
132553,104406
132636,104501
132677,104480
132668,104481
132679,104462
132633,104470
132649,104470
132702,104469
132770,104532
132691,104498
132672,104481
132747,104523
132767,104539
132740,104499
132740,104494
132733,104512
132754,104496
132797,104519
132785,104510
132703,104507
132680,104497
132716,104488
132762,104489
132698,104531
132702,104451
132627,104461
132711,104475
132720,104522
132693,104466
132621,104458
132635,104465
132652,104492
132663,104474
132734,104481
132643,104468
132644,104469
132695,104462
132755,104501
132694,104539
132667,104500
132630,104500
132735,104482
132758,104498
132730,104515
132705,104517
132701,104488
132759,104520
132776,104517
132801,104518
132717,104510
132716,104529
132753,104522
132839,104533
132802,104567
132784,104534
132786,104520
132835,104563
132853,104541
132884,104576
132861,104559
132814,104552
132934,104575
132951,104580
132914,104551
132896,104583
132896,104566
132979,104603
133013,104564
132994,104626
132944,104574
132947,104605
133051,104635
133059,104626
133054,104602
132991,104606
133029,104643
133090,104615
133123,104672
133097,104609
133070,104612
133059,104607
133165,104646
133161,104654
133172,104658
133144,104663
133112,104667
133243,104666
133280,104716
133261,104676
133217,104676
133231,104722
133272,104686
133311,104687
133331,104742
133227,104688
133303,104702
133328,104708
133373,104744
133357,104734
133307,104703
133369,104737
133454,104766
133424,104768
133428,104763
133399,104747
133393,104752
133500,104764
133467,104772
133464,104747
133356,104730
133403,104742
133419,104744
133403,104745
133302,104703
133212,104670
133242,104664
133203,104678
133187,104682
133124,104633
132970,104595
133000,104609
132979,104609
132911,104544
132858,104532
132738,104503
132736,104548
132708,104519
132667,104481
132626,104461
132489,104439
132541,104423
132512,104436
132534,104428
132416,104416
132337,104368
132425,104402
132423,104416
132370,104378
132346,104345
132305,104344
132316,104353
132381,104390
132374,104348
132274,104350
132244,104304
132317,104378
132342,104367
132326,104352
132321,104345
132276,104348
132294,104343
132324,104366
132382,104355
132328,104350
132277,104313
132337,104395
132397,104362
132327,104367
132334,104354
132333,104335
132391,104383
132452,104404
132401,104372
132422,104377
132395,104390
132441,104377
132540,104430
132514,104429
132464,104376
132457,104379
132542,104447
132552,104452
132575,104435
132527,104456
132514,104457
132619,104432
132646,104486
132627,104469
132552,104414
132581,104459
132565,104440
132609,104479
132602,104449
132560,104462
132550,104424
132585,104477
132628,104454
132590,104446
132516,104467
132511,104442
132596,104440
132622,104467
132587,104478
132513,104429
132522,104403
132583,104430
132581,104464
132536,104439
132534,104431
132488,104415
132579,104460
132560,104438
132552,104439
132478,104403
132508,104397
132555,104459
132539,104436
132538,104434
132506,104418
132505,104425
132556,104453
132604,104422
132576,104470
132538,104410
132545,104479
132632,104461
132675,104482
132614,104482
132558,104436
132639,104464
132671,104447
132708,104485
132688,104481
132663,104476
132684,104466
132752,104508
132776,104489
132749,104538
132711,104502
132748,104485
132833,104537
132850,104519
132786,104554
132706,104507
132817,104519
132878,104576
132850,104564
132871,104538
132823,104557
132871,104533
132951,104580
132956,104612
132919,104557
132857,104568
132965,104597
133030,104592
133008,104615
133039,104600
132961,104607
133014,104601
133052,104633
133088,104607
133044,104619
132979,104570
133100,104631
133097,104628
133130,104630
133089,104638
133051,104623
133129,104653
133150,104657
133213,104659
133142,104660
133113,104622
133216,104708
133205,104684
133221,104657
133220,104686
133142,104673
133259,104695
133266,104659
133279,104671
133183,104671
133161,104672
133148,104672
133211,104677
133165,104684
133085,104592
133009,104595
133009,104583
132965,104601
132956,104595
132859,104515
132774,104501
132795,104550
132745,104481
132679,104481
132569,104430
132510,104398
132493,104450
132473,104413
132424,104411
132349,104348
132303,104341
132307,104388
132316,104336
132257,104341
132197,104321
132158,104302
132172,104328
132169,104294
132149,104328
132105,104268
132088,104281
132096,104273
132138,104300
132153,104271
132047,104268
132022,104260
132124,104258
132151,104285
132079,104285
132044,104247
132043,104256
132104,104304
132134,104273
132082,104280
132090,104254
132120,104303
132160,104331
132207,104303
132215,104326
132204,104331
132230,104336
132301,104366
132319,104373
132340,104377
132332,104379
132334,104378
132465,104424
132522,104452
132465,104389
132475,104425
132497,104443
132551,104495
132567,104477
132614,104453
132557,104460
132575,104455
132610,104486
132651,104488
132663,104482
132619,104500
132598,104485
132695,104505
132691,104482
132694,104504
132639,104473
132633,104520
132690,104472
132718,104517
132720,104520
132659,104504
132637,104484
132727,104517
132753,104530
132711,104497
132634,104476
132674,104511
132741,104548
132731,104536
132726,104517
132674,104501
132674,104529
132767,104563
132779,104575
132758,104503
132716,104520
132755,104558
132823,104553
132782,104573
132829,104564
132742,104573
132808,104529
132843,104579
132872,104577
132889,104587
132803,104580
132902,104584
132937,104635
132968,104605
132915,104594
132897,104620
132978,104635
132998,104652
133019,104628
133045,104648
132978,104654
133064,104642
133107,104672
133105,104701
133076,104653
133039,104664
133067,104680
133167,104698
133183,104686
133153,104688
133096,104671
133167,104723
133245,104733
133213,104742
133214,104703
133211,104699
133254,104785
133342,104780
133320,104759
133344,104774
133272,104789
133343,104746
133422,104793
133403,104797
133406,104773
133386,104810
133440,104790
133511,104839
133513,104851
133476,104814
133488,104826
133536,104854
133582,104861
133606,104894
133588,104868
133586,104870
133642,104929
133668,104891
133673,104876
133671,104900
133606,104888
133697,104890
133737,104897
133717,104900
133641,104848
133580,104854
133651,104906
133617,104883
133542,104832
133510,104821
133411,104835
133423,104773
133420,104827
133315,104790
133255,104753
133175,104726
133222,104731
133173,104738
133111,104699
133035,104650
132975,104668
132996,104688
133022,104676
132909,104625
132852,104619
132792,104579
132858,104627
132868,104619
132791,104629
132717,104569
132737,104563
132794,104578
132808,104610
132741,104570
132723,104532
132699,104560
132756,104579
132750,104577
132778,104560
132698,104546
132706,104584
132787,104542
132793,104606
132787,104575
132761,104572
132744,104582
132824,104616
132843,104588
132846,104606
132763,104589
132853,104608
132882,104610
132902,104628
132920,104612
132875,104605
132888,104638
132974,104651
133007,104677
132958,104633
132959,104613
132980,104648
133007,104671
133068,104669
133028,104659
132998,104663
133002,104668
133081,104678
133138,104691
133095,104696
133041,104669
133106,104705
133136,104709
133163,104687
133128,104713
133110,104684
133102,104707
133185,104728
133204,104721
133130,104706
133101,104714
133143,104695
133166,104715
133179,104713
133133,104689
133057,104660
133121,104705
133170,104719
133142,104712
133126,104707
133083,104684
133131,104719
133134,104723
133177,104743
133171,104710
133086,104715
133152,104708
133198,104704
133189,104741
133118,104673
133091,104702
133154,104732
133181,104739
133178,104761
133156,104707
133120,104709
133152,104727
133221,104721
133271,104754
133221,104711
133193,104720
133273,104748
133288,104761
133258,104743
133283,104762
133220,104733
133305,104763
133324,104800
133305,104770
133308,104791
133259,104771
133337,104771
133378,104798
133370,104784
133399,104815
133354,104806
133435,104841
133481,104827
133424,104833
133421,104797
133404,104796
133475,104855
133507,104848
133542,104862
133483,104797
133500,104838
133544,104883
133546,104871
133619,104850
133526,104865
133522,104850
133588,104888
133615,104908
133601,104855
133602,104891
133558,104860
133686,104917
133694,104929
133672,104887
133642,104914
133600,104906
133717,104924
133751,104920
133760,104917
133704,104895
133733,104922
133800,104948
133835,104961
133839,104962
133777,104953
133808,104932
133873,104985
133883,104975
133852,104983
133781,104925
133749,104951
133800,104954
133777,104928
133679,104917
133591,104882
133564,104873
133592,104894
133577,104890
133449,104827
133387,104808
133336,104796
133342,104819
133320,104769
133243,104763
133127,104726
133127,104732
133164,104711
133104,104714
133064,104690
132980,104666
132941,104647
132996,104666
132987,104653
132945,104652
132874,104612
132864,104638
132924,104651
132908,104648
132842,104618
132807,104599
132865,104614
132865,104618
132900,104625
132899,104617
132796,104613
132876,104621
132900,104637
132964,104664
132906,104623
132887,104618
132932,104633
133020,104657
133006,104660
132999,104672
132961,104648
133005,104678
133097,104679
133078,104697
133105,104705
133044,104681
133090,104714
133170,104757
133182,104721
133143,104715
133125,104720
133198,104740
133227,104753
133244,104740
133274,104746
133174,104735
133273,104783
133332,104779
133295,104763
133322,104773
133235,104747
133323,104771
133349,104773
133355,104780
133341,104765
133263,104757
133341,104782
133368,104778
133354,104787
133312,104759
133264,104763
133323,104780
133353,104785
133339,104787
133260,104752
133220,104753
133289,104774
133334,104781
133278,104758
133312,104739
133173,104738
133303,104771
133312,104776
133255,104756
133269,104741
133232,104736
133307,104785
133290,104760
133329,104770
133272,104768
133264,104752
133328,104780
133388,104798
133350,104792
133327,104784
133303,104761
133435,104826
133446,104828
133426,104820
133432,104816
133402,104810
133505,104875
133527,104862
133512,104862
133498,104828
133437,104854
133591,104882
133615,104880
133569,104872
133541,104872
133555,104871
133622,104898
133674,104876
133661,104883
133610,104890
133609,104881
133686,104906
133736,104943
133712,104926
133666,104892
133699,104918
133812,104936
133818,104979
133784,104952
133777,104934
133749,104951
133866,104972
133905,104984
133876,104967
133840,104959
133833,104976
133944,105000
133896,105009
133955,105011
133908,105003
133915,105001
134017,105018
134040,105023
134040,105043
133966,105011
134045,105028
134093,105103
134111,105070
134067,105077
134065,105026
134131,105049
134125,105087
134197,105086
134204,105064
134107,105101
134155,105099
134209,105098
134276,105118
134204,105088
134136,105074
134168,105063
134237,105120
134197,105092
134154,105048
134064,105011
134064,105056
134058,105051
134031,105022
133986,104989
133863,104964
133846,104983
133843,104961
133819,104934
133721,104891
133649,104875
133641,104919
133630,104866
133606,104882
133566,104866
133456,104845
133520,104832
133491,104847
133506,104848
133400,104803
133360,104786
133405,104838
133410,104804
133436,104807
133385,104772
133346,104787
133339,104801
133420,104821
133395,104807
133392,104797
133304,104804
133384,104784
133377,104833
133428,104820
133399,104799
133340,104812
133417,104795
133463,104838
133441,104831
133448,104811
133394,104802
133460,104813
133503,104825
133493,104837
133461,104815
133453,104809
133550,104860
133576,104852
133580,104858
133538,104870
133496,104838
133594,104875
133633,104836
133649,104895
133595,104845
133608,104896
133639,104867
133658,104923
133707,104897
133652,104878
133618,104857
133704,104917
133791,104943
133748,104918
133701,104909
133704,104899
133776,104916
133785,104959
133802,104925
133743,104921
133737,104951
133816,104914
133781,104961
133802,104929
133725,104904
133748,104931
133783,104944
133802,104952
133772,104911
133775,104922
133730,104932
133792,104909
133800,104930
133829,104910
133722,104937
133800,104930
133774,104930
133829,104944
133830,104935
133810,104926
133802,104952
133839,104966
133861,104968
133874,104952
133793,104950
133805,104969
133894,104948
133920,104989
133871,104983
133865,104926
133930,104973
133927,105046
133969,105003
133937,105021
133910,104980
133936,104984
134036,105033
134068,105043
134035,105014
133995,105006
134020,104998
134118,105052
134151,105028
134091,105041
134081,105037
134141,105050
134184,105109
134227,105118
134248,105090
134127,105089
134231,105090
134264,105132
134277,105122
134319,105113
134272,105095
134337,105162
134373,105127
134426,105147
134390,105184
134318,105135
134410,105130
134500,105200
134497,105182
134486,105157
134464,105171
134491,105209
134546,105163
134577,105192
134556,105185
134474,105222
134536,105188
134633,105237
134622,105219
134592,105195
134543,105180
134607,105223
134643,105254
134637,105244
134643,105193
134582,105205
134673,105272
134687,105239
134727,105221
134711,105260
134703,105240
134714,105243
134768,105296
134759,105266
134761,105258
134685,105247
134713,105245
134766,105253
134738,105236
134612,105223
134575,105227
134578,105244
134582,105240
134541,105180
134458,105148
134403,105129
134389,105171
134390,105130
134323,105130
134269,105109
134192,105039
134225,105110
134236,105068
134162,105074
134128,105054
134064,105059
134092,105011
134081,105066
134048,105028
133983,105040
133930,104985
134023,104998
134035,105010
133997,105026
133958,105020
133903,104980
133995,104988
134015,105021
133994,104995
133966,104986
133972,104994
134012,105031
134060,105027
134015,105007
134005,104994
134002,104998
134078,105062
134131,105031
134062,105005
134014,105028
134046,105010
134102,105056
134168,105062
134115,105049
134124,105019
134097,105057
134153,105095
134217,105069
134160,105071
134148,105080
134138,105064
134276,105090
134299,105099
134273,105100
134192,105064
134268,105092
134306,105113
134362,105129
134349,105122
134252,105097
134310,105102
134399,105126
134383,105184
134343,105115
134332,105083
134343,105124
134395,105106
134460,105128
134401,105162
134340,105091
134389,105162
134412,105158
134435,105117
134464,105135
134356,105101
134411,105135
134473,105144
134446,105155
134459,105144
134361,105123
134390,105134
134457,105182
134437,105162
134429,105172
134359,105113
134425,105128
134454,105175
134469,105164
134444,105163
134336,105140
134390,105123
134447,105152
134456,105145
134398,105141
134369,105094
134412,105158
134440,105120
134465,105144
134398,105179
134364,105120
134400,105123
134535,105177
134504,105158
134482,105154
134403,105115
134486,105154
134524,105164
134580,105186
134509,105201
134454,105144
134503,105172
134598,105194
134595,105192
134549,105134
134518,105187
134582,105205
134652,105206
134616,105223
134649,105189
134564,105154
134637,105229
134690,105221
134632,105194
134640,105204
134590,105152
134664,105178
134697,105209
134719,105229
134645,105203
134638,105164
134728,105259
134767,105231
134725,105222
134717,105237
134682,105210
134739,105222
134815,105270
134774,105252
134790,105248
134752,105248
134804,105262
134884,105266
134815,105277
134801,105217
134797,105269
134828,105289
134899,105275
134867,105254
134855,105269
134824,105250
134874,105270
134919,105285
134860,105254
134796,105253
134772,105204
134811,105239
134772,105243
134720,105197
134669,105175
134589,105142
134622,105160
134640,105175
134549,105159
134420,105086
134406,105085
134433,105091
134411,105118
134315,105083
134238,105011
134207,105043
134234,105066
134197,105025
134189,104991
134061,104992
134015,104959
134127,105021
134060,104994
134004,104982
133947,104941
133967,104944
134028,104996
134042,104952
134018,104936
133929,104936
133911,104928
133964,104970
133976,104952
133995,104914
133919,104946
133923,104936
133996,104969
134025,104945
134011,104934
133924,104941
133964,104946
134018,104981
134070,104945
134072,104976
133946,104913
133998,104956
134108,104974
134133,104997
134106,104958
134036,104950
134070,104960
134135,104959
134183,105005
134146,105003
134063,104921
134153,105016
134166,105013
134175,104998
134209,104994
134113,104951
134174,104999
134196,105056
134205,105009
134206,105001
134139,105026
134214,105010
134262,105055
134235,105041
134217,104977
134159,105013
134210,105029
134239,105039
134218,104996
134227,105022
134141,104968
134202,104982
134203,104996
134199,104982
134171,105014
134094,104940
134153,105005
134205,104989
134148,104995
134089,104951
134064,104957
134060,104954
134117,105008
134111,104945
134113,104937
134026,104922
134087,104924
134064,104959
134100,104938
134085,104942
134038,104932
134059,104950
134144,104966
134124,104974
134068,104911
133986,104926
134100,104953
134129,104966
134078,104953
134089,104973
134038,104917
134072,104966
134131,104978
134132,104946
134106,104966
134064,104929
134115,104968
134149,104955
134167,104987
134114,104931
134092,104929
134177,104990
134151,104966
134180,104959
134137,104948
134118,104975
134174,104975
134244,105006
134178,104996
134164,104964
134140,104980
134213,104985
134251,104997
134211,104974
134211,105001
134152,104989
134252,104994
134270,104984
134291,105001
134242,104999
134200,104992
134242,104991
134325,105027
134264,104989
134223,105004
134190,104975
134334,104986
134293,105022
134313,105003
134269,105016
134267,104999
134344,105016
134353,105023
134402,105018
134308,104991
134339,105011
134387,105033
134420,105015
134389,105041
134331,104976
134326,105034
134399,105028
134417,105026
134395,105021
134257,104990
134232,104979
134298,104993
134264,105033
134167,104939
134119,104901
134071,104937
134047,104923
133993,104906
133907,104839
133841,104829
133799,104817
133785,104829
133770,104787
133708,104787
133566,104708
133577,104729
133572,104761
133528,104722
133500,104709
133392,104659
133421,104666
133426,104652
133414,104684
133367,104682
133266,104597
133282,104634
133344,104626
133362,104635
133314,104654
133203,104579
133254,104611
133288,104645
133280,104618
133268,104593
133171,104614
133227,104599
133269,104600
133305,104624
133286,104648
133194,104568
133253,104634
133280,104625
133284,104601
133231,104598
133219,104588
133213,104631
133295,104644
133294,104591
133344,104608
133277,104603
133315,104647
133389,104663
133355,104670
133376,104605
133312,104645
133374,104660
133428,104699
133399,104643
133440,104660
133352,104658
133446,104683
133456,104701
133470,104648
133442,104669
133379,104625
133455,104681
133445,104676
133468,104667
133465,104662
133374,104641
133462,104683
133480,104672
133466,104663
133385,104675
133343,104672
133392,104668
133424,104702
133388,104639
133381,104635
133318,104610
133402,104650
133418,104645
133395,104656
133325,104601
133276,104640
133369,104623
133406,104674
133331,104648
133314,104570
133288,104610
133370,104620
133406,104640
133388,104640
133288,104584
133270,104629
133360,104635
133378,104675
133353,104613
133325,104607
133289,104602
133416,104646
133375,104640
133387,104614
133339,104641
133324,104606
133368,104665
133424,104639
133454,104645
133364,104647
133340,104629
133454,104653
133415,104649
133441,104625
133355,104633
133387,104630
133417,104658
133490,104676
133456,104675
133404,104637
133459,104670
133519,104676
133496,104671
133517,104687
133480,104655
133471,104692
133522,104693
133581,104687
133573,104697
133499,104674
133515,104694
133590,104666
133621,104717
133603,104679
133556,104688
133597,104693
133597,104753
133652,104699
133660,104700
133567,104674
133635,104700
133680,104729
133691,104727
133625,104736
133639,104683
133638,104725
133709,104741
133704,104723
133696,104746
133603,104698
133663,104711
133728,104735
133732,104712
133735,104759
133695,104703
133728,104750
133742,104751
133805,104755
133730,104738
133658,104754
133695,104744
133797,104758
133764,104771
133655,104732
133619,104690
133651,104682
133653,104720
133612,104693
133504,104661
133384,104607
133379,104638
133378,104630
133291,104591
133208,104535
133111,104520
133104,104497
133051,104497
133009,104481
132934,104451
132762,104394
132805,104420
132768,104426
132746,104373
132629,104348
132548,104307
132564,104305
132543,104310
132511,104307
132442,104277
132382,104237
132382,104250
132411,104287
132390,104234
132308,104182
132241,104178
132326,104232
132297,104209
132307,104217
132221,104193
132194,104157
132250,104206
132263,104194
132261,104224
132240,104155
132182,104201
132270,104212
132254,104215
132259,104190
132247,104182
132194,104182
132286,104213
132304,104228
132267,104219
132218,104151
132168,104193
132274,104229
132294,104221
132256,104178
132234,104193
132214,104171
132302,104211
132306,104253
132324,104212
132236,104215
132241,104170
132358,104223
132333,104253
132310,104236
132260,104224
132273,104178
132389,104254
132313,104222
132327,104206
132283,104212
132258,104205
132326,104202
132292,104254
132243,104198
132219,104184
132200,104186
132251,104177
132259,104199
132200,104179
132141,104154
132158,104141
132188,104194
132172,104143
132161,104154
132070,104135
132064,104118
132176,104143
132132,104175
132110,104135
132047,104102
132081,104117
132140,104163
132131,104124
132102,104138
132016,104094
132056,104141
132071,104141
132128,104150
132050,104132
132001,104088
132043,104105
132078,104123
132131,104135
132091,104138
132011,104089
132063,104135
132096,104138
132144,104152
132095,104143
132037,104128
132083,104123
132141,104124
132180,104141
132169,104143
132082,104096
132180,104156
132166,104192
132231,104154
132210,104164
132100,104148
132188,104198
132219,104166
132254,104200
132202,104211
132152,104142
132212,104198
132262,104186
132302,104182
132234,104211
132204,104140
132270,104170
132285,104227
132319,104231
132268,104197
132250,104210
132283,104226
132346,104218
132343,104241
132380,104217
132299,104200
132381,104246
132407,104267
132415,104224
132409,104216
132338,104201
132439,104239
132450,104286
132455,104236
132462,104257
132372,104245
132486,104276
132477,104283
132512,104299
132486,104259
132453,104237
132483,104317
132576,104292
132580,104291
132511,104307
132503,104260
132559,104322
132624,104309
132614,104315
132548,104300
132472,104262
132564,104306
132565,104288
132510,104273
132418,104265
132347,104195
132370,104214
132322,104212
132256,104165
132143,104159
132035,104121
132056,104119
132039,104122
131963,104066
131809,104016
131753,104002
131776,103988
131725,104027
131629,103960
131525,103901
131438,103887
131466,103920
131419,103897
131368,103850
131236,103844
131181,103793
131205,103812
131190,103801
131125,103802
131036,103711
130994,103734
131022,103772
131002,103731
131001,103713
130928,103684
130911,103739
130967,103724
131001,103742
130995,103709
130956,103699
130920,103734
131012,103728
131079,103769
131024,103757
130995,103734
130983,103709
131086,103766
131067,103799
131059,103721
131039,103778
131041,103761
131081,103765
131122,103830
131093,103765
131085,103744
131092,103798
131164,103810
131186,103838
131180,103792
131158,103796
131174,103825
131280,103822
131261,103826
131275,103810
131192,103820
131262,103841
131320,103829
131330,103870
131293,103861
131261,103854
131253,103863
131308,103837
131352,103890
131322,103858
131255,103830
131267,103841
131320,103897
131324,103812
131261,103843
131200,103829
131229,103836
131225,103827
131262,103836
131239,103858
131147,103773
131202,103830
131215,103848
131257,103842
131173,103803
131128,103796
131186,103830
131242,103822
131209,103841
131174,103817
131127,103806
131139,103852
131184,103804
131226,103819
131153,103808
131102,103809
131143,103821
131193,103791
131181,103837
131185,103796
131102,103789
131185,103852
131196,103823
131251,103821
131182,103837
131164,103822
131224,103852
131238,103840
131211,103834
131196,103802
131130,103797
131213,103833
131277,103856
131217,103832
131225,103808
131163,103822
131206,103846
131281,103864
131285,103864
131238,103828
131223,103826
131275,103864
131271,103833
131297,103854
131289,103831
131193,103814
131265,103832
131375,103897
131309,103850
131303,103818
131308,103882
131368,103861
131396,103912
131364,103867
131383,103861
131350,103878
131428,103883
131491,103915
131475,103915
131399,103905
131454,103889
131508,103947
131513,103926
131516,103956
131528,103951
131545,103919
131617,103975
131668,103978
131627,103981
131585,103978
131629,103971
131684,104036
131689,103987
131700,104038
131628,103980
131654,104013
131733,104051
131749,104008
131748,104047
131649,104003
131706,104020
131761,104030
131788,104013
131796,104021
131731,104034
131774,104011
131840,104076
131842,104064
131827,104035
131805,104062
131768,104039
131853,104059
131813,104046
131787,104057
131645,104022
131644,103975
131673,104025
131677,103996
131574,103988
131437,103957
131391,103887
131428,103898
131361,103900
131244,103870
131120,103806
131136,103820
131090,103836
131024,103753
130957,103738
130835,103665
130819,103692
130825,103696
130759,103677
130715,103647
130619,103621
130645,103637
130640,103638
130642,103627
130584,103613
130468,103561
130549,103582
130534,103611
130523,103611
130484,103567
130468,103555
130464,103620
130554,103571
130527,103609
130508,103568
130475,103574
130527,103595
130632,103625
130586,103641
130605,103570
130513,103614
130572,103620
130637,103630
130665,103620
130641,103658
130590,103603
130661,103633
130700,103687
130755,103646
130747,103658
130719,103667
130805,103708
130835,103718
130895,103707
130855,103727
130786,103693
130872,103727
130965,103739
130957,103735
130889,103749
130913,103740
130943,103786
131013,103767
131023,103807
130997,103760
130939,103734
131027,103806
131077,103788
131017,103761
130992,103772
130963,103782
131040,103796
131057,103796
131060,103795
130979,103767
130924,103756
131001,103776
131004,103783
131000,103773
130968,103763
130912,103732
130953,103753
131005,103762
130973,103769
130931,103740
130899,103755
130998,103795
131008,103812
131005,103765
130995,103777
130979,103775
131106,103847
131106,103813
131096,103855
131104,103812
131063,103848
131160,103866
131259,103897
131222,103877
131198,103873
131142,103852
131272,103865
131276,103924
131269,103884
131198,103872
131224,103851
131307,103899
131262,103897
131223,103911
131228,103872
131195,103842
131305,103921
131304,103904
131333,103910
131284,103914
131300,103886
131420,103944
131439,103953
131461,103982
131380,103980
131460,103967
131540,104006
131601,104024
131588,104036
131561,103985
131604,104046
131756,104098
131739,104079
131712,104078
131741,104089
131748,104095
131846,104152
131910,104141
131865,104148
131851,104138
131876,104128
131987,104191
131987,104203
132021,104175
131971,104189
132021,104189
132080,104231
132146,104242
132150,104255
132043,104203
132156,104268
132226,104311
132272,104283
132282,104299
132192,104266
132295,104324
132340,104322
132371,104378
132361,104352
132313,104291
132357,104349
132467,104388
132464,104374
132494,104402
132385,104332
132463,104399
132543,104394
132581,104420
132543,104422
132490,104377
132561,104415
132616,104434
132558,104428
132508,104400
132400,104387
132418,104393
132443,104354
132417,104365
132295,104320
132199,104262
132189,104279
132192,104291
132116,104280
132013,104253
131890,104153
131943,104201
131881,104209
131879,104188
131750,104163
131668,104111
131716,104111
131712,104146
131685,104090
131619,104103
131495,104050
131536,104088
131550,104085
131520,104034
131495,104045
131437,103979
131461,104031
131539,104037
131505,104061
131424,104021
131428,104031
131497,104042
131512,104040
131534,104040
131505,104104
131454,104020
131569,104083
131569,104086
131599,104119
