11111,11111
0,0
79881,79615
97374,96229
97363,96204
97416,96227
97408,96246
97415,96216
97406,96217
97401,96242
97434,96243
97474,96288
97443,96231
97485,96229
97441,96255
97500,96245
97506,96290
97506,96244
97519,96246
97470,96230
97570,96270
97610,96320
97541,96291
97578,96246
97532,96300
97613,96298
97638,96317
97625,96310
97596,96324
97603,96269
97695,96359
97656,96324
97694,96330
97680,96308
97664,96307
97726,96355
97697,96343
97729,96336
97729,96332
97690,96298
97761,96363
97763,96383
97798,96350
97780,96366
97740,96334
97819,96391
97829,96403
97801,96404
97776,96337
97825,96384
97837,96380
97896,96409
97861,96383
97832,96393
97808,96364
97870,96395
97884,96426
97893,96408
97862,96407
97851,96360
97922,96421
97905,96446
97910,96420
97942,96439
97909,96389
97992,96456
97978,96443
97985,96427
97992,96434
97940,96431
98039,96432
98007,96453
98061,96471
98000,96468
98002,96429
98047,96484
98080,96462
98027,96469
98053,96424
98042,96449
98134,96516
98076,96511
98122,96455
98132,96490
98089,96475
98167,96504
98180,96564
98143,96510
98137,96544
98192,96494
98278,96572
98263,96532
98242,96548
98263,96537
98270,96516
98130,96588
98175,96589
98151,96587
98100,96515
98147,96599
98176,96602
98213,96624
98161,96591
98169,96548
98201,96599
98212,96625
98261,96634
98224,96601
98213,96605
98202,96608
98259,96646
98314,96670
98265,96640
98232,96597
98243,96606
98301,96621
98314,96650
98298,96640
98273,96624
98277,96618
98363,96662
98314,96677
98316,96639
98270,96640
98333,96670
98361,96700
97606,96288
97146,96047
97195,96101
97240,96088
97314,96120
97371,96135
97471,96207
97462,96180
97527,96188
97517,96220
97591,96267
97578,96205
97592,96195
97569,96194
97609,96262
97594,96237
97618,96274
97626,96239
97613,96202
97675,96275
97697,96310
97731,96286
97696,96272
97702,96240
97771,96294
97785,96299
97796,96338
97762,96310
97815,96269
97865,96337
97873,96374
97842,96338
97859,96335
97815,96322
97917,96363
97943,96380
97923,96384
97908,96326
97913,96396
97950,96404
98000,96437
98010,96388
98009,96391
97979,96402
98048,96447
98058,96469
98096,96424
98042,96436
98010,96397
98118,96446
98157,96495
98122,96443
98115,96453
98122,96435
98183,96515
98195,96495
98202,96517
98200,96479
98161,96456
98247,96523
98256,96573
98271,96540
98223,96505
98228,96539
98279,96529
98350,96548
98301,96541
98334,96564
98319,96524
98370,96607
98346,96554
98363,96600
98338,96558
98358,96536
98402,96599
98416,96595
98423,96618
98405,96574
98399,96547
98465,96617
98459,96646
98436,96581
98441,96563
98431,96588
98473,96645
98482,96657
98480,96620
98468,96601
98435,96588
98492,96620
98544,96654
98516,96665
98495,96568
98499,96654
98527,96646
98584,96668
98581,96661
98557,96624
98520,96634
98583,96683
98633,96717
98578,96667
98551,96650
98586,96660
98619,96682
98645,96714
98648,96672
98606,96685
98619,96715
98696,96695
98712,96707
98724,96741
98636,96691
98673,96698
98742,96721
98723,96746
98718,96744
98731,96698
98719,96721
98785,96760
98816,96786
98794,96784
98772,96767
98787,96755
98859,96763
98855,96775
98867,96770
98827,96794
98827,96773
98887,96780
98915,96846
98893,96797
98885,96781
98902,96763
98953,96864
98920,96803
98862,96789
98790,96717
98747,96742
98690,96707
98603,96632
98533,96638
98355,96566
98302,96528
98286,96510
98200,96493
98012,96370
97973,96392
97923,96351
97904,96319
97798,96276
97778,96260
97785,96296
97753,96279
97692,96243
97668,96163
97659,96225
97658,96209
97696,96216
97656,96219
97569,96163
97628,96210
97626,96210
97679,96185
97643,96232
97578,96175
97634,96195
97671,96229
97667,96203
97709,96209
97617,96211
97669,96231
97752,96243
97761,96260
97757,96275
97691,96216
97764,96252
97798,96273
97786,96266
97789,96271
97733,96203
97832,96271
97821,96305
97817,96262
97838,96274
97798,96257
97799,96250
97865,96275
97842,96323
97847,96291
97807,96239
97834,96258
97927,96303
97879,96300
97896,96290
97886,96298
97930,96293
97957,96370
97969,96330
97961,96336
97998,96310
98018,96359
98083,96373
98053,96367
98098,96373
98020,96383
98078,96377
98153,96418
98110,96419
98113,96407
98063,96400
98104,96365
98139,96441
98118,96434
98087,96417
98088,96396
98086,96371
98148,96396
98086,96436
98093,96404
98043,96352
98107,96380
98144,96418
98101,96384
98103,96364
98070,96333
98077,96367
98148,96387
98094,96383
98142,96394
98039,96334
98118,96392
98163,96406
98121,96387
98181,96401
98077,96394
98156,96393
98202,96438
98171,96408
98193,96457
98151,96371
98244,96463
98242,96433
98243,96431
98291,96460
98223,96440
98311,96443
98354,96527
98327,96476
98339,96453
98290,96483
98333,96478
98404,96507
98420,96540
98403,96528
98355,96495
98454,96541
98504,96538
98479,96595
98471,96539
98461,96518
98499,96568
98559,96594
98521,96559
98564,96575
98509,96554
98596,96583
98604,96620
98608,96591
98610,96609
98592,96566
98633,96631
98670,96665
98635,96643
98678,96641
98620,96602
98687,96626
98728,96653
98699,96633
98741,96641
98676,96635
98732,96654
98812,96742
98774,96662
98792,96671
98775,96686
98826,96735
98826,96727
98851,96713
98885,96734
98839,96674
98869,96706
98958,96764
98902,96739
98956,96734
98874,96711
98933,96771
98994,96791
98956,96776
98967,96752
98973,96756
99017,96801
99049,96836
99058,96797
99043,96783
99003,96801
99061,96797
99152,96865
99080,96828
99091,96817
99048,96804
99110,96807
99172,96884
99133,96818
99125,96824
99100,96849
99152,96834
99216,96867
99175,96889
99137,96839
99158,96837
99229,96880
99191,96880
99224,96868
99172,96871
99197,96852
99228,96899
99266,96912
99230,96888
99241,96885
99201,96838
99296,96897
99280,96949
99287,96896
99275,96894
99251,96849
99345,96926
99327,96964
99339,96937
99361,96942
99304,96914
99410,96950
99404,97023
99439,96953
99421,96957
99391,96935
99474,96992
99494,97039
99456,96973
99488,96977
99484,96953
99516,97039
99568,97029
99521,97004
99543,97011
99521,97008
99600,97036
99597,97099
99612,97063
99601,97019
99551,97020
99610,97037
99625,97075
99579,97012
99477,96952
99371,96953
99329,96899
99262,96881
99126,96815
98955,96725
98847,96654
98773,96647
98786,96672
98624,96580
98549,96534
98487,96518
98461,96508
98440,96517
98369,96477
98321,96425
98249,96398
98266,96446
98267,96415
98183,96379
98158,96329
98129,96344
98172,96380
98140,96362
98136,96348
98103,96320
98103,96319
98132,96360
98159,96364
98125,96345
98081,96305
98095,96333
98169,96386
98187,96373
98145,96355
98105,96342
98167,96336
98195,96388
98198,96398
98200,96342
98179,96361
98194,96347
98234,96389
98257,96424
98229,96417
98219,96355
98208,96391
98295,96409
98288,96447
98276,96428
98237,96360
98204,96400
98279,96402
98284,96395
98300,96412
98213,96404
98227,96391
98252,96421
98314,96436
98308,96434
98213,96349
98268,96394
98294,96423
98292,96444
98324,96427
98283,96360
98331,96436
98348,96437
98367,96447
98382,96470
98349,96419
98331,96443
98399,96485
98411,96471
98362,96453
98356,96395
98351,96434
98398,96451
98369,96447
98355,96415
98368,96424
98355,96408
98394,96435
98350,96434
98341,96434
98339,96400
98330,96394
98389,96442
98357,96448
98323,96411
98349,96390
98314,96375
98373,96457
98370,96442
98323,96453
98300,96378
98323,96370
98357,96457
98348,96415
98356,96416
98278,96369
98348,96440
98374,96426
98348,96402
98370,96407
98296,96437
98332,96422
98404,96450
98404,96453
98416,96424
98324,96403
98437,96445
98456,96459
98440,96493
98434,96471
98395,96441
98463,96436
98504,96486
98482,96469
98520,96486
98455,96470
98514,96467
98557,96540
98521,96464
98543,96503
98530,96468
98565,96521
98612,96515
98584,96557
98569,96519
98571,96473
98614,96523
98646,96561
98635,96561
98686,96567
98608,96517
98733,96563
98707,96588
98729,96560
98731,96600
98680,96551
98764,96572
98744,96628
98783,96597
98751,96593
98770,96550
98775,96631
98816,96591
98816,96619
98822,96628
98746,96616
98813,96611
98909,96637
98827,96656
98843,96626
98844,96611
98897,96638
98892,96676
98921,96643
98919,96651
98885,96629
98914,96665
98978,96717
98933,96675
98977,96671
98938,96658
98993,96677
99015,96711
99004,96679
99026,96710
98910,96646
99016,96692
99052,96744
99015,96722
99051,96703
98989,96718
99064,96680
99106,96744
99098,96739
99062,96733
99016,96695
99113,96741
99109,96747
99132,96751
99123,96753
99074,96700
99144,96770
99200,96794
99157,96770
99210,96770
99121,96761
99178,96805
99254,96821
99205,96800
99239,96774
99218,96789
99255,96787
99324,96836
99287,96823
99294,96821
99296,96825
99308,96832
99378,96884
99347,96853
99384,96859
99320,96802
99429,96893
99413,96884
99425,96870
99438,96892
99374,96853
99450,96909
99519,96941
99484,96881
99475,96917
99456,96878
99561,96920
99546,96974
99545,96916
99547,96955
99509,96906
99574,96959
99643,96974
99612,96988
99580,96921
99567,96959
99634,96961
99654,97003
99673,96965
99665,96994
99640,96924
99709,97039
99744,97021
99714,97017
99753,96996
99722,97002
99790,97060
99822,97057
99835,97060
99794,97022
99782,97033
99882,97072
99883,97128
99882,97078
99899,97100
99847,97076
99914,97084
99960,97126
99919,97098
99921,97089
99902,97044
99957,97116
99975,97140
99937,97110
99942,97077
99925,97082
99966,97100
99948,97104
99897,97077
99802,97021
99702,96986
99657,96967
99573,96938
99445,96870
99285,96784
99226,96732
99178,96768
99099,96698
99052,96643
98932,96618
98862,96621
98836,96548
98829,96605
98771,96535
98682,96498
98619,96464
98657,96511
98608,96509
98616,96450
98536,96433
98483,96438
98504,96445
98565,96472
98500,96447
98441,96396
98452,96391
98512,96408
98485,96456
98470,96410
98489,96382
98446,96414
98523,96422
98530,96444
98509,96439
98525,96416
98498,96442
98574,96437
98587,96478
98584,96469
98582,96474
98570,96451
98623,96472
98677,96525
98677,96469
98614,96476
98599,96493
98656,96537
98681,96498
98699,96516
98668,96482
98647,96455
98720,96517
98726,96549
98682,96519
98661,96459
98703,96510
98736,96538
98757,96528
98755,96540
98687,96514
98739,96495
98757,96542
98778,96551
98765,96528
98781,96531
98778,96521
98846,96574
98850,96568
98860,96561
98796,96540
98870,96566
98913,96589
98866,96594
98865,96578
98852,96595
98896,96578
98908,96645
98902,96561
98911,96615
98837,96519
98843,96597
98910,96607
98908,96596
98860,96593
98850,96527
98873,96579
98896,96599
98899,96579
98861,96573
98845,96544
98867,96549
98910,96582
98895,96575
98874,96577
98830,96534
98882,96558
98910,96591
98895,96606
98885,96567
98857,96564
98879,96540
98917,96616
98946,96600
98913,96576
98871,96571
98892,96572
98969,96602
98931,96593
98968,96621
98885,96582
98935,96624
98969,96598
98940,96626
98956,96594
98981,96625
99001,96591
99024,96635
99044,96656
98995,96637
98983,96568
99022,96625
99090,96645
99074,96644
99107,96671
99060,96636
99125,96650
99138,96705
99167,96673
99141,96706
99122,96688
99141,96669
99226,96724
99213,96719
99204,96710
99199,96693
99204,96695
99293,96739
99264,96767
99245,96707
99293,96708
99292,96786
99322,96748
99391,96819
99361,96777
99305,96725
99410,96774
99430,96797
99438,96844
99424,96809
99421,96772
99484,96852
99516,96853
99476,96819
99525,96840
99471,96844
99516,96840
99607,96860
99582,96843
99588,96867
99523,96856
99559,96851
99619,96880
99608,96910
99620,96878
99541,96863
99616,96869
99720,96913
99647,96919
99667,96922
99646,96893
99653,96909
99687,96946
99708,96945
99714,96939
99651,96918
99745,96944
99724,96949
99758,96949
99727,96939
99697,96898
99769,96945
99768,96970
99818,96956
99799,96960
99751,96933
99817,96951
99860,96998
99848,96969
99868,96975
99805,96978
99855,96999
99924,96980
99881,97037
99902,97010
99870,96973
99960,97018
99953,97055
99965,97048
100002,97044
99948,97010
99999,97054
100038,97065
100057,97065
100030,97081
100010,97008
100063,97102
100098,97109
100055,97073
100094,97060
100089,97100
100137,97096
100183,97131
100152,97124
100162,97129
100112,97056
100221,97126
100230,97178
100213,97125
100239,97132
100198,97140
100259,97148
100321,97201
100320,97192
100329,97177
100271,97147
100356,97187
100391,97223
100398,97236
100399,97185
100361,97179
100439,97245
100450,97264
100447,97250
100434,97238
100446,97258
100531,97266
100553,97299
100545,97277
100527,97272
100545,97266
100612,97314
100652,97350
100652,97330
100634,97332
100631,97304
100681,97349
100703,97389
100711,97364
100717,97372
100698,97341
100787,97398
100831,97391
100794,97385
100801,97367
100768,97360
100814,97417
100775,97344
100685,97354
100610,97291
100507,97235
100405,97199
100315,97162
100174,97105
100072,97028
99914,96953
99886,96973
99783,96905
99685,96907
99587,96829
99508,96775
99513,96818
99439,96834
99426,96770
99324,96710
99283,96682
99309,96727
99302,96714
99232,96699
99213,96641
99160,96656
99203,96647
99202,96683
99154,96637
99145,96625
99135,96645
99184,96665
99209,96650
99150,96650
99175,96652
99166,96635
99201,96650
99283,96680
99251,96668
99209,96682
99232,96654
99320,96708
99331,96711
99310,96725
99346,96699
99319,96706
99376,96706
99382,96776
99370,96738
99346,96730
99366,96722
99428,96754
99489,96812
99459,96730
99408,96740
99456,96746
99516,96834
99490,96771
99482,96809
99471,96775
99467,96753
99539,96778
99548,96852
99523,96817
99476,96770
99514,96816
99568,96816
99609,96855
99613,96842
99581,96832
99614,96839
99659,96875
99709,96881
99696,96871
99657,96853
99703,96879
99731,96896
99705,96921
99723,96887
99719,96876
99664,96837
99755,96859
99737,96907
99749,96893
99684,96836
99712,96868
99696,96909
99733,96846
99689,96842
99664,96846
99667,96848
99691,96884
99717,96842
99697,96856
99652,96814
99650,96845
99664,96863
99685,96832
99639,96854
99633,96785
99638,96834
99666,96883
99682,96866
99686,96834
99628,96814
99666,96866
99696,96847
99699,96889
99715,96884
99652,96811
99715,96854
99732,96909
99755,96879
99753,96884
99699,96824
99744,96901
99767,96894
99806,96926
99800,96907
99745,96887
99797,96908
99845,96917
99879,96966
99850,96928
99809,96913
99895,96946
99911,96984
99946,97007
99925,96961
99957,96951
99993,96961
100025,97012
100032,97050
100030,96997
100017,96998
100047,97015
100099,97021
100111,97024
100121,97069
100090,96996
100121,97064
100159,97038
100167,97070
100163,97073
100197,97052
100207,97073
100271,97140
100271,97101
100260,97101
100256,97096
100274,97079
100333,97130
100316,97179
100322,97122
100294,97104
100367,97150
100410,97178
100411,97143
100429,97177
100359,97143
100428,97168
100455,97194
100486,97204
100446,97192
100455,97112
100474,97221
100523,97188
100516,97214
100510,97206
100472,97174
100541,97205
100519,97230
100578,97207
100553,97208
100460,97174
100554,97229
100603,97277
100577,97194
100580,97228
100513,97170
100605,97244
100582,97279
100631,97231
100616,97254
100551,97220
100628,97236
100629,97262
100640,97286
100632,97233
100631,97261
100643,97250
100700,97289
100709,97270
100695,97292
100660,97251
100689,97258
100734,97281
100757,97305
100719,97291
100665,97277
100737,97287
100786,97307
100790,97328
100780,97299
100764,97284
100781,97317
100839,97321
100809,97344
100819,97316
100812,97303
100842,97331
100913,97335
100868,97388
100887,97328
100835,97306
100921,97368
100961,97389
100916,97361
100973,97382
100855,97318
100965,97392
101016,97432
100972,97365
101002,97391
100959,97382
100996,97405
101040,97440
101075,97411
101063,97411
101014,97365
101088,97445
101088,97448
101086,97451
101096,97435
101089,97395
101121,97474
101146,97436
101135,97467
101110,97431
100989,97404
100989,97371
100957,97367
100783,97258
100631,97218
100490,97144
100446,97137
100359,97091
100184,97050
100102,96970
99966,96945
99937,96917
99899,96913
99777,96821
99708,96795
99588,96764
99615,96772
99531,96726
99518,96710
99447,96702
99366,96625
99419,96711
99363,96657
99332,96644
99296,96626
99277,96579
99312,96651
99290,96617
99304,96632
99254,96597
99254,96580
99278,96642
99324,96666
99339,96640
99310,96642
99326,96614
99387,96659
99373,96669
99403,96669
99400,96681
99361,96622
99442,96706
99456,96714
99486,96739
99450,96683
99481,96709
99490,96740
99525,96754
99555,96748
99508,96715
99536,96727
99560,96766
99607,96767
99593,96747
99570,96728
99581,96726
99631,96778
99625,96808
99652,96776
99621,96778
99623,96727
99677,96787
99692,96818
99689,96790
99700,96819
99695,96829
99762,96839
99810,96870
99765,96856
99797,96813
99784,96838
99853,96886
99894,96906
99827,96851
99846,96819
99802,96866
99879,96861
99894,96907
99849,96887
99822,96835
99828,96868
99837,96866
99873,96851
99826,96839
99831,96839
99794,96797
99843,96854
99808,96854
99814,96865
99772,96813
99768,96789
99839,96855
99779,96821
99772,96839
99694,96771
99747,96813
99764,96845
99780,96870
99743,96784
99726,96778
99692,96786
99741,96832
99737,96826
99715,96801
99732,96784
99728,96831
99765,96809
99777,96838
99769,96850
99746,96793
99809,96847
99819,96850
99835,96853
99835,96855
99853,96830
99841,96853
99920,96873
99920,96918
99905,96881
99892,96851
99946,96882
99973,96938
100016,96913
99988,96931
99994,96871
99985,96880
100076,96960
100096,96968
100082,96946
100035,96926
100117,96978
100154,96999
100178,97001
100172,97024
100152,96937
100198,97029
100235,97010
100256,97049
100297,97042
100220,97029
100287,97035
100331,97089
100370,97059
100362,97070
100306,97051
100388,97085
100388,97132
100427,97104
100436,97090
100415,97085
100427,97096
100496,97127
100507,97166
100478,97127
100457,97108
100491,97137
100562,97142
100545,97193
100564,97154
100552,97154
100576,97170
100639,97203
100640,97212
100613,97208
100585,97127
100635,97205
100692,97202
100686,97232
100693,97243
100641,97143
100709,97210
100730,97241
100767,97241
100743,97253
100716,97203
100724,97243
100796,97264
100814,97251
100813,97283
100766,97230
100798,97233
100818,97283
100844,97278
100833,97293
100795,97226
100853,97278
100876,97294
100858,97268
100854,97274
100816,97253
100875,97277
100908,97322
100911,97308
100896,97302
100841,97236
100917,97312
100956,97326
100946,97306
100928,97308
100933,97250
100960,97338
100980,97304
100968,97355
100989,97335
100931,97284
101015,97331
101050,97389
101040,97337
101050,97370
100991,97281
101052,97363
101099,97357
101089,97380
101070,97368
101051,97333
101099,97389
101140,97407
101164,97407
101137,97380
101113,97384
101166,97403
101210,97427
101182,97447
101175,97384
101195,97413
101242,97400
101285,97470
101289,97475
101301,97440
101222,97438
101352,97462
101356,97496
101347,97475
101361,97506
101357,97463
101407,97505
101437,97499
101473,97548
101421,97517
101389,97481
101495,97532
101525,97588
101523,97521
101506,97550
101440,97480
101493,97511
101425,97563
101339,97441
101231,97409
101050,97304
100953,97317
100815,97218
100634,97168
100501,97093
100284,97002
100269,97011
100175,96935
100046,96914
99948,96874
99837,96767
99836,96803
99748,96805
99667,96762
99614,96704
99538,96622
99547,96697
99493,96654
99483,96652
99406,96630
99373,96558
99425,96620
99397,96611
99370,96592
99345,96579
99300,96546
99378,96607
99355,96595
99382,96617
99357,96585
99326,96570
99433,96601
99444,96633
99442,96625
99429,96631
99403,96584
99503,96650
99552,96622
99521,96662
99546,96640
99466,96650
99558,96657
99615,96719
99580,96676
99603,96694
99596,96662
99638,96747
99666,96710
99663,96754
99670,96719
99634,96697
99722,96760
99713,96740
99725,96750
99688,96715
99659,96728
99745,96778
99752,96761
99749,96735
99723,96758
99690,96696
99780,96787
99817,96796
99791,96801
99748,96737
99812,96773
99823,96797
99876,96833
99864,96802
99856,96825
99855,96758
99888,96841
99900,96779
99895,96801
99862,96785
99817,96795
99872,96790
99911,96842
99864,96792
99812,96769
99811,96739
99803,96791
99874,96804
99808,96755
99805,96757
99741,96727
99796,96755
99849,96762
99827,96780
99721,96735
99754,96718
99792,96735
99795,96738
99794,96728
99739,96735
99719,96680
99784,96780
99798,96748
99753,96757
99729,96698
99738,96743
99787,96737
99814,96763
99802,96724
99775,96720
99802,96724
99852,96791
99841,96782
99886,96801
99871,96732
99829,96802
99912,96811
99974,96828
99907,96822
99939,96790
99953,96784
100015,96829
100008,96884
100022,96837
100045,96860
100024,96834
100108,96914
100117,96927
100098,96890
100113,96880
100081,96878
100182,96924
100214,96925
100176,96946
100168,96918
100187,96921
100246,96982
100295,96980
100286,96965
100231,96942
100311,96974
100323,97015
100408,97004
100377,97027
100355,96982
100406,96978
100453,97064
100461,97021
100468,97057
100429,97002
100452,97014
100547,97062
100555,97081
100528,97076
100510,97009
100540,97075
100569,97078
100618,97110
100593,97117
100553,97057
100597,97090
100671,97140
100664,97150
100630,97101
100631,97084
100649,97124
100696,97129
100695,97163
100693,97158
100674,97108
100671,97140
100762,97158
100741,97187
100729,97153
100707,97124
100721,97177
100784,97170
100782,97193
100761,97147
100758,97141
100764,97182
100828,97187
100797,97181
100833,97186
100778,97128
100843,97185
100865,97205
100876,97201
100876,97219
100793,97177
100866,97218
100922,97251
100904,97218
100877,97204
100896,97190
100887,97249
100949,97226
100972,97251
100933,97239
100919,97204
100960,97239
101023,97289
100979,97245
101017,97276
100990,97229
101044,97255
101094,97328
101048,97252
101063,97304
101043,97226
101053,97295
101134,97340
101093,97310
101149,97304
101083,97300
101159,97319
101180,97354
101183,97301
101229,97340
101135,97333
101240,97332
101292,97361
101268,97376
101265,97364
101208,97300
101309,97409
101325,97399
101317,97415
101319,97408
101311,97366
101339,97401
101418,97438
101360,97433
101379,97424
101329,97371
101410,97429
101414,97475
101453,97449
101432,97474
101400,97426
101451,97418
101471,97488
101534,97482
101493,97484
101444,97409
101539,97501
101571,97528
101591,97512
101579,97510
101504,97454
101625,97526
101673,97523
101625,97539
101633,97535
101527,97456
101562,97515
101512,97472
101445,97408
101291,97372
101096,97226
100966,97230
100828,97148
100668,97118
100514,96993
100307,96961
100255,96932
100132,96886
100046,96842
99957,96745
99841,96690
99779,96729
99775,96751
99732,96667
99617,96654
99523,96531
99536,96605
99536,96616
99446,96585
99414,96517
99346,96524
99411,96516
99403,96547
99349,96531
99342,96502
99336,96470
99356,96528
99372,96548
99376,96520
99333,96524
99333,96507
99381,96552
99404,96548
99422,96549
99371,96551
99375,96506
99475,96596
99470,96587
99514,96609
99482,96585
99481,96557
99526,96595
99593,96641
99543,96595
99571,96604
99502,96594
99587,96639
99617,96617
99590,96618
99600,96609
99560,96628
99657,96665
99643,96660
99638,96627
99652,96619
99612,96645
99671,96637
99737,96693
99690,96657
99677,96641
99638,96635
99731,96653
99777,96703
99738,96665
99774,96661
99728,96668
99826,96738
99816,96738
99844,96739
99782,96702
99764,96658
99814,96728
99858,96747
99826,96681
99811,96688
99756,96671
99793,96687
99805,96723
99814,96723
99790,96707
99743,96633
99798,96706
99822,96699
99763,96683
99759,96675
99692,96623
99782,96681
99757,96687
99759,96675
99704,96650
99689,96638
99708,96648
99738,96663
99680,96619
99674,96599
99667,96620
99702,96670
99694,96635
99672,96669
99642,96596
99637,96622
99705,96661
99727,96661
99651,96654
99659,96644
99663,96629
99731,96664
99739,96665
99739,96698
99712,96655
99690,96639
99778,96688
99791,96704
99789,96688
99767,96660
99751,96675
99842,96722
99897,96712
99865,96704
99829,96716
99857,96744
99934,96755
99928,96766
99921,96770
99912,96722
99928,96764
99987,96784
100053,96812
100012,96795
100000,96775
100034,96795
100082,96837
100135,96874
100102,96825
100057,96810
100089,96833
100140,96827
100176,96886
100157,96853
100093,96820
100128,96845
100205,96878
100218,96920
100219,96880
100193,96857
100221,96848
100292,96934
100290,96928
100270,96885
100256,96869
100279,96888
100288,96932
100339,96948
100316,96918
100248,96869
100325,96931
100359,96948
100362,96972
100311,96936
100312,96878
100304,96888
100379,96941
100374,96971
100337,96917
100322,96878
100343,96923
100409,96968
100367,96996
100363,96910
100343,96924
100367,96901
100433,96954
100416,96972
100411,96932
100393,96958
100431,96938
100495,97007
100457,97007
100499,96964
100426,96918
100465,97014
100530,97009
100529,97043
100475,96977
100493,97012
100500,96951
100560,97001
100546,96998
100551,97011
100489,96974
100523,96973
100595,97059
100570,97018
100577,97020
100532,97021
100550,97030
100608,97041
100639,97063
100605,97064
100570,96976
100600,97067
100654,97073
100668,97071
100659,97063
100604,97047
100676,97046
100691,97115
100709,97077
100703,97081
100668,97041
100739,97089
100738,97139
100744,97079
100753,97101
100711,97064
100785,97113
100799,97143
100809,97076
100806,97139
100773,97099
100841,97114
100853,97174
100866,97171
100850,97122
100854,97127
100887,97146
100938,97198
100962,97169
100930,97178
100912,97167
100942,97142
101041,97230
101011,97213
101038,97234
100944,97160
101055,97234
101024,97218
101018,97202
100978,97179
100861,97141
100833,97099
100776,97096
100604,96976
100424,96962
100276,96850
100179,96821
100062,96779
100005,96761
99833,96671
99716,96623
99705,96602
99622,96578
99550,96538
99469,96508
99355,96389
99335,96467
99302,96447
99223,96382
99224,96377
99100,96342
99129,96330
99118,96347
99088,96329
99047,96341
98966,96247
99053,96319
99013,96311
99026,96273
99020,96288
98953,96276
99018,96276
99069,96360
99029,96262
99045,96301
99002,96282
99026,96317
99125,96357
99073,96329
99120,96327
99069,96298
99134,96368
99175,96385
99191,96344
99196,96373
99110,96331
99204,96368
99262,96387
99238,96415
99235,96394
99202,96331
99260,96445
99299,96405
99286,96407
99242,96369
99273,96406
99268,96408
99346,96433
99281,96447
99259,96394
99295,96380
99360,96437
99352,96480
99332,96452
99345,96410
99338,96445
99441,96494
99417,96528
99448,96484
99435,96494
99400,96456
99493,96549
99507,96518
99463,96511
99427,96478
99421,96453
99478,96494
99468,96496
99422,96494
99415,96449
99367,96474
99451,96467
99441,96480
99406,96493
99404,96454
99317,96443
99377,96456
99406,96462
99328,96451
99297,96394
99248,96428
99328,96406
99337,96468
99286,96389
99249,96388
99273,96384
99285,96413
99298,96426
99303,96403
99245,96394
99227,96354
99280,96400
99328,96415
99244,96391
99298,96372
99225,96398
99305,96401
99307,96448
99325,96394
99331,96388
99287,96396
99355,96461
99355,96450
99384,96459
99379,96418
99345,96427
99438,96460
99451,96504
99441,96471
99408,96432
99444,96430
99503,96516
99492,96493
99502,96526
99467,96497
99452,96476
99566,96541
99563,96535
99602,96544
99530,96539
99569,96489
99644,96548
99628,96567
99640,96581
99600,96543
99633,96567
99686,96557
99710,96606
99697,96599
99709,96550
99670,96611
99761,96615
99811,96619
99761,96626
99763,96607
99790,96611
99837,96620
99842,96662
99857,96672
99793,96634
99835,96649
99852,96627
99930,96703
99885,96634
99864,96665
99856,96643
99940,96706
99894,96667
99933,96699
99879,96660
99927,96642
99979,96713
99987,96702
99945,96697
99920,96673
99955,96648
100014,96711
99969,96713
99996,96700
99997,96703
99999,96654
100031,96752
100035,96753
100064,96741
100006,96714
100040,96707
100080,96769
100079,96729
100056,96750
100051,96721
100089,96714
100103,96762
100066,96750
100103,96744
100065,96701
100049,96739
100087,96768
100127,96765
100071,96750
100050,96716
100085,96734
100149,96763
100115,96806
100111,96737
100121,96737
100145,96758
100209,96802
100184,96836
100181,96761
100160,96756
100173,96772
100249,96810
100256,96818
100186,96786
100193,96763
100188,96789
100292,96818
100250,96832
100236,96810
100182,96755
100223,96807
100275,96810
100281,96785
100257,96818
100229,96778
100248,96833
100315,96799
100320,96863
100293,96814
100277,96798
100282,96837
100370,96871
100351,96868
100326,96870
100322,96784
100355,96897
100389,96898
100431,96858
100397,96891
100338,96820
100431,96904
100448,96876
100453,96893
100433,96903
100421,96846
100454,96903
100541,96929
100513,96927
100506,96930
100491,96890
100534,96931
100526,96941
100548,96969
100505,96879
100488,96876
100443,96844
100405,96876
100311,96834
100140,96766
99992,96662
99886,96594
99806,96629
99653,96551
99566,96464
99443,96402
99366,96380
99335,96362
99203,96319
99120,96269
99009,96239
98992,96199
98964,96219
98855,96168
98828,96166
98688,96072
98745,96092
98742,96116
98668,96090
98641,96069
98571,96006
98579,96042
98589,96019
98577,96030
98547,96018
98467,95969
98562,95994
98551,96060
98517,95981
98541,96034
98455,95935
98551,96034
98561,96034
98523,96001
98582,96003
98468,96003
98530,96002
98598,96081
98596,96026
98554,96006
98576,96005
98584,96014
98626,96068
98618,96050
98600,96028
98630,96003
98618,96053
98657,96069
98671,96072
98646,96039
98582,96025
98633,96095
98650,96070
98661,96101
98637,96049
98583,96035
98669,96055
98693,96121
98652,96041
98671,96082
98626,96019
98666,96075
98713,96095
98710,96089
98677,96073
98669,96070
98707,96106
98752,96145
98759,96102
98722,96102
98701,96083
98741,96105
98779,96130
98735,96106
98680,96087
98652,96059
98706,96092
98723,96118
98686,96092
98646,96064
98624,96045
98684,96079
98655,96089
98643,96060
98637,96036
98548,96015
98641,96069
98666,96070
98591,96047
98575,96011
98540,95988
98591,96021
98644,96064
98562,96043
98582,96010
98556,96010
98590,96042
98616,96031
98591,96043
98547,96004
98553,95968
98608,96070
98642,96036
98580,96071
98569,96009
98563,96026
98656,96027
98683,96118
98663,96078
98623,96040
98653,96025
98676,96071
98710,96104
98731,96086
98648,96072
98664,96060
98748,96097
98764,96153
98785,96110
98784,96112
98748,96097
98787,96154
98818,96120
98825,96173
98789,96120
98826,96099
98864,96158
98919,96201
98866,96117
98879,96142
98838,96155
98931,96162
98955,96219
98987,96213
98921,96174
98979,96156
99049,96238
99078,96230
99051,96216
99003,96215
99013,96218
99099,96248
99130,96280
99085,96229
99088,96246
99043,96267
99135,96260
99199,96307
99122,96253
99143,96248
99108,96276
99155,96289
99212,96300
99160,96270
99159,96271
99147,96290
99230,96312
99202,96323
99230,96301
99145,96277
99168,96272
99258,96325
99252,96338
99221,96280
99217,96293
99183,96290
99269,96330
99259,96310
99269,96332
99188,96298
99211,96297
99295,96322
99280,96368
99297,96328
99212,96272
99266,96319
99313,96331
99308,96387
99319,96312
99313,96324
99287,96325
99336,96365
99369,96380
99321,96324
99324,96348
99321,96335
99401,96366
99368,96379
99385,96385
99306,96359
99379,96358
99401,96385
99380,96406
99409,96388
99336,96341
99365,96347
99442,96382
99427,96418
99411,96386
99315,96352
99407,96411
99432,96386
99483,96389
99450,96409
99402,96367
99476,96405
99466,96402
99543,96434
99451,96429
99447,96390
99505,96390
99560,96450
99552,96459
99536,96450
99497,96403
99567,96445
99576,96470
99566,96492
99551,96458
99518,96403
99566,96466
99609,96457
99615,96468
99576,96464
99576,96415
99578,96506
99647,96466
99652,96485
99621,96486
99610,96472
99635,96504
99684,96493
99712,96527
99696,96505
99642,96486
99742,96507
99755,96583
99754,96518
99728,96533
99727,96496
99775,96566
99815,96606
99798,96538
99787,96589
99740,96496
99855,96572
99873,96631
99843,96545
99841,96611
99848,96541
99899,96618
99899,96634
99923,96642
99919,96595
99851,96573
99875,96618
99927,96599
99906,96581
99804,96559
99727,96478
99672,96466
99646,96487
99494,96367
99362,96369
99215,96265
99116,96254
99062,96200
98964,96175
98812,96086
98694,96005
98652,96041
98596,96011
98475,95943
98441,95889
98344,95886
98292,95867
98295,95841
98254,95859
98137,95785
98067,95735
98082,95741
98073,95748
98059,95756
97995,95742
97928,95651
97940,95738
97966,95686
97960,95717
97926,95684
97831,95622
97884,95691
97923,95688
97909,95707
97878,95635
97815,95657
97918,95692
97912,95698
97905,95680
97890,95693
97849,95646
97880,95667
97960,95733
97889,95684
97909,95665
97871,95679
97918,95720
97934,95710
97941,95666
97922,95699
97863,95641
97949,95736
97956,95743
97914,95705
97890,95685
97898,95681
97918,95735
97936,95701
97929,95713
97908,95676
97858,95644
97943,95747
97935,95739
97933,95720
97927,95693
97870,95689
97944,95773
97968,95734
98032,95780
97961,95726
97989,95725
98032,95712
98077,95771
98027,95789
98016,95740
98005,95740
98044,95745
98078,95792
98049,95765
98020,95739
98017,95745
98038,95739
98037,95793
98070,95740
98024,95739
97960,95748
98017,95738
98061,95773
98034,95759
97985,95729
97953,95706
98020,95752
97985,95750
98024,95729
97942,95730
97946,95719
98005,95723
98002,95759
97982,95692
97941,95741
97951,95700
97996,95694
98019,95737
97961,95736
97984,95712
97930,95667
98043,95746
98031,95765
98003,95738
97998,95702
98017,95748
98047,95767
98120,95777
98088,95787
98095,95787
98055,95731
98166,95827
98137,95834
98122,95825
98139,95789
98149,95812
98163,95840
98211,95837
98173,95854
98198,95791
98209,95800
98240,95884
98258,95853
98302,95884
98254,95844
98298,95848
98325,95901
98368,95940
98335,95873
98356,95898
98328,95892
98414,95916
98454,95962
98441,95938
98409,95913
98388,95908
98488,95940
98503,95986
98470,95956
98468,95949
98435,95900
98506,95997
98508,95961
98480,95940
98493,95953
98486,95968
98543,95960
98569,96020
98532,95973
98500,95968
98534,95989
98580,96025
98646,96046
98573,95975
98581,95988
98567,95958
98612,96014
98653,96024
98595,95988
98607,96000
98597,96048
98633,96030
98689,96060
98671,96024
98613,96017
98630,96007
98691,96086
98711,96031
98696,96048
98651,96012
98696,96030
98687,96091
98752,96067
98739,96069
98668,96021
98737,96039
98740,96091
98776,96140
98758,96060
98693,96048
98737,96058
98780,96105
98764,96084
98748,96131
98727,96029
98750,96094
98811,96130
98790,96130
98774,96077
98747,96057
98772,96077
98836,96142
98845,96136
98844,96106
98767,96083
98860,96088
98874,96168
98880,96144
98853,96154
98830,96097
98869,96128
98929,96161
98911,96196
98889,96172
98895,96141
98951,96165
98996,96213
98957,96170
98985,96194
98925,96129
98969,96199
99010,96180
99058,96236
99021,96172
98987,96187
99053,96221
99066,96255
99085,96247
99078,96200
99056,96222
99075,96220
99143,96261
99089,96261
99097,96275
99077,96212
99108,96248
99152,96290
99141,96310
99147,96283
99131,96213
99204,96302
99219,96287
99259,96314
99228,96286
99193,96260
99267,96327
99292,96321
99328,96333
99305,96330
99305,96292
99297,96369
99375,96368
99372,96410
99385,96332
99367,96347
99396,96376
99417,96368
99382,96364
99351,96340
99267,96285
99195,96264
99175,96271
99031,96205
98900,96150
98763,96037
98706,96032
98659,96039
98496,95954
98405,95913
98263,95804
98256,95823
98205,95802
98099,95771
98039,95743
97899,95654
97937,95695
97906,95675
97830,95635
97740,95601
97691,95562
97687,95576
97702,95558
97607,95570
97573,95547
97543,95488
97556,95526
97568,95528
97517,95527
97498,95497
97478,95456
97514,95478
97525,95531
97524,95481
97506,95480
97438,95474
97490,95476
97519,95549
97537,95516
97501,95486
97468,95473
97500,95534
97526,95513
97531,95522
97519,95522
97507,95513
97563,95506
97552,95586
97524,95500
97519,95527
97492,95492
97545,95532
97573,95571
97537,95512
97513,95506
97521,95494
97565,95563
97537,95554
97542,95526
97557,95510
97483,95480
97550,95540
97600,95602
97553,95518
97562,95526
97528,95527
97588,95546
97671,95588
97615,95565
97609,95575
97583,95540
97650,95581
97673,95627
97665,95572
97644,95600
97606,95540
97670,95587
97678,95599
97652,95577
97636,95555
97591,95556
97653,95575
97675,95614
97619,95614
97613,95549
97597,95537
97609,95589
97615,95588
97634,95555
97610,95566
97556,95551
97607,95539
97616,95587
97558,95596
97539,95529
97564,95542
97548,95541
97579,95550
97598,95545
97518,95558
97513,95502
97593,95567
97575,95576
97557,95546
97541,95508
97512,95530
97599,95573
97622,95621
97586,95534
97583,95587
97544,95536
97581,95571
97662,95577
97618,95611
97614,95550
97624,95584
97679,95615
97698,95629
97707,95625
97656,95623
97654,95564
97715,95632
97723,95661
97732,95666
97723,95645
97734,95614
97757,95661
97824,95680
97793,95671
97794,95670
97794,95632
97883,95720
97890,95713
97885,95693
97868,95685
97917,95674
97982,95754
97980,95789
97990,95759
97979,95750
97976,95731
98019,95767
98081,95757
98020,95790
98010,95742
98052,95778
98079,95793
98094,95819
98116,95835
98096,95778
98065,95781
98156,95821
98171,95849
98174,95826
98148,95833
98130,95773
98227,95893
98243,95870
98191,95840
98201,95854
98237,95834
98260,95893
98277,95888
98281,95897
98270,95893
98263,95898
98303,95872
98335,95921
98306,95870
98296,95899
98305,95867
98347,95953
98350,95925
98369,95951
98296,95905
98321,95926
98368,95940
98381,95943
98408,95941
98375,95931
98356,95896
98413,95965
98430,95979
98451,95945
98399,95934
98420,95909
98451,95988
98468,95980
98445,95973
98449,95941
98417,95969
98492,95964
98506,96023
98495,96004
98452,95959
98473,95928
98543,96022
98508,96015
98533,95991
98477,95984
98533,95979
98586,96033
98588,96048
98598,96021
98553,96017
98568,96008
98652,96054
98615,96061
98641,96038
98588,96042
98642,96006
98690,96053
98683,96081
98664,96061
98628,96000
98679,96102
98706,96089
98716,96067
98746,96091
98682,96059
98753,96065
98772,96158
98796,96102
98819,96126
98729,96092
98777,96136
98850,96153
98819,96151
98832,96127
98809,96118
98858,96124
98868,96178
98903,96137
98863,96181
98831,96103
98897,96166
98945,96199
98921,96166
98908,96207
98872,96127
98958,96202
98973,96182
98975,96237
98953,96171
98952,96167
98958,96205
99016,96226
98999,96238
99034,96219
98994,96189
99052,96238
99079,96256
99097,96226
99075,96270
99074,96193
99088,96222
99171,96270
99115,96295
99113,96249
99071,96186
99046,96216
99029,96243
98909,96141
98840,96138
98653,96025
98579,95978
98509,95956
98401,95919
98252,95881
98114,95737
98076,95798
97996,95741
97918,95676
97789,95642
97718,95591
97671,95560
97632,95583
97561,95544
97509,95468
97425,95431
97378,95430
97384,95440
97309,95430
97257,95361
97158,95326
97180,95379
97181,95341
97170,95378
97098,95294
97048,95288
97066,95304
97116,95328
97038,95319
97036,95296
96977,95280
97065,95315
97067,95329
97004,95330
96993,95252
96922,95256
97009,95303
97000,95314
97034,95275
96984,95317
96922,95233
97034,95317
97028,95280
97010,95286
96987,95310
96942,95242
97022,95336
97023,95299
97022,95301
96981,95288
96972,95259
97042,95325
97025,95357
97025,95291
96999,95304
96924,95258
97047,95298
97049,95345
97002,95281
96998,95311
96981,95250
97011,95334
97096,95341
97013,95317
97089,95329
97043,95289
97069,95366
97134,95380
97134,95352
97076,95387
97067,95302
97127,95399
97176,95384
97118,95348
97132,95334
97044,95341
97156,95349
97140,95403
97106,95382
97081,95366
97054,95306
97116,95383
97106,95371
97132,95354
97053,95329
97040,95325
97114,95345
97099,95357
97082,95324
97046,95337
97025,95282
97040,95342
97090,95338
97038,95314
97017,95299
97047,95285
97044,95345
97069,95347
97060,95342
97036,95332
97007,95261
97040,95365
97081,95332
97075,95355
97035,95348
97019,95285
97068,95380
97095,95348
97110,95347
97112,95332
97051,95330
97156,95386
97180,95422
97145,95371
97140,95378
97152,95329
97205,95407
97239,95435
97234,95415
97195,95409
97200,95371
97221,95443
97267,95459
97280,95418
97248,95443
97238,95381
97328,95468
97344,95468
97295,95459
97315,95423
97325,95476
97364,95458
97406,95503
97389,95487
97381,95463
97339,95429
97438,95522
97472,95522
97437,95503
97407,95476
97415,95503
97446,95523
97500,95526
97466,95561
97475,95497
97484,95517
97539,95533
97579,95576
97521,95557
97546,95542
97558,95549
97602,95565
97600,95592
97591,95626
97585,95532
97614,95617
97654,95626
97636,95603
97642,95616
97602,95565
97641,95626
97717,95644
97683,95630
97680,95626
97651,95645
97700,95592
97712,95667
97753,95625
97721,95640
97681,95615
97714,95630
97740,95673
97759,95657
97757,95688
97689,95631
97748,95674
97772,95659
97811,95677
97748,95654
97763,95645
97756,95675
97813,95729
97822,95694
97792,95658
97796,95656
97773,95638
97860,95704
97858,95706
97859,95713
97820,95654
97853,95714
97896,95737
97910,95761
97887,95716
97845,95693
97898,95726
97968,95758
97981,95775
97963,95767
97896,95716
97944,95756
98008,95782
98022,95795
98003,95786
97985,95761
98015,95793
98062,95808
98085,95827
98091,95795
98051,95762
98098,95798
98123,95844
98110,95840
98083,95824
98086,95767
98078,95841
98152,95851
98171,95833
98136,95868
98090,95798
98167,95846
98204,95859
98188,95847
98162,95861
98158,95825
98214,95895
98248,95904
98271,95870
98271,95901
98204,95871
98294,95909
98299,95935
98298,95890
98345,95943
98287,95885
98321,95944
98355,95974
98363,95932
98379,95959
98337,95895
98356,95920
98424,95973
98399,95966
98377,95912
98389,95920
98398,95952
98452,95977
98437,95994
98391,95959
98407,95910
98407,96004
98443,96004
98467,95971
98458,96021
98419,95924
98502,96024
98527,96023
98546,96008
98518,95981
98499,95998
98543,95986
98593,96054
98562,96054
98595,96037
98560,95988
98595,96074
98628,96082
98654,96051
98651,96058
98592,96045
98641,96095
98696,96109
98705,96105
98675,96063
98674,96072
98696,96083
98743,96121
98753,96112
98673,96068
98624,96032
98589,96054
98525,96048
98468,95997
98322,95917
98175,95803
98095,95824
98047,95768
97921,95710
97810,95679
97626,95586
97649,95600
97554,95562
97447,95510
97372,95463
97270,95392
97244,95417
97192,95374
97121,95342
97058,95332
96980,95257
96966,95283
96916,95290
96852,95230
96838,95227
96732,95175
96763,95202
96748,95214
96682,95167
96660,95139
96601,95105
96664,95143
96634,95152
96607,95161
96618,95108
96513,95094
96605,95149
96583,95165
96571,95098
96602,95124
96503,95128
96574,95139
96565,95150
96548,95116
96542,95125
96526,95111
96565,95110
96614,95155
96550,95155
96556,95092
96567,95120
96584,95118
96629,95156
96575,95168
96564,95101
96571,95115
96603,95155
96619,95163
96582,95141
96510,95103
96540,95090
96567,95119
96616,95147
96549,95136
96569,95107
96586,95154
96610,95120
96653,95189
96638,95177
96585,95149
96583,95102
96641,95210
96698,95195
96671,95159
96665,95201
96626,95114
96658,95207
96700,95191
96697,95205
96623,95155
96654,95157
96702,95173
96703,95218
96688,95181
96652,95151
96645,95152
96689,95179
96695,95228
96671,95158
96642,95146
96672,95188
96663,95178
96713,95224
96699,95152
96680,95142
96613,95148
96699,95232
96659,95209
96673,95172
96634,95159
96639,95157
96682,95182
96732,95219
96648,95164
96650,95162
96638,95124
96704,95192
96751,95232
96664,95189
96695,95170
96707,95149
96712,95178
96777,95245
96754,95236
96692,95188
96727,95185
96776,95227
96818,95237
96810,95234
96792,95243
96767,95207
96829,95275
96859,95289
96829,95267
96843,95241
96839,95275
96936,95282
96911,95313
96933,95313
96872,95278
96933,95283
96974,95297
96984,95354
96987,95317
96970,95289
96970,95342
97047,95362
97046,95360
97050,95335
97043,95329
97021,95351
97111,95400
97119,95400
97118,95381
97127,95368
97075,95425
97168,95408
97168,95437
97160,95418
97144,95395
97174,95391
97199,95476
97233,95426
97222,95446
97195,95433
97197,95412
97246,95478
97293,95453
97273,95465
97247,95446
97270,95463
97304,95505
97309,95456
97315,95510
97299,95451
97329,95482
97335,95485
97388,95520
97359,95505
97335,95473
97359,95492
97403,95516
97415,95531
97391,95536
97330,95493
97417,95534
97468,95565
97418,95576
97468,95521
97386,95547
97418,95509
97483,95580
97506,95566
97449,95573
97435,95516
97472,95586
97512,95572
97560,95616
97523,95564
97496,95560
97538,95598
97552,95593
97579,95598
97557,95633
97530,95560
97510,95610
97609,95631
97604,95639
97616,95609
97529,95616
97591,95649
97643,95657
97610,95630
97612,95664
97567,95587
97674,95656
97700,95669
97705,95672
97710,95659
97662,95650
97741,95680
97750,95732
97762,95729
97788,95678
97741,95660
97764,95723
97816,95726
97860,95747
97817,95694
97776,95658
97807,95723
97891,95740
97861,95792
97868,95722
97826,95669
97890,95756
97938,95780
97890,95800
97907,95742
97892,95756
97897,95738
97944,95777
97972,95812
97985,95783
97925,95765
97971,95775
98043,95838
98012,95821
98054,95806
98005,95811
98048,95784
98106,95891
98079,95845
98109,95859
98045,95803
98133,95898
98172,95871
98150,95894
98139,95856
98123,95847
98158,95907
98234,95891
98216,95940
98206,95909
98167,95873
98232,95881
98295,95922
98235,95930
98271,95920
98197,95877
98246,95941
98301,95961
98267,95925
98322,95917
98262,95946
98298,95927
98319,95976
98317,95967
98360,95967
98294,95936
98389,95951
98394,96013
98393,95999
98388,95964
98336,95967
98425,96000
98432,96014
98473,96023
98465,95999
98429,95999
98476,96037
98500,96059
98461,96002
98449,96001
98329,95937
98340,95940
98310,95945
98141,95848
98080,95825
97875,95744
97855,95721
97755,95691
97608,95587
97514,95584
97336,95468
97359,95485
97290,95471
97192,95399
97077,95366
96938,95250
96945,95333
96915,95273
96827,95245
96723,95212
96661,95145
96661,95188
96671,95159
96567,95129
96504,95100
96474,95080
96474,95076
96478,95088
96437,95040
96369,95042
96331,95017
96363,95014
96396,95057
96330,95064
96311,94986
96273,94992
96290,94981
96358,95031
96337,95033
96276,95056
96245,94967
96301,95063
96354,95057
96325,95056
96288,95005
96288,95013
96303,95014
96382,95087
96334,95071
96359,95049
96313,95050
96347,95077
96416,95057
96371,95087
96338,95046
96336,95060
96366,95046
96405,95088
96361,95085
96380,95051
96348,95059
96385,95073
96415,95106
96389,95085
96419,95066
96384,95048
96416,95135
96475,95129
96484,95109
96423,95095
96453,95083
96518,95119
96550,95163
96528,95145
96519,95106
96472,95092
96563,95167
96582,95174
96560,95144
96524,95121
96511,95108
96563,95161
96603,95178
96570,95143
96520,95114
96541,95116
96578,95150
96556,95155
96543,95144
96512,95105
96517,95120
96557,95136
96550,95151
96543,95145
96504,95106
96474,95111
96538,95148
96546,95149
96520,95133
96481,95107
96480,95127
96527,95158
96556,95142
96508,95174
96474,95110
96482,95125
96567,95114
96569,95182
96535,95123
96507,95107
96513,95137
96574,95150
96602,95187
96581,95145
96548,95141
96522,95144
96597,95208
96624,95165
96633,95213
96603,95145
96589,95174
96632,95204
96651,95232
96691,95197
96603,95167
96653,95206
96712,95223
96729,95249
96720,95214
96675,95188
96711,95233
96773,95265
96791,95273
96794,95263
96754,95224
96801,95268
96848,95298
96880,95302
96850,95292
96845,95231
96860,95291
96915,95324
96917,95325
96920,95319
96856,95275
96917,95321
96973,95374
96965,95373
96980,95352
96909,95289
96964,95330
97030,95374
97044,95395
97026,95349
96995,95325
97043,95360
97077,95384
97075,95403
97084,95383
97050,95372
97097,95396
97092,95406
97145,95415
97146,95415
97094,95392
97141,95427
97157,95434
97160,95459
97169,95432
97106,95400
97176,95449
97227,95456
97172,95468
97184,95459
97145,95436
97212,95417
97290,95492
97230,95491
97242,95467
97215,95449
97231,95488
97315,95474
97287,95516
97284,95445
97241,95457
97288,95484
97312,95516
97336,95510
97319,95499
97312,95468
97343,95524
97344,95533
97397,95513
97329,95543
97325,95488
97403,95541
97401,95546
97436,95568
97412,95532
97419,95515
97457,95526
97467,95600
97497,95587
97474,95557
97429,95536
97485,95606
97514,95599
97552,95607
97509,95600
97498,95585
97551,95601
97646,95641
97579,95663
97606,95619
97507,95612
97611,95650
97684,95645
97647,95674
97647,95627
97586,95621
97631,95691
97698,95681
97687,95668
97682,95676
97671,95639
97687,95700
97754,95688
97726,95698
97768,95704
97686,95667
97816,95702
97799,95769
97802,95690
97800,95741
97802,95713
97849,95731
97935,95782
97870,95775
97906,95754
97852,95733
97917,95745
97986,95797
97907,95801
97946,95788
97872,95743
97949,95776
98024,95820
97989,95790
97949,95771
97932,95757
97994,95777
98024,95833
97977,95775
98000,95812
97946,95777
98021,95812
98040,95854
98002,95804
98033,95839
97998,95782
98041,95795
98110,95861
98053,95848
98055,95854
98047,95829
98075,95863
98119,95879
98103,95870
98108,95878
98071,95832
98169,95891
98203,95916
98176,95902
98148,95893
98176,95853
98242,95933
98292,95954
98282,95932
98262,95923
98255,95903
98303,95958
98351,95971
98326,95969
98303,95950
98207,95887
98243,95898
98155,95889
98043,95816
97910,95734
97782,95691
97729,95653
97659,95634
97517,95536
97380,95493
97248,95423
97194,95445
97143,95400
97051,95370
96951,95293
96845,95245
96818,95227
96792,95237
96693,95179
96635,95124
96564,95104
96550,95111
96506,95112
96480,95114
96395,95032
96310,95011
96348,95045
96341,95038
96263,94989
96232,94971
96189,94957
96234,95004
96240,95003
96171,94966
96150,94938
96135,94919
96183,94983
96193,94988
96143,94953
96117,94945
96106,94947
96168,94984
96206,94994
96140,94960
96168,94965
96134,94944
96170,94976
96214,94996
96175,94985
96176,94975
96168,94956
96218,94996
96228,94999
96226,95017
96206,94983
96173,94987
96227,95024
96257,95039
96240,95013
96184,94973
96215,94992
96255,95014
96277,95039
96250,95006
96260,94977
96245,95009
96284,95047
96342,95057
96324,95045
96294,95038
96329,95033
96352,95067
96383,95118
96374,95084
96379,95050
96350,95053
96415,95102
96449,95098
96435,95107
96346,95063
96395,95042
96410,95086
96434,95108
96424,95094
96372,95034
96380,95051
96436,95090
96424,95079
96392,95075
96392,95057
96366,95075
96428,95104
96415,95093
96393,95071
96366,95051
96393,95083
96400,95083
96418,95104
96421,95082
96335,95035
96367,95086
96401,95078
96406,95098
96409,95075
96357,95058
96374,95062
96436,95104
96459,95127
96428,95048
96421,95060
96418,95109
96452,95091
96482,95123
96444,95080
96455,95069
96487,95113
96526,95138
96543,95166
96529,95105
96495,95084
96514,95123
96601,95182
96625,95155
96581,95169
96557,95137
96615,95145
96656,95243
96636,95204
96632,95211
96602,95150
96692,95235
96726,95216
96728,95229
96728,95229
96725,95216
96739,95205
96811,95298
96795,95260
96811,95294
96767,95254
96829,95290
96871,95302
96866,95274
96899,95327
96852,95285
96883,95318
96913,95333
96977,95313
96934,95350
96904,95286
96982,95336
96979,95382
97000,95366
96982,95312
96978,95312
97014,95371
97022,95385
97043,95349
97004,95366
96991,95323
97037,95375
97072,95375
97096,95384
97069,95355
97028,95350
97077,95393
97121,95420
97094,95376
97126,95424
97088,95358
97126,95404
97195,95415
97177,95454
97178,95392
97151,95402
97197,95425
97216,95484
97198,95422
97191,95458
97156,95408
97251,95435
97281,95497
97230,95441
97236,95484
97187,95428
97270,95464
97295,95538
97265,95439
97251,95479
97240,95424
97272,95465
97341,95512
97316,95483
97282,95487
97266,95447
97339,95507
97346,95513
97355,95508
97339,95489
97318,95494
97369,95530
97421,95552
97420,95539
97391,95535
97367,95514
97443,95560
97500,95574
97482,95571
97458,95551
97441,95544
97513,95573
97565,95630
97563,95586
97518,95588
97496,95550
97563,95614
97600,95661
97623,95640
97591,95622
97566,95597
97617,95633
97655,95662
97649,95641
97658,95650
97606,95608
97677,95655
97713,95668
97701,95686
97744,95658
97697,95639
97771,95693
97767,95722
97797,95705
97776,95693
97746,95680
97803,95713
97851,95739
97836,95732
97812,95705
97789,95696
97857,95749
97925,95765
97906,95751
97861,95762
97847,95728
97923,95767
97956,95784
97937,95787
97930,95764
97907,95755
97957,95777
98011,95821
97982,95791
97996,95798
97969,95780
98034,95811
98072,95835
98041,95843
98082,95820
98047,95792
98086,95865
98138,95879
98132,95860
98119,95837
98135,95837
98187,95901
98207,95918
98184,95891
98201,95896
98190,95874
98268,95928
98229,95916
98226,95885
98114,95868
98070,95819
98027,95806
97942,95772
97824,95724
97664,95614
97519,95579
97509,95536
97363,95506
97301,95450
97116,95371
97036,95320
97015,95312
96971,95320
96856,95293
96771,95155
96657,95168
96655,95157
96608,95162
96529,95102
96465,95040
96429,95031
96387,95042
96380,95025
96324,95000
96247,94992
96189,94916
96242,95008
96226,94983
96214,94949
96105,94938
96102,94890
96171,94969
96160,94968
96155,94916
96085,94923
96064,94888
96140,94974
96153,94980
96122,94918
96056,94892
96096,94936
96120,94945
96148,94981
96181,94960
96146,94920
96130,94949
96211,94993
96211,95019
96188,94961
96174,94949
96166,94968
96250,94989
96270,95035
96242,94985
96216,94973
96216,94996
96267,95058
96268,95010
96293,95023
96246,94989
96262,95006
96319,95053
96313,95021
96344,95050
96321,95019
96291,95005
96390,95083
96417,95087
96346,95045
96378,95036
96393,95065
96470,95131
96441,95093
96441,95127
96420,95065
96398,95081
96435,95122
96469,95099
96423,95091
96402,95062
96463,95076
96443,95105
96461,95080
96427,95092
96419,95069
96405,95078
96479,95127
96449,95111
96441,95077
96402,95046
96381,95064
96457,95090
96422,95089
96425,95093
96372,95024
96396,95064
96415,95095
96423,95075
96404,95044
96348,95051
96346,95024
96407,95088
96395,95078
96371,95070
96329,95017
96377,95073
96392,95061
96396,95055
96409,95042
96347,95069
96352,95052
96410,95130
96413,95075
96404,95089
96384,95065
96439,95093
96480,95135
96491,95113
96505,95100
96409,95115
96488,95101
96506,95129
96536,95140
96512,95156
96476,95100
96540,95118
96559,95171
96559,95148
96584,95161
96555,95151
96578,95140
96656,95195
96659,95220
96630,95232
96592,95134
96677,95203
96706,95204
96713,95220
96737,95220
96699,95168
96757,95250
96800,95265
96765,95268
96781,95246
96776,95231
96796,95282
96858,95331
96844,95281
96833,95296
96831,95241
96848,95320
96952,95340
96900,95305
96885,95291
96906,95251
96929,95338
97002,95351
97001,95345
96958,95316
96967,95302
96968,95350
97017,95371
97068,95368
97053,95369
96970,95315
97052,95371
97103,95388
97076,95374
97065,95422
97045,95364
97098,95394
97133,95449
97084,95396
97140,95390
97095,95363
97141,95422
97194,95468
97157,95453
97183,95428
97101,95389
97203,95423
97235,95482
97188,95467
97227,95453
97142,95431
97235,95463
97226,95484
97222,95434
97212,95498
97186,95436
97265,95489
97334,95513
97294,95468
97288,95479
97248,95450
97337,95531
97350,95509
97350,95525
97296,95474
97330,95452
97339,95543
97363,95546
97373,95519
97395,95494
97351,95513
97399,95500
97426,95570
97412,95562
97426,95555
97386,95509
97435,95529
97467,95569
97444,95573
97451,95514
97423,95533
97488,95568
97550,95619
97511,95576
97533,95590
97496,95587
97576,95606
97593,95618
97592,95608
97557,95605
97581,95589
97615,95655
97652,95650
97632,95662
97664,95615
97633,95639
97670,95636
97722,95676
97711,95686
97697,95649
97696,95674
97752,95673
97770,95717
97741,95704
97770,95679
97728,95657
97813,95721
97818,95722
97811,95738
97805,95708
97779,95685
97874,95765
97902,95765
97855,95745
97871,95741
97814,95728
97909,95756
97924,95758
97934,95757
97891,95754
97887,95720
97934,95815
97986,95829
97960,95807
97955,95772
97960,95773
98045,95778
98080,95837
98056,95838
98030,95815
98043,95808
98093,95836
98078,95874
98110,95820
98081,95820
98029,95791
97995,95777
97951,95770
97862,95727
97696,95647
97617,95574
97538,95569
97437,95553
97272,95481
97152,95345
97046,95328
96960,95283
96940,95271
96796,95209
96695,95145
96572,95089
96599,95120
96559,95093
96420,95051
96340,95010
96275,94966
96290,95004
96263,94981
96168,94945
96088,94901
96037,94859
96078,94894
96035,94872
95969,94870
95910,94817
95865,94791
95909,94851
95887,94842
95861,94842
95819,94775
95801,94784
95840,94802
95824,94817
95814,94791
95811,94794
95764,94784
95851,94825
95829,94836
95855,94798
95774,94778
95806,94817
95883,94827
95854,94861
95862,94861
95859,94774
95866,94818
95899,94831
95918,94880
95913,94848
95890,94847
95876,94811
95965,94899
95950,94881
95954,94839
95897,94836
95900,94830
95967,94913
95955,94883
95934,94872
95912,94824
95928,94861
95979,94910
96011,94894
96025,94894
95948,94857
96008,94895
96057,94930
96074,94929
96094,94945
96013,94891
96081,94871
96087,94967
96134,94943
96136,94920
96081,94923
96080,94905
96144,94971
96125,94939
96133,94932
96071,94941
96093,94911
96164,94986
96145,94965
96141,94933
96104,94893
96143,94959
96161,94943
96143,94955
96103,94932
96087,94865
96102,94918
96158,94963
96123,94939
96113,94933
96034,94924
96069,94909
96137,94945
96101,94946
96070,94959
96030,94874
96124,94957
96135,94935
96153,94963
96132,94959
96048,94901
96142,94929
96159,94958
96191,94965
96154,94962
96106,94908
96200,94955
96206,94974
96240,95013
96231,94980
96166,94967
96213,95015
96294,95023
96266,95014
96280,95015
96231,94967
96319,95016
96324,95039
96315,95050
96337,95035
96320,95004
96364,95047
96401,95078
96411,95074
96389,95035
96401,95013
96396,95114
96495,95107
96475,95105
96507,95092
96438,95098
96497,95086
96542,95150
96555,95144
96527,95154
96495,95085
96582,95167
96651,95174
96617,95182
96646,95156
96562,95146
96672,95174
96689,95190
96719,95215
96692,95188
96683,95163
96748,95228
96774,95228
96757,95259
96774,95251
96716,95203
96833,95246
96849,95275
96852,95263
96826,95273
96813,95213
96860,95296
96894,95309
96887,95304
96896,95282
96884,95284
96906,95278
96935,95347
96965,95337
96921,95314
96907,95280
96970,95310
96994,95371
97014,95333
97002,95355
96937,95297
97043,95372
97067,95371
97045,95359
97034,95368
96999,95336
97087,95387
97134,95422
97093,95386
97094,95371
97103,95360
97131,95442
97180,95419
97204,95426
97176,95391
97158,95375
97179,95426
97262,95484
97252,95438
97193,95415
97198,95392
97229,95455
97297,95483
97298,95445
97261,95415
97251,95427
97287,95438
97314,95498
97333,95484
97265,95474
97276,95483
97377,95480
97388,95515
97351,95511
97337,95500
97304,95466
97409,95496
97436,95530
97393,95532
97432,95530
97394,95469
97457,95588
97477,95578
97509,95582
97481,95545
97450,95512
97547,95613
97571,95610
97570,95580
97569,95620
97523,95573
97616,95625
97644,95642
97615,95623
97610,95616
97604,95583
97692,95671
97732,95687
97704,95646
97717,95667
97721,95628
97726,95655
97768,95698
97774,95694
97762,95649
97742,95684
97818,95729
97860,95732
97816,95708
97819,95688
97756,95672
97872,95746
97909,95752
97848,95762
97897,95701
97862,95726
97903,95721
97959,95758
97971,95793
97914,95730
97966,95740
97973,95819
98031,95809
98048,95820
97988,95772
98059,95793
98093,95811
98121,95863
98124,95852
98063,95795
98087,95809
98170,95849
98186,95864
98165,95888
98153,95845
98153,95834
98228,95920
98226,95905
98220,95880
98162,95843
98191,95832
98181,95897
98164,95858
98055,95853
97927,95730
97823,95658
97743,95658
97650,95635
97509,95530
97339,95482
97214,95373
97192,95406
97094,95347
96986,95270
96842,95230
96752,95154
96730,95160
96677,95138
96549,95091
96488,95054
96434,95055
96425,95008
96384,95035
96312,94968
96214,94941
96176,94891
96188,94911
96149,94901
96023,94871
96012,94814
96001,94864
96012,94845
95978,94863
95940,94785
95919,94781
95857,94815
95924,94821
95898,94824
95858,94828
95837,94728
95870,94811
95904,94788
95891,94831
95827,94808
95832,94793
95880,94830
95912,94805
95900,94829
95875,94836
95837,94753
95914,94838
95915,94810
95925,94850
95917,94823
95875,94801
95886,94801
95915,94802
95950,94820
95887,94825
95888,94805
95864,94798
95915,94842
95950,94848
95917,94820
95883,94822
95870,94798
95932,94878
95934,94833
95945,94840
95886,94821
95962,94856
96022,94893
96007,94882
95993,94856
95952,94852
96051,94888
96036,94887
96066,94882
96070,94921
96038,94826
96042,94881
96101,94932
96031,94898
96042,94876
96009,94823
96038,94869
96039,94879
96061,94875
95995,94900
95958,94836
96015,94870
96051,94911
96013,94872
96012,94867
95968,94798
96021,94869
96028,94854
96020,94898
95994,94883
95907,94809
95999,94830
95994,94874
96012,94863
95960,94836
95943,94841
95991,94831
95981,94886
95987,94846
95990,94851
95921,94832
96021,94863
96041,94880
96046,94882
96004,94886
95977,94817
96034,94877
96069,94917
96103,94898
96054,94882
96076,94848
96067,94918
96142,94931
96125,94928
96118,94930
96104,94872
96172,94964
96202,94938
96194,94940
96173,94939
96181,94907
96239,94988
96283,94977
96254,94993
96246,94968
96243,94927
96296,95041
96373,95037
96331,95014
96336,95038
96345,94967
96347,95063
96442,95070
96410,95059
96441,95068
96406,95030
96467,95092
96532,95109
96478,95090
96519,95105
96487,95066
96545,95141
96624,95155
96577,95144
96599,95133
96573,95113
96647,95160
96681,95159
96676,95178
96684,95154
96656,95135
96703,95185
96739,95201
96725,95193
96739,95178
96724,95167
96785,95200
96779,95238
96796,95220
96762,95240
96731,95168
96809,95258
96862,95255
96784,95244
96803,95250
96739,95183
96857,95243
96872,95243
96829,95257
96850,95250
96803,95224
96898,95238
96896,95269
96883,95265
96892,95270
96832,95254
96932,95244
96929,95275
96929,95282
96867,95262
96907,95246
