11111,11111
0,0
82224,82313
115944,114861
115904,114844
115918,114811
115886,114832
115922,114818
115918,114822
115919,114843
115899,114828
115929,114875
115944,114815
116003,114875
115979,114839
115995,114816
115980,114828
116039,114866
116030,114895
116050,114845
116075,114874
116052,114862
116117,114872
116117,114903
116173,114871
116157,114910
116133,114889
116187,114892
116234,114927
116213,114911
116268,114898
116235,114955
116242,114929
116258,114913
116243,114886
116271,114896
116245,114898
116293,114920
116273,114910
116230,114863
116268,114899
116221,114859
116233,114917
116185,114880
116204,114862
116221,114870
116199,114849
116209,114893
116140,114880
116182,114854
116154,114847
116167,114860
116156,114853
116172,114872
116124,114835
116155,114823
116198,114862
116185,114872
116175,114889
116180,114838
116223,114868
116195,114905
116195,114879
116234,114896
116226,114879
116257,114876
116241,114890
116301,114890
116292,114939
116346,114895
116311,114937
116350,114943
116332,114952
116385,114942
116392,114932
116380,114946
116398,115001
116423,114985
116468,114977
116461,114994
116458,114963
116535,115014
116497,115028
116497,115002
116566,115033
116532,115032
116559,115016
116574,115057
116621,115023
116613,115070
116643,115038
116646,115100
116669,115065
116714,115099
116721,115058
116710,115089
116738,115117
116727,115140
116717,115086
116725,115110
116764,115111
116777,115158
116787,115103
116841,115169
116791,115140
116861,115142
116828,115182
116839,115125
116881,115186
116884,115126
116876,115180
116865,115163
116949,115186
116928,115166
116959,115190
116914,115202
116910,115223
116917,115203
116930,115201
116979,115158
116998,115214
116991,115183
116996,115185
117019,115244
117035,115182
116999,115216
117138,115255
115651,114601
115651,114578
115650,114603
115697,114643
115676,114637
115826,114679
115860,114727
115882,114679
115893,114756
115973,114769
116014,114815
115975,114804
115999,114787
115980,114749
116007,114788
115990,114748
116009,114753
115979,114778
115960,114735
116023,114783
115997,114752
115974,114755
115985,114755
116006,114749
115983,114771
116002,114796
115985,114758
116056,114807
116042,114763
116051,114801
116042,114766
116076,114773
116053,114805
116083,114800
116098,114792
116082,114815
116125,114793
116122,114850
116137,114822
116187,114833
116196,114865
116200,114825
116205,114886
116231,114861
116244,114899
116293,114868
116272,114896
116295,114885
116305,114916
116306,114908
116348,114888
116378,114918
116369,114914
116412,114951
116431,114939
116440,114981
116428,114949
116466,114960
116477,114967
116516,114975
116513,115014
116498,114981
116528,114999
116508,115002
116574,115020
116598,115031
116595,115034
116649,115046
116609,115041
116660,115026
116681,115072
116665,115076
116670,115082
116705,115077
116702,115103
116710,115059
116746,115092
116775,115113
116748,115112
116812,115105
116808,115154
116792,115114
116843,115121
116872,115154
116853,115126
116910,115175
116872,115191
116900,115166
116924,115191
116912,115214
116927,115179
116983,115222
116959,115158
117013,115230
117002,115237
117018,115249
117044,115257
117005,115225
117094,115267
117098,115267
117109,115291
117100,115250
117123,115308
117145,115304
117176,115282
117215,115312
117190,115322
117194,115290
117225,115348
117234,115383
117212,115316
117286,115350
117260,115330
117277,115370
117287,115376
117294,115358
117333,115408
117346,115343
117359,115392
117379,115419
117642,115593
117679,115564
117724,115596
117730,115626
117698,115588
117756,115591
117746,115578
117759,115603
117787,115638
117808,115622
117791,115651
117843,115616
117836,115663
117842,115652
117852,115658
117886,115633
117859,115649
117874,115645
117881,115694
117889,115718
117882,115662
117892,115658
117832,115687
117832,115647
117748,115608
117712,115574
117649,115572
117570,115538
117492,115495
117443,115461
117346,115424
117272,115371
117214,115387
117094,115338
117039,115267
116954,115260
116894,115200
116816,115195
116706,115135
116640,115139
116568,115047
116526,115095
116423,115026
116439,115051
116351,115004
116351,114976
116293,114991
116242,114943
116269,114997
116237,114951
116210,114923
116206,114907
116220,114971
116187,114937
116205,114952
116192,114911
116191,114917
116174,114945
116194,114931
116212,114929
116173,114972
116192,114929
116230,114982
116190,114948
116225,114930
116250,114973
116222,114942
116258,114986
116242,114980
116292,114979
116249,114954
116280,114996
116256,114997
116266,114969
116261,115002
116248,114982
116259,114955
116285,115029
116280,114971
116268,114972
116289,114983
116248,114978
116286,114988
116238,114974
116324,114982
116298,114981
116308,115002
116261,115004
116310,114999
116270,114985
116333,114999
116324,115012
116342,115018
116313,115007
116378,115049
116350,115004
116381,115046
116393,115029
116418,115066
116429,115025
116408,115078
116431,115029
116471,115109
116451,115049
116442,115090
116460,115081
116483,115094
116449,115063
116474,115086
116477,115087
116462,115045
116482,115071
116448,115108
116487,115102
116468,115084
116483,115083
116459,115091
116457,115109
116436,115123
116422,115049
116433,115094
116438,115108
116407,115079
116440,115065
116418,115115
116389,115039
116419,115088
116435,115106
116396,115069
116424,115091
116386,115040
116434,115070
116407,115089
116399,115066
116428,115105
116440,115064
116450,115109
116445,115096
116474,115126
116497,115105
116477,115121
116469,115140
116503,115109
116480,115165
116516,115119
116529,115154
116536,115129
116572,115184
116550,115149
116595,115171
116575,115172
116612,115195
116625,115182
116623,115217
116646,115166
116636,115207
116639,115233
116668,115252
116683,115200
116733,115246
116699,115219
116752,115263
116739,115286
116757,115250
116749,115287
116807,115279
116791,115313
116812,115282
116810,115317
116808,115300
116870,115298
116847,115311
116895,115315
116875,115346
116943,115320
116903,115345
116918,115365
116963,115390
116927,115369
116971,115341
116965,115368
116994,115377
116990,115394
117026,115404
117043,115375
117040,115424
117040,115401
117061,115424
117059,115446
117086,115393
117121,115449
117110,115427
117116,115470
117121,115470
117130,115462
117162,115482
117160,115443
117215,115496
117195,115477
117200,115498
117206,115461
117256,115516
117248,115517
117282,115502
117252,115534
117298,115536
117296,115532
117309,115551
117287,115532
117326,115535
117344,115534
117363,115567
117328,115551
117384,115553
117402,115604
117411,115564
117420,115608
117410,115618
117439,115591
117470,115605
117438,115593
117506,115606
117466,115650
117492,115635
117528,115636
117523,115619
117530,115681
117555,115636
117572,115647
117585,115658
117564,115661
117591,115665
117597,115675
117603,115665
117639,115653
117641,115661
117621,115687
117677,115695
117680,115701
117676,115693
117696,115701
117696,115702
117720,115689
117727,115733
117725,115707
117718,115718
117759,115720
117740,115729
117764,115718
117786,115728
117796,115738
117782,115753
117787,115768
117774,115737
117801,115725
117771,115722
117704,115707
117679,115664
117596,115641
117538,115607
117465,115566
117410,115548
117304,115490
117243,115460
117128,115431
117044,115375
116973,115342
116833,115295
116762,115233
116661,115171
116573,115159
116482,115123
116419,115083
116310,115005
116242,114973
116170,114949
116124,114944
116043,114920
116021,114900
115974,114848
115897,114867
115885,114838
115882,114813
115865,114790
115841,114814
115808,114782
115807,114818
115821,114788
115782,114775
115778,114793
115787,114770
115737,114789
115758,114809
115765,114848
115799,114746
115778,114784
115797,114809
115806,114804
115788,114806
115812,114758
115818,114815
115814,114822
115827,114831
115805,114807
115835,114825
115858,114800
115837,114837
115899,114858
115855,114846
115881,114795
115857,114870
115892,114863
115904,114856
115933,114857
115904,114882
115939,114890
115912,114898
115933,114897
115950,114879
115934,114913
115966,114918
115954,114920
115955,114902
115987,114903
115993,114900
115996,114913
115991,114927
116003,114950
116041,114930
116055,114959
116062,114955
116054,114961
116074,114957
116085,114988
116101,114967
116097,114975
116091,114968
116156,115000
116104,114970
116109,114941
116153,114987
116145,115034
116117,114970
116151,114972
116122,114981
116142,114994
116156,115036
116132,114996
116157,114991
116169,115017
116131,115004
116172,115006
116143,115028
116137,115037
116187,114993
116157,115017
116136,115038
116185,115040
116122,115046
116178,115036
116191,115026
116152,115084
116185,115027
116167,115054
116182,115055
116221,115062
116185,115037
116210,115088
116163,115090
116191,115097
116205,115067
116271,115110
116257,115114
116266,115104
116292,115090
116314,115156
116277,115084
116314,115148
116319,115143
116332,115103
116347,115150
116358,115175
116344,115149
116381,115144
116415,115167
116404,115199
116419,115198
116453,115205
116444,115218
116461,115181
116485,115211
116531,115215
116486,115237
116513,115230
116543,115264
116549,115247
116547,115243
116547,115286
116577,115268
116588,115318
116611,115310
116643,115278
116625,115308
116649,115300
116624,115341
116670,115312
116687,115343
116722,115334
116741,115368
116740,115341
116750,115381
116711,115341
116782,115394
116770,115379
116771,115395
116801,115398
116844,115374
116844,115434
116822,115393
116852,115426
116836,115404
116886,115449
116901,115419
116922,115441
116910,115426
116950,115464
116946,115452
116965,115477
116949,115442
116992,115517
116996,115472
116994,115507
117002,115510
117029,115503
117041,115519
117082,115510
117056,115513
117119,115571
117114,115561
117102,115511
117131,115558
117135,115569
117161,115551
117153,115567
117163,115573
117189,115580
117225,115614
117192,115577
117248,115585
117251,115611
117265,115627
117268,115616
117293,115647
117289,115653
117345,115629
117331,115680
117368,115652
117342,115663
117367,115680
117386,115688
117421,115661
117421,115715
117460,115695
117431,115713
117475,115695
117481,115736
117439,115705
117496,115743
117519,115728
117479,115774
117526,115745
117583,115791
117540,115747
117568,115768
117567,115751
117598,115791
117623,115834
117612,115776
117639,115802
117621,115781
117630,115805
117676,115826
117698,115812
117695,115819
117682,115811
117743,115872
117720,115849
117761,115894
117736,115860
117777,115865
117735,115875
117776,115882
117793,115894
117814,115878
117745,115844
117795,115875
117734,115895
117717,115840
117651,115814
117641,115804
117537,115770
117493,115749
117405,115709
117354,115672
117262,115653
117161,115620
117119,115584
117008,115545
116901,115505
116846,115467
116744,115414
116664,115371
116589,115384
116466,115296
116397,115305
116319,115236
116280,115223
116208,115205
116146,115221
116115,115148
116071,115147
115995,115115
115985,115124
115986,115089
115925,115111
115930,115081
115900,115128
115902,115087
115884,115074
115916,115085
115892,115067
115915,115108
115906,115092
115935,115093
115912,115094
115916,115140
115905,115101
115938,115125
115911,115118
115942,115133
115962,115135
115961,115112
115953,115124
115962,115084
115977,115146
115976,115123
116008,115152
115982,115158
115996,115113
115973,115174
115983,115127
115978,115150
115994,115134
116010,115160
116023,115139
115982,115166
116042,115162
116024,115184
116020,115150
116047,115146
116071,115185
116006,115144
116059,115168
116069,115148
116044,115192
116092,115200
116077,115166
116147,115194
116098,115216
116111,115232
116137,115237
116181,115252
116167,115250
116167,115203
116221,115271
116200,115284
116231,115261
116253,115257
116232,115270
116284,115278
116255,115311
116267,115274
116310,115266
116261,115273
116285,115302
116311,115295
116254,115311
116249,115273
116262,115248
116264,115302
116282,115259
116270,115278
116261,115280
116228,115277
116259,115303
116246,115278
116196,115248
116274,115245
116171,115274
116195,115298
116204,115259
116205,115243
116237,115250
116197,115282
116223,115257
116227,115250
116255,115296
116244,115268
116249,115255
116270,115283
116286,115326
116291,115308
116273,115313
116293,115297
116338,115326
116316,115332
116360,115314
116362,115306
116389,115309
116411,115391
116431,115348
116439,115419
116432,115341
116469,115390
116491,115406
116479,115401
116514,115413
116504,115404
116574,115425
116568,115451
116569,115451
116639,115433
116588,115466
116624,115426
116677,115477
116654,115473
116677,115511
116656,115459
116742,115489
116710,115557
116702,115484
116752,115497
116762,115489
116800,115525
116795,115569
116796,115534
116808,115569
116830,115520
116862,115541
116875,115582
116864,115595
116900,115576
116898,115601
116927,115598
116912,115606
116957,115595
116927,115620
116971,115587
116956,115599
116980,115635
117009,115652
116980,115655
117012,115590
117040,115659
117019,115651
117042,115647
117077,115671
117091,115641
117099,115701
117086,115675
117136,115706
117113,115680
117142,115683
117170,115735
117155,115717
117174,115710
117202,115689
117188,115674
117237,115738
117185,115747
117228,115751
117255,115742
117264,115761
117289,115748
117294,115766
117286,115781
117291,115779
117328,115749
117358,115800
117354,115816
117378,115788
117397,115808
117385,115793
117401,115804
117398,115842
117426,115815
117416,115826
117454,115820
117441,115850
117495,115875
117503,115852
117503,115847
117516,115845
117520,115884
117541,115903
117516,115887
117553,115884
117558,115884
117564,115893
117595,115894
117598,115900
117584,115882
117646,115887
117605,115892
117643,115946
117642,115950
117688,115921
117680,115935
117687,115941
117672,115938
117715,115921
117685,115967
117675,115929
117680,115939
117619,115901
117636,115912
117537,115911
117484,115839
117434,115849
117361,115796
117281,115783
117225,115754
117143,115705
117016,115661
116944,115600
116845,115599
116786,115545
116667,115492
116582,115488
116456,115422
116409,115362
116319,115324
116242,115311
116191,115271
116113,115285
116049,115192
116001,115199
115974,115177
115891,115153
115885,115154
115819,115144
115835,115145
115800,115122
115757,115080
115785,115105
115754,115037
115743,115080
115748,115089
115722,115075
115770,115105
115744,115051
115753,115059
115778,115074
115752,115100
115773,115127
115780,115083
115803,115095
115798,115108
115837,115117
115816,115159
115820,115109
115842,115141
115837,115124
115874,115154
115845,115143
115888,115143
115890,115140
115885,115154
115879,115185
115859,115161
115901,115193
115893,115175
115885,115155
115956,115189
115899,115207
115942,115189
115955,115191
115907,115182
115961,115189
115965,115207
115986,115190
115996,115171
115973,115207
115966,115179
116025,115210
115997,115227
116040,115216
116050,115235
116070,115203
116095,115236
116048,115208
116113,115242
116097,115269
116123,115251
116107,115256
116103,115242
116111,115253
116129,115226
116099,115264
116097,115209
116091,115262
116082,115239
116089,115274
116075,115233
116080,115197
116040,115257
116017,115239
116077,115264
116021,115216
116044,115223
116016,115234
115999,115225
116035,115205
116021,115254
115995,115210
116034,115235
115996,115209
116011,115226
116005,115210
116031,115223
116016,115202
116050,115226
116063,115234
116071,115208
116095,115230
116058,115258
116122,115268
116082,115301
116110,115253
116150,115271
116138,115239
116187,115280
116154,115300
116203,115282
116236,115317
116210,115284
116272,115314
116230,115320
116297,115351
116282,115381
116321,115334
116332,115368
116303,115388
116332,115339
116399,115402
116354,115372
116395,115400
116449,115407
116395,115382
116476,115408
116433,115422
116477,115405
116513,115441
116488,115415
116495,115434
116520,115478
116495,115449
116584,115460
116580,115465
116562,115465
116590,115512
116561,115476
116652,115508
116582,115513
116623,115510
116660,115521
116631,115511
116649,115500
116682,115559
116680,115507
116726,115508
116735,115548
116754,115552
116744,115545
116780,115590
116772,115553
116798,115583
116795,115604
116818,115615
116807,115599
116848,115587
116873,115599
116854,115653
116895,115649
116891,115637
116927,115655
116910,115638
116987,115651
116982,115654
116970,115674
117005,115706
117005,115648
117053,115734
117035,115687
117055,115682
117092,115711
117064,115716
117131,115738
117114,115736
117140,115725
117132,115776
117157,115770
117208,115762
117217,115763
117238,115808
117227,115751
117265,115801
117244,115811
117235,115781
117301,115820
117283,115821
117303,115820
117324,115853
117329,115832
117339,115858
117353,115838
117353,115861
117365,115879
117369,115872
117406,115870
117430,115879
117405,115888
117400,115915
117427,115870
117448,115880
117494,115911
117504,115924
117484,115930
117531,115905
117541,115969
117554,115957
117528,115955
117528,115932
117554,115918
117576,115973
117575,115925
117557,115940
117538,115935
117489,115902
117488,115923
117422,115840
117363,115855
117269,115803
117198,115792
117144,115773
117036,115715
116940,115660
116856,115642
116723,115609
116634,115557
116516,115484
116410,115425
116311,115438
116204,115344
116108,115285
116002,115278
115890,115195
115869,115219
115751,115148
115687,115133
115657,115083
115591,115100
115553,115058
115509,115074
115457,115017
115466,115049
115394,115058
115402,115011
115420,115012
115361,115028
115391,115024
115385,115029
115403,115025
115374,115045
115423,115035
115370,114986
115412,115015
115397,115038
115440,115040
115399,115042
115403,115025
115463,115033
115413,115057
115453,115053
115450,115050
115453,115059
115443,115054
115512,115072
115446,115063
115492,115077
115512,115061
115527,115096
115512,115094
115499,115064
115558,115101
115529,115079
115520,115099
115559,115131
115570,115088
115547,115140
115554,115084
115564,115135
115602,115099
115611,115135
115570,115117
115604,115113
115594,115149
115595,115116
115626,115139
115638,115160
115640,115138
115685,115158
115670,115135
115708,115187
115708,115184
115745,115194
115718,115181
115778,115214
115727,115212
115775,115213
115770,115217
115769,115221
115810,115231
115836,115249
115818,115197
115800,115221
115830,115245
115801,115216
115830,115247
115810,115248
115786,115221
115788,115219
115770,115164
115788,115215
115782,115182
115796,115222
115759,115240
115773,115219
115734,115185
115790,115207
115750,115251
115725,115195
115763,115250
115757,115218
115764,115202
115755,115242
115748,115215
115765,115209
115771,115216
115776,115222
115772,115250
115829,115227
115836,115262
115794,115232
115827,115250
115852,115260
115846,115274
115861,115267
115888,115269
115895,115313
115927,115264
115926,115339
115953,115311
115923,115301
115983,115333
115989,115331
115996,115317
116047,115336
116061,115365
116082,115384
116096,115362
116069,115390
116124,115413
116122,115383
116153,115405
116187,115430
116147,115452
116203,115411
116210,115451
116235,115399
116258,115461
116245,115457
116274,115447
116308,115466
116295,115465
116318,115485
116344,115514
116350,115505
116385,115522
116374,115501
116415,115524
116411,115538
116443,115550
116454,115531
116473,115574
116478,115572
116495,115561
116514,115553
116496,115567
116546,115583
116563,115557
116586,115595
116594,115599
116580,115610
116617,115626
116624,115648
116645,115626
116668,115652
116668,115649
116688,115637
116734,115662
116685,115648
116758,115663
116769,115676
116805,115665
116813,115678
116844,115685
116832,115710
116845,115706
116901,115692
116910,115726
116897,115708
116912,115727
116960,115717
116941,115712
116981,115719
116963,115736
116991,115730
116966,115723
117007,115744
117011,115749
117045,115716
117009,115754
117087,115776
117091,115777
117105,115787
117078,115762
117145,115810
117152,115792
117156,115815
117137,115814
117191,115820
117184,115811
117196,115847
117222,115868
117245,115847
117257,115843
117243,115867
117292,115854
117278,115908
117285,115880
117297,115907
117305,115921
117322,115902
117321,115936
117357,115907
117363,115956
117391,115963
117377,115941
117371,115920
117424,115932
117404,115977
117432,115942
117461,115970
117452,115949
117475,115972
117453,115992
117499,116001
117493,115974
117496,115998
117539,115998
117488,116026
117492,115997
117543,115975
117529,116046
117565,116021
117543,116022
117546,116018
117502,116030
117537,115986
117477,115996
117453,115930
117403,115946
117354,115913
117286,115865
117225,115845
117129,115780
117023,115750
116944,115713
116793,115645
116722,115607
116551,115589
116467,115508
116361,115458
116231,115430
116089,115398
116006,115332
115855,115240
115801,115242
115660,115167
115607,115148
115500,115120
115391,115110
115359,115021
115266,115053
115241,115016
115206,114992
115141,114986
115145,114947
115110,114989
115083,114923
115091,114973
115090,114962
115100,114968
115066,114975
115097,114956
115103,114977
115125,114986
115100,114970
115154,114983
115170,114968
115158,115010
115189,115011
115202,114999
115224,115032
115242,115017
115202,115054
115229,115021
115280,115072
115294,115065
115270,115061
115283,115092
115295,115039
115354,115100
115314,115066
115351,115086
115333,115088
115354,115130
115358,115093
115389,115119
115368,115106
115402,115113
115408,115123
115376,115094
115441,115128
115405,115117
115424,115114
115410,115140
115434,115111
115459,115150
115467,115167
115482,115112
115475,115153
115511,115168
115521,115159
115523,115178
115558,115130
115564,115201
115554,115163
115568,115193
115608,115194
115589,115186
115610,115207
115616,115163
115608,115206
115605,115192
115623,115207
115610,115186
115651,115217
115600,115195
115619,115184
115594,115197
115567,115182
115604,115193
115578,115188
115559,115218
115580,115180
115554,115174
115548,115141
115575,115191
115548,115195
115556,115163
115561,115201
115564,115203
115586,115192
115556,115222
115566,115188
115569,115216
115567,115201
115569,115205
115624,115222
115607,115233
115652,115288
115634,115220
115654,115269
115670,115275
115708,115277
115703,115279
115707,115277
115776,115328
115761,115342
115793,115342
115797,115344
115815,115344
115837,115344
115900,115404
116114,115621
116392,115759
116404,115783
116401,115780
116396,115795
116436,115801
116463,115795
116477,115801
116484,115804
116499,115824
116538,115822
116507,115816
116528,115823
116537,115835
116583,115838
116550,115850
116582,115851
116583,115859
116621,115875
116620,115875
116655,115913
116654,115868
116681,115910
116660,115914
116640,115909
116695,115904
116710,115869
116713,115931
116698,115889
116761,115918
116736,115985
116755,115937
116783,115937
116790,115970
116775,115969
116797,115919
116795,115947
116834,115955
116851,115960
116840,115960
116834,116003
116836,115982
116884,115961
116876,116000
116903,115970
116922,115984
116946,116036
116888,116008
116971,116031
116958,116018
116962,116034
116988,116004
117031,116031
117011,116012
117065,116052
117036,116062
117056,116055
117096,116060
117076,116051
117102,116069
117098,116072
117057,116071
117070,116023
117022,116044
117011,116032
116928,116006
116899,115968
116816,115934
116771,115920
116611,115884
116555,115820
116482,115798
116321,115723
116263,115721
116135,115681
116042,115569
115913,115538
115812,115538
115677,115478
115608,115409
115530,115428
115432,115360
115347,115306
115279,115319
115190,115260
115133,115251
115105,115225
115063,115188
115021,115192
114997,115165
114955,115145
114939,115176
114919,115149
114942,115146
114893,115143
114921,115114
114950,115177
114901,115133
114928,115171
114918,115156
114910,115140
114917,115181
114950,115129
114950,115159
114972,115176
114963,115125
114963,115155
114969,115174
114994,115137
114954,115184
114972,115177
114957,115137
115014,115204
114967,115132
115001,115178
115022,115161
115018,115187
114993,115190
115023,115168
114972,115150
115062,115203
115001,115197
115055,115167
115025,115190
115029,115201
115073,115178
115077,115214
115043,115198
115076,115170
115059,115189
115101,115194
115117,115184
115137,115216
115165,115210
115133,115197
115157,115255
115178,115210
115233,115261
115229,115207
115234,115218
115280,115281
115262,115250
115307,115246
115331,115275
115294,115315
115338,115291
115321,115297
115348,115285
115367,115293
115314,115297
115352,115241
115346,115291
115302,115262
115304,115267
115290,115235
115285,115287
115279,115226
115256,115246
115255,115241
115246,115238
115247,115249
115217,115251
115227,115208
115212,115224
115170,115238
115180,115241
115169,115206
115195,115244
115146,115209
115177,115210
115162,115231
115146,115228
115149,115201
115211,115221
115189,115246
115198,115203
115201,115237
115183,115250
115167,115211
115195,115201
115216,115250
115196,115242
115193,115244
115227,115283
115225,115203
115266,115274
115221,115227
115282,115245
115298,115269
115276,115262
115290,115254
115296,115259
115333,115307
115316,115311
115335,115288
115345,115295
115318,115290
115372,115297
115327,115277
115365,115319
115375,115282
115412,115274
115360,115321
115383,115278
115402,115321
115393,115312
115397,115294
115413,115278
115455,115316
115424,115322
115439,115307
115468,115321
115454,115297
115464,115327
115482,115302
115447,115331
115505,115327
115502,115339
115481,115322
115539,115339
115502,115333
115515,115315
115538,115376
115539,115355
115556,115363
115542,115360
115572,115331
115585,115383
115598,115340
115634,115390
115619,115383
115668,115365
115640,115410
115666,115375
115720,115431
115732,115425
115705,115407
115703,115401
115765,115399
115759,115452
115762,115428
115803,115445
115825,115424
115851,115470
115871,115435
115860,115476
115890,115469
115892,115468
115917,115494
115946,115507
115942,115530
115955,115505
115998,115538
115983,115531
116049,115532
116067,115566
116052,115571
116100,115568
116111,115593
116157,115587
116178,115618
116172,115586
116175,115643
116198,115602
116252,115641
116267,115653
116292,115651
116279,115674
116281,115663
116349,115680
116331,115669
116394,115701
116355,115712
116349,115705
116385,115699
116407,115689
116419,115716
116373,115657
116349,115671
116286,115667
116209,115586
116173,115572
116060,115546
115984,115497
115911,115465
115764,115425
115661,115341
115556,115342
115421,115238
115329,115220
115174,115181
115087,115123
114943,115053
114861,115007
114769,114980
114662,114945
114569,114917
114505,114891
114376,114847
114377,114804
114302,114808
114254,114787
114210,114769
114186,114717
114164,114771
114144,114703
114142,114718
114147,114701
114137,114716
114101,114731
114140,114706
114122,114728
114092,114711
114126,114707
114142,114736
114143,114710
114118,114690
114175,114737
114175,114731
114129,114707
114154,114711
114182,114727
114199,114741
114164,114728
114202,114729
114184,114735
114209,114712
114155,114706
114211,114720
114185,114758
114179,114722
114187,114725
114208,114710
114229,114754
114166,114712
114205,114710
114203,114739
114183,114720
114194,114736
114223,114721
114202,114722
114236,114753
114235,114748
114240,114742
114257,114718
114282,114757
114243,114795
114317,114754
114331,114775
114373,114787
114355,114773
114416,114817
114417,114844
114429,114797
114486,114834
114493,114815
114513,114869
114509,114858
114605,114897
114547,114874
114573,114904
114595,114925
114587,114884
114624,114884
114639,114960
114657,114946
114675,114964
114646,114939
114683,114933
114679,114959
114683,114962
114646,114900
114667,114939
114686,114951
114631,114946
114659,114918
114720,114955
114636,114959
114642,114963
114676,114943
114654,114961
114709,114941
114681,114971
114717,114936
114735,114997
114706,114986
114769,115032
114741,115006
114755,114974
114813,115039
114783,115014
114816,115053
114861,115012
114869,115034
114845,115077
114889,115034
114933,115086
114949,115079
114944,115118
115000,115084
115005,115129
114985,115097
115049,115123
115104,115123
115084,115137
115140,115170
115112,115193
115171,115185
115181,115185
115187,115208
115234,115244
115263,115233
115242,115217
115279,115254
115301,115280
115356,115291
115356,115275
115371,115279
115413,115325
115451,115322
115440,115321
115488,115336
115507,115342
115515,115351
115551,115359
115568,115357
115603,115411
115610,115381
115603,115394
115656,115454
115680,115427
115646,115428
115708,115444
115724,115425
115732,115448
115693,115476
115761,115447
115758,115457
115760,115497
115808,115492
115795,115474
115848,115515
115858,115534
115836,115528
115819,115539
115855,115523
115910,115528
115897,115572
115849,115528
115925,115542
115907,115544
115941,115548
115907,115549
115925,115511
115931,115579
115943,115530
115953,115541
115937,115552
115867,115486
115930,115536
115842,115468
115773,115417
115698,115384
115578,115250
115467,115180
115244,114963
115004,114728
114675,114427
114385,114095
114086,113753
113793,113403
113439,113024
113073,112671
112841,112392
112699,112249
112537,112121
112436,111987
112416,111963
112352,111951
112309,111897
115773,115417
112721,112621
112646,112677
112625,112660
112629,112713
112601,112754
112610,112789
112573,112901
112659,112952
112651,113034
112692,113136
112780,113251
112887,113417
112934,113555
113044,113639
113108,113769
113156,113811
113258,113891
113320,113937
113341,114004
113406,114030
113479,114054
113562,114148
113622,114125
113704,114188
113768,114228
113824,114249
113945,114296
113990,114351
114080,114365
114141,114419
114241,114410
114287,114448
114348,114463
114457,114517
114509,114532
114580,114554
114663,114581
114769,114624
114776,114682
114852,114634
114955,114718
114964,114735
115047,114753
115111,114763
115139,114781
115147,114747
115240,114793
115276,114810
115277,114828
115289,114792
115368,114869
115328,114798
115356,114830
115402,114802
115431,114830
115408,114823
115456,114831
115444,114862
115455,114826
115441,114822
115457,114804
115397,114810
115373,114804
115396,114762
115365,114759
115319,114716
115313,114702
115311,114682
115237,114755
115231,114697
115246,114768
115216,114756
115174,114752
115182,114830
115135,114794
115156,114808
115081,114810
115056,114828
115034,114800
114990,114842
114941,114785
114911,114827
114864,114790
114841,114801
114814,114826
114747,114795
114746,114795
114713,114792
114690,114826
114650,114804
114690,114781
114695,114830
114665,114850
114721,114798
114684,114846
114734,114852
114741,114837
114778,114887
114757,114891
114826,114919
114848,114957
114883,114974
114963,114976
114948,114980
115036,115009
115033,115056
115094,115076
115133,115069
115193,115120
115256,115104
115272,115128
115365,115180
115395,115197
115404,115188
115490,115214
115540,115243
115570,115278
115577,115288
115678,115328
115670,115332
115731,115374
115756,115339
115858,115380
115869,115428
115926,115433
115923,115447
115998,115457
116086,115484
116079,115473
116184,115521
116222,115553
116259,115560
116280,115590
116358,115610
116358,115622
116463,115635
116444,115677
116517,115734
116550,115712
116576,115760
116572,115720
116668,115757
116655,115767
116637,115787
116712,115799
116730,115793
116732,115835
116719,115787
116754,115820
116783,115811
116760,115841
116745,115803
116777,115787
116770,115836
116739,115804
116774,115850
116781,115846
116748,115793
116737,115843
116720,115801
116752,115810
116767,115819
116743,115802
116754,115845
116716,115773
116738,115797
116733,115808
116712,115760
116718,115796
116736,115769
116722,115795
116743,115791
116733,115793
116735,115775
116713,115759
116691,115790
116702,115768
116766,115787
116759,115788
116719,115781
116755,115801
116734,115771
116766,115801
116749,115782
116745,115769
116709,115766
116711,115765
116671,115778
116642,115686
116632,115697
116544,115665
116480,115639
116393,115634
116320,115543
116264,115512
116105,115498
116023,115452
115955,115391
115831,115325
115751,115334
115628,115227
115544,115244
115436,115202
115352,115187
115283,115131
115182,115094
115143,115044
115107,115076
115001,115021
115007,115012
114922,115000
114946,114992
114891,114980
114923,115015
114886,114981
114856,115027
114890,114996
114872,115033
114872,115019
114914,115041
114919,115034
114958,115073
114967,115079
114955,115118
114957,115085
114999,115150
115027,115149
114995,115132
115024,115166
115022,115145
115043,115202
115018,115158
115050,115190
115067,115162
115044,115191
115047,115171
115080,115175
115038,115222
115048,115193
115033,115196
115078,115226
115041,115220
115068,115192
115070,115212
115038,115206
115068,115179
115035,115209
115042,115195
115071,115182
115079,115194
115049,115157
115080,115188
115050,115215
115044,115184
115134,115182
115096,115208
115116,115173
115145,115193
115137,115232
115163,115248
115158,115252
115193,115207
115225,115269
115199,115258
115194,115244
115216,115231
115221,115244
115183,115208
115158,115204
115191,115225
115191,115232
115152,115207
115162,115160
115123,115226
115138,115178
115102,115171
115117,115147
115052,115163
115047,115143
115048,115144
115050,115132
115004,115108
114979,115090
114979,115115
114996,115082
114933,115063
114951,115062
114881,115092
114918,115031
114966,115060
114908,115074
114933,115040
114941,115080
114934,115061
114964,115036
114963,115079
114947,115076
114983,115088
114984,115080
114990,115081
115041,115096
115012,115115
115093,115085
115072,115144
115086,115106
115138,115143
115165,115146
115144,115138
115223,115158
115208,115174
115219,115209
115265,115179
115320,115204
115318,115204
115325,115207
115381,115212
115426,115226
115405,115228
115477,115221
115484,115297
115546,115246
115559,115295
115570,115262
115621,115281
115617,115283
115678,115300
115702,115325
115716,115337
115784,115334
115763,115353
115800,115353
115815,115354
115856,115395
115902,115397
115864,115378
115905,115419
115948,115420
115968,115425
115974,115440
115997,115448
116038,115450
116030,115480
116047,115470
116112,115483
116130,115479
116118,115484
116143,115477
116187,115500
116160,115533
116233,115545
116231,115556
116224,115547
116236,115523
116275,115577
116263,115557
116299,115549
116343,115617
116356,115571
116377,115563
116337,115592
116404,115598
116394,115613
116447,115608
116415,115610
116465,115593
116467,115635
116461,115636
116513,115636
116519,115641
116518,115608
116554,115647
116568,115660
116569,115652
116633,115668
116579,115654
116620,115702
116626,115690
116697,115722
116649,115690
116694,115690
116696,115707
116716,115726
116719,115695
116761,115718
116769,115722
116769,115726
116812,115730
116773,115750
116721,115684
116773,115711
116729,115702
116677,115686
116593,115627
116553,115620
116468,115571
116395,115552
116300,115514
116243,115447
116142,115438
116005,115389
115893,115358
115799,115306
115640,115222
115565,115202
115408,115124
115344,115116
115264,115057
115130,115052
115058,115005
114962,114957
114932,114945
114838,114908
114828,114873
114761,114885
114677,114833
114669,114823
114705,114851
114605,114827
114650,114805
114638,114845
114618,114822
114648,114809
114652,114845
114630,114820
114673,114818
114660,114861
114658,114847
114703,114839
114699,114855
114707,114834
114750,114851
114725,114879
114722,114866
114764,114865
114773,114871
114768,114870
114726,114855
114791,114897
114744,114852
114827,114856
114798,114906
114818,114862
114791,114861
114815,114892
114828,114910
114787,114889
114816,114857
114836,114878
114837,114883
114850,114909
114809,114904
114858,114867
114843,114918
114870,114878
114873,114906
114891,114939
114850,114887
114932,114935
114906,114954
114920,114908
115002,114946
114977,114961
114997,114963
115012,114948
115059,115003
115090,114999
115069,115039
115112,115018
115099,115019
115158,115047
115154,115034
115151,115052
115197,115055
115183,115027
115217,115091
115205,115078
115237,115047
115209,115046
115226,115057
115203,115037
115277,115084
115203,115054
115225,115048
115230,115022
115176,115044
115177,115058
115169,115053
115146,115009
115177,115009
115145,115023
115141,115038
115149,115004
115150,115015
115099,115052
115130,114992
115155,115013
115097,115022
115150,115034
115129,115013
115181,115055
115141,115055
115180,115038
115195,115026
115182,115040
115198,115042
115199,115042
115253,115071
115238,115062
115289,115062
115310,115105
115344,115116
115317,115134
115357,115081
115394,115119
115416,115098
115431,115159
115434,115169
115467,115129
115502,115151
115501,115166
115538,115196
115538,115199
115572,115160
115613,115212
115596,115201
115635,115240
115636,115224
115693,115249
115672,115238
115741,115251
115742,115287
115776,115271
115769,115255
115755,115265
115818,115320
115812,115322
115847,115293
115835,115293
115892,115293
115911,115360
115876,115348
115961,115332
115914,115345
115981,115352
115985,115396
116033,115341
115994,115387
116026,115357
116053,115390
116079,115405
116080,115391
116125,115403
116140,115424
116147,115377
116195,115466
116207,115422
116218,115445
116188,115424
116247,115458
116270,115463
116254,115480
116314,115474
116330,115458
116291,115483
116334,115498
116361,115526
116362,115466
116346,115451
116403,115496
116373,115520
116410,115494
116417,115541
116425,115494
116478,115530
116451,115534
116492,115537
116456,115483
116512,115518
116504,115561
116491,115555
116537,115549
116557,115567
116519,115570
116569,115530
116541,115569
116576,115561
116548,115570
116566,115540
116576,115599
116554,115540
116587,115551
116538,115560
116476,115529
116423,115470
116386,115503
116292,115477
116216,115413
116132,115359
116015,115323
115893,115270
115850,115243
115686,115231
115600,115160
115470,115104
115395,115059
115258,115069
115192,114977
115060,114972
115016,114904
114927,114897
114824,114885
114732,114824
114726,114809
114697,114777
114611,114809
114563,114731
114529,114766
114491,114733
114532,114743
114496,114774
114471,114721
114501,114762
114479,114727
114472,114724
114498,114729
114483,114755
114511,114738
114481,114719
114519,114729
114557,114758
114540,114748
114583,114739
114578,114772
114604,114758
114577,114790
114603,114764
114618,114744
114647,114753
114594,114768
114589,114788
114630,114750
114630,114765
114633,114767
114667,114793
114659,114804
114653,114778
114652,114803
114670,114809
114685,114800
114666,114805
114692,114831
114718,114845
114704,114837
114694,114821
114720,114823
114734,114859
114750,114856
114747,114858
114810,114867
114830,114866
114789,114877
114803,114860
114836,114892
114874,114889
114897,114879
114890,114895
114931,114906
114955,114943
114970,114915
114981,114928
115022,114956
115002,114930
115061,114943
115027,114996
115048,114981
115076,114966
115068,115001
115103,114955
115106,115011
115137,114996
115105,114998
115136,115014
115105,115019
115166,115013
115160,115012
115134,115005
115159,115013
115134,114997
115180,115016
115157,115042
115105,115010
115183,115038
115182,115018
115161,115046
115148,115006
115183,115006
115180,115045
115194,115042
115201,115041
115188,115062
115224,115012
115217,115056
115264,115040
115250,115014
115277,115070
115278,115028
115300,115094
115311,115072
115371,115107
115353,115099
115388,115118
115385,115141
115387,115103
115472,115166
115473,115166
115464,115176
115496,115151
115535,115181
115538,115173
115553,115188
115586,115207
115563,115193
115637,115204
115618,115230
115609,115221
115719,115248
115664,115238
115704,115229
115757,115239
115738,115263
115761,115281
115779,115267
115827,115307
115807,115260
115827,115326
115816,115287
115914,115342
115901,115317
115887,115365
115903,115335
115965,115343
115997,115355
115974,115377
116034,115368
116068,115435
116045,115401
116057,115409
116060,115393
116087,115453
116093,115449
116161,115442
116145,115434
116179,115470
116167,115427
116232,115485
116239,115480
116238,115529
116256,115483
116288,115520
116280,115513
116349,115542
116334,115526
116356,115539
116379,115570
116442,115560
116403,115561
116455,115573
116463,115584
116465,115597
116489,115599
116503,115599
116555,115625
116574,115606
116565,115630
116614,115639
116631,115631
116623,115630
116669,115668
116708,115698
116709,115686
116695,115675
116727,115679
116742,115689
116758,115726
116788,115715
116771,115722
116835,115750
116850,115771
116845,115778
116865,115727
116880,115804
116894,115751
116873,115790
116903,115773
116951,115787
116921,115814
116977,115816
116996,115809
117013,115864
116995,115818
117018,115801
117015,115822
117099,115857
117068,115840
117105,115846
117107,115871
117112,115829
117165,115882
117139,115886
117139,115894
117183,115900
117202,115885
117171,115930
117220,115899
117173,115889
117158,115890
117144,115845
117122,115866
117048,115856
116979,115796
116904,115759
116829,115694
116753,115724
116638,115632
116572,115616
116472,115541
116377,115535
116228,115490
116135,115452
116000,115422
115932,115347
115839,115291
115738,115295
115684,115283
115582,115201
115507,115156
115469,115143
115399,115106
115282,115126
115298,115077
115237,115036
115232,115018
115185,115043
115157,115041
115153,115025
115161,115005
115181,115008
115139,115024
115153,115052
115150,115030
115197,114993
115198,115040
115158,115017
115236,115041
115214,115034
115201,115048
115248,115022
115295,115062
115284,115046
115274,115060
115321,115080
115320,115100
115359,115061
115320,115077
115365,115098
115397,115104
115392,115081
115378,115129
115373,115083
115376,115074
115406,115096
115389,115125
115393,115087
115403,115124
115432,115098
115416,115095
115446,115155
115418,115090
115410,115153
115459,115130
115460,115091
115509,115158
115457,115141
115458,115153
115477,115130
115495,115156
115497,115163
115520,115134
115555,115205
115555,115139
115573,115214
115579,115193
115622,115173
115627,115228
115618,115237
115668,115199
115649,115208
115723,115220
115702,115248
115668,115194
115745,115255
115689,115230
115692,115238
115716,115253
115725,115209
115714,115252
115742,115219
115721,115241
115716,115205
115679,115215
115703,115216
115699,115188
115721,115212
115657,115183
115678,115210
115640,115201
115619,115181
115662,115165
115626,115202
115623,115189
115637,115157
115662,115159
115641,115187
115600,115146
115671,115144
115617,115161
115654,115148
115680,115138
115699,115187
115649,115195
115708,115159
115703,115196
115707,115194
115776,115225
115770,115214
115772,115191
115788,115190
115789,115227
115844,115237
115833,115250
115850,115193
115855,115225
115825,115212
115886,115227
115852,115214
115881,115204
115900,115205
115872,115222
115915,115223
115896,115232
115912,115197
115939,115236
115948,115233
115953,115265
115973,115215
115988,115258
116003,115277
116065,115285
116088,115269
116074,115291
116109,115298
116098,115326
116114,115328
116140,115322
116186,115327
116136,115372
116177,115339
116230,115384
116243,115392
116274,115398
116267,115425
116267,115379
116337,115435
116310,115414
116339,115432
116319,115436
116371,115421
116326,115464
116376,115427
116413,115469
116396,115432
116444,115460
116452,115485
116493,115479
116442,115515
116458,115489
116485,115525
116528,115530
116505,115540
116546,115501
116563,115581
116579,115546
116556,115586
116575,115592
116570,115541
116611,115608
116587,115603
116621,115582
116608,115573
116664,115596
116693,115622
116691,115636
116709,115592
116711,115629
116712,115634
116729,115638
116720,115618
116747,115657
116731,115634
116763,115613
116767,115648
116785,115647
116770,115656
116822,115663
116812,115625
116833,115644
116857,115669
116865,115652
116887,115703
116867,115706
116913,115699
116952,115684
116922,115724
116930,115697
117003,115756
116960,115687
117007,115733
117003,115734
116939,115710
117015,115706
116933,115735
116899,115653
116903,115712
116814,115629
116769,115621
116674,115561
116597,115544
116522,115507
116433,115486
116335,115411
116210,115381
116083,115332
116011,115288
115873,115265
115762,115167
115700,115159
115582,115112
115493,115077
115387,115067
115290,114961
115248,114984
115170,114950
115072,114923
115046,114863
114974,114887
114956,114823
114918,114857
114905,114811
114852,114809
114839,114781
114842,114784
114806,114759
114812,114812
114790,114766
114832,114815
114829,114801
114814,114779
114810,114813
114824,114758
114868,114842
114884,114803
114876,114777
114844,114804
114889,114822
114850,114809
114891,114846
114936,114848
114933,114815
114964,114856
114924,114852
114983,114857
114979,114848
114965,114900
114983,114888
114994,114879
115008,114928
114993,114889
115043,114938
114991,114926
115034,114889
115059,114900
115043,114937
115062,114910
115044,114896
115069,114920
115039,114888
115111,114926
115048,114956
115087,114933
115068,114948
115080,114918
115150,114961
115104,114932
115117,114931
115160,114984
115136,114965
115178,114987
115182,114964
115181,114966
115244,115000
115221,114967
115223,114958
115274,114974
115243,115011
115280,114963
115267,115015
115248,114986
115244,114996
115267,114995
115254,114975
115256,114964
115230,114958
115256,114999
115241,114987
115205,114956
115215,114998
115193,114904
115195,114966
115145,114923
115179,114956
115173,114929
115183,114936
115138,114950
115154,114962
115180,114945
115208,114935
115183,114970
115168,114929
115206,114934
115188,114964
115226,114947
115234,114959
115183,114984
115230,114942
115291,114996
115253,114976
115299,114988
115332,114988
115332,114999
115391,115042
115364,115049
115394,114995
115410,115048
115409,115041
115480,115092
115448,115069
115498,115084
115473,115062
115559,115071
115536,115122
115552,115113
115578,115096
115614,115133
115639,115133
115625,115125
115675,115163
115673,115164
115672,115151
115694,115161
115731,115207
115749,115203
115753,115195
115777,115226
115820,115199
115795,115215
115800,115235
115850,115224
115848,115245
115888,115260
115865,115263
115929,115269
115953,115265
115913,115272
115950,115306
115967,115289
115989,115307
116000,115320
115998,115304
116051,115339
116045,115336
116063,115324
116047,115368
116088,115321
116148,115391
116144,115338
116172,115398
116161,115372
116205,115368
116197,115435
116216,115375
116242,115404
116262,115467
116241,115429
116307,115422
116282,115450
116335,115462
116366,115458
116350,115471
116378,115472
116383,115480
116422,115502
116432,115497
116434,115524
116409,115481
116509,115550
116486,115545
116498,115563
116494,115524
116522,115556
116581,115597
116553,115588
116580,115581
116606,115584
116625,115645
116623,115580
116640,115593
116637,115603
116668,115597
116683,115607
116690,115582
116706,115624
116741,115627
116751,115628
116722,115611
116747,115634
116779,115631
116775,115660
116801,115655
116802,115653
116839,115687
116833,115639
116833,115659
116854,115678
116868,115685
116874,115662
116872,115681
116915,115682
116919,115707
116946,115700
116932,115722
116977,115713
116945,115719
116989,115732
117031,115748
117037,115758
117066,115743
117075,115782
117094,115758
117072,115767
117109,115753
117077,115755
117082,115771
117063,115734
117002,115724
116953,115717
116916,115676
116836,115666
116771,115620
116654,115593
116599,115574
116512,115511
116384,115469
116287,115410
116197,115398
116064,115340
115985,115306
115880,115252
115753,115253
115641,115186
115613,115135
115452,115100
115410,115058
115342,115030
115253,115053
115223,114984
115153,114964
115134,114984
115085,114982
115087,114937
115020,114922
115047,114931
114978,114898
114971,114902
115001,114946
114999,114909
114976,114929
115020,114901
115001,114927
114981,114885
115044,114948
115063,114940
115036,114919
115076,114946
115025,114943
115048,114985
115074,114944
115089,114940
115090,114945
115111,114951
115120,114961
115148,114969
115119,114982
115123,115007
115158,114964
115157,115000
115133,114972
115179,115017
115147,114967
115189,114956
115173,114952
115232,114997
115214,114981
115218,114995
115201,115004
115226,115023
115236,114979
115218,115037
115223,114969
115266,115066
115277,115025
115279,115014
115304,115050
115318,115021
115302,115053
115341,115069
115357,115063
115408,115088
115392,115087
115450,115118
115453,115069
115469,115129
115459,115099
115518,115112
115498,115135
115528,115108
115534,115132
115560,115146
115550,115187
115556,115118
115517,115180
115599,115155
115549,115135
115564,115144
115585,115199
115592,115176
115564,115158
115578,115169
115567,115133
115566,115192
115595,115168
115537,115132
115581,115174
115593,115167
115546,115144
115523,115155
115600,115167
115581,115151
115578,115166
115589,115178
115569,115168
115570,115150
115608,115185
115608,115177
115637,115186
115640,115191
115650,115202
115666,115209
115683,115204
115740,115254
115755,115230
115761,115246
115762,115262
115810,115286
115826,115276
115843,115293
115864,115310
115897,115306
115920,115321
115904,115328
115953,115360
115999,115353
115964,115363
116006,115368
116043,115400
116057,115397
116087,115390
116089,115411
116144,115432
116160,115421
116159,115435
116182,115453
116185,115453
116249,115460
116261,115474
116248,115496
116287,115495
116318,115486
116340,115521
116371,115516
116365,115512
116379,115559
116431,115553
116417,115554
116431,115564
116476,115561
116477,115566
116487,115587
116511,115580
116541,115611
116540,115598
116535,115622
116554,115613
116596,115617
116588,115645
116631,115634
116601,115636
116648,115624
116655,115652
116667,115661
116682,115673
116692,115672
116731,115680
116749,115693
116736,115692
116773,115695
116765,115706
116809,115725
116828,115724
116809,115704
116836,115731
116837,115722
116863,115756
116885,115753
116876,115753
116923,115764
116907,115758
116934,115769
116954,115779
116951,115784
117009,115810
117024,115769
117011,115812
117025,115791
117032,115806
117061,115828
117068,115828
117102,115830
117114,115840
117095,115809
117137,115844
117140,115849
117140,115849
117153,115869
117181,115859
117199,115857
117193,115879
117208,115877
117234,115897
117264,115893
117220,115886
117276,115895
117302,115929
117303,115917
117273,115900
117320,115886
117317,115908
117362,115920
117355,115915
117396,115913
117362,115912
117373,115935
117373,115910
117407,115962
117394,115924
117443,115928
117426,115933
117403,115944
117453,115954
117467,115929
117484,115945
117485,115946
117507,115947
117518,115966
117532,115959
117532,115944
117556,115934
117542,115928
117567,115973
117581,115930
117550,115938
117590,115922
117518,115912
117498,115880
117473,115849
117425,115844
117355,115818
117282,115777
117180,115741
117124,115728
117066,115699
116955,115628
116851,115603
116784,115589
116691,115524
116563,115490
116509,115451
116473,115402
116340,115398
116268,115383
116191,115349
116158,115307
116023,115271
115993,115268
115959,115234
115918,115224
115892,115217
115824,115186
115801,115197
115811,115194
115798,115173
115782,115181
115749,115148
115782,115176
115771,115177
115780,115185
115796,115161
115755,115195
115841,115211
115859,115197
115816,115201
115869,115208
115876,115224
115909,115225
115911,115244
115921,115239
115972,115258
115987,115253
115979,115252
116002,115279
116035,115263
116051,115284
116060,115304
116043,115288
116094,115297
116097,115323
116092,115311
116089,115320
116109,115321
116134,115327
116162,115326
116143,115335
116161,115333
116171,115337
116187,115347
116180,115355
116167,115352
116213,115359
116239,115366
116252,115369
116254,115380
116286,115391
116293,115406
116301,115432
116340,115459
116365,115444
116390,115442
116375,115444
116418,115468
116463,115460
116442,115476
116444,115462
116477,115483
116485,115477
116486,115497
116487,115468
116470,115498
116457,115467
116502,115506
116432,115477
116490,115481
116504,115469
116460,115502
116450,115440
116426,115458
116442,115476
116401,115478
116402,115445
116435,115489
116408,115457
116412,115462
116373,115411
116426,115455
116346,115413
116368,115425
116399,115420
116402,115457
116349,115462
116407,115418
116394,115423
116383,115445
116422,115434
116400,115482
116454,115435
116447,115427
116464,115469
116483,115457
116523,115493
116529,115474
116546,115480
116552,115514
116579,115496
116600,115551
116583,115526
116635,115531
116672,115567
116632,115566
116678,115555
116691,115599
116728,115588
116733,115602
116764,115645
116759,115623
116829,115629
116853,115647
116835,115670
116856,115627
116843,115674
116898,115681
116917,115641
116932,115693
116917,115669
116933,115722
117011,115680
116978,115706
117003,115715
117041,115715
117030,115722
117043,115696
117031,115725
117085,115710
117106,115783
117075,115761
117096,115753
117139,115769
117104,115774
117135,115783
117109,115773
117188,115807
117205,115796
117204,115797
117220,115798
117175,115808
117239,115828
117240,115828
117274,115810
117297,115852
117252,115866
117271,115794
117309,115831
117304,115881
117342,115842
117334,115877
117389,115853
117376,115858
117371,115879
117433,115877
117430,115922
117440,115872
117450,115888
117411,115898
117480,115912
117490,115936
117524,115899
117547,115952
117520,115926
117561,115905
117573,115947
117572,115929
117585,115977
117596,115933
117611,115976
117632,115955
117600,115975
117687,115975
117670,115994
117677,116008
117711,116015
117739,116004
117738,116050
117704,116007
117779,116062
117791,116046
117824,116040
117786,116059
117802,116016
117831,116078
117857,116064
117843,116051
117851,116092
117873,116088
117867,116063
117922,116092
117917,116075
117886,116120
117975,116085
117941,116106
117969,116119
117957,116113
117976,116109
118003,116144
118041,116132
118026,116140
118049,116190
118030,116147
118094,116161
118099,116190
118104,116180
118077,116167
118136,116150
118117,116219
118157,116185
118109,116209
118133,116225
118136,116197
118071,116170
118051,116163
117987,116135
117902,116049
117845,116055
117722,116007
117664,115944
117571,115943
117442,115877
117367,115835
117252,115812
117106,115766
117041,115687
116921,115698
116819,115634
116731,115572
116661,115578
116546,115526
116492,115493
116368,115446
116319,115406
116261,115419
116135,115368
116148,115338
116078,115353
115991,115302
116003,115305
115944,115273
115929,115257
115903,115244
115907,115264
115880,115231
115873,115250
115864,115265
115848,115236
115877,115221
115882,115240
115844,115244
115897,115214
115878,115270
115889,115199
115904,115242
115901,115270
115919,115263
115942,115305
115954,115240
115928,115293
115970,115298
115959,115221
115952,115283
115980,115299
115978,115288
116002,115284
115970,115268
115993,115260
116003,115315
115986,115254
116033,115267
115973,115250
116014,115237
115961,115273
115980,115254
116007,115261
115953,115244
115979,115202
116007,115268
116008,115246
116013,115223
116009,115242
115996,115201
116046,115253
116036,115232
116096,115241
116061,115266
116111,115261
116114,115274
116102,115279
116201,115323
116164,115301
116181,115290
116245,115329
116247,115330
116248,115359
116256,115319
116291,115339
116273,115359
116298,115349
116272,115354
116321,115354
116309,115392
116306,115328
116318,115375
116295,115362
116273,115378
116230,115329
116225,115333
116200,115362
116165,115338
116111,115344
116101,115291
116019,115259
115950,115230
115776,115124
115531,114925
115250,114680
114975,114455
114695,114191
114420,113925
114236,113735
114069,113647
113956,113504
113885,113480
113767,113385
113651,113332
113529,113229
113494,113192
113348,113077
113251,113039
113102,112982
112962,112848
112904,112847
112746,112738
112631,112642
112522,112559
112426,112511
112335,112462
112286,112422
112266,112410
112238,112402
112211,112464
112236,112469
112307,112544
112321,112638
112405,112724
112521,112821
112603,112958
112680,113065
112796,113120
112918,113229
112950,113374
113035,113407
113090,113468
113149,113448
113244,113531
113235,113608
113317,113556
113336,113640
113371,113638
113483,113667
113510,113732
113586,113796
113689,113841
113774,113901
113806,113992
113909,113996
114040,114146
114121,114195
114201,114230
114277,114306
114434,114387
114455,114379
114561,114500
114633,114498
114641,114555
114680,114531
114703,114583
114697,114557
114804,114594
114769,114608
114777,114554
114841,114611
114816,114598
114845,114604
114904,114604
114964,114665
115026,114688
115062,114728
115149,114781
115192,114801
115282,114884
115364,114943
115427,114984
115489,115002
115534,115059
115618,115103
115675,115117
115740,115193
115831,115219
115898,115251
115951,115289
116017,115360
116077,115363
116133,115432
116217,115440
116236,115477
116319,115496
116362,115525
116410,115559
116473,115586
116490,115629
116565,115664
116574,115679
116627,115659
116711,115728
116701,115738
116794,115738
116818,115757
116834,115791
116865,115788
116929,115760
116920,115828
116969,115825
116978,115806
117001,115863
116995,115833
117025,115865
117009,115836
117029,115873
117046,115835
117094,115841
117056,115802
117122,115846
117123,115845
117188,115887
117140,115890
117232,115893
117198,115902
117185,115872
117152,115846
117137,115842
117121,115811
117026,115753
116939,115698
116865,115649
116757,115655
116692,115559
116591,115529
116459,115452
116393,115452
116236,115411
116141,115343
116030,115299
115944,115225
115849,115228
115713,115110
115588,115101
115533,115049
115421,114995
115302,114986
115177,114874
115060,114852
115009,114844
114922,114787
114815,114718
114716,114734
114668,114660
114570,114606
114549,114630
114448,114584
114463,114541
114389,114550
114396,114535
114342,114479
114381,114501
114312,114504
114327,114492
114315,114494
114310,114486
114371,114507
114330,114542
114355,114547
114369,114533
114385,114560
114392,114546
114420,114584
114445,114570
114433,114569
114475,114584
114518,114598
114479,114560
114480,114614
114556,114610
114553,114597
114550,114615
114581,114635
114581,114573
114604,114606
114623,114612
114652,114674
114637,114618
114627,114647
114670,114646
114665,114632
114741,114691
114681,114670
114710,114670
114776,114690
114691,114670
114779,114652
114765,114703
114829,114677
114793,114706
114814,114693
114849,114628
114806,114669
114796,114625
114787,114576
114648,114503
114523,114387
114445,114306
114300,114171
114143,113997
113966,113883
113789,113709
113670,113572
113453,113418
113267,113250
113151,113092
112980,112978
112828,112837
112700,112689
112570,112603
112424,112481
112306,112380
112122,112224
112002,112113
111779,111964
111619,111778
111375,111595
111185,111390
110909,111178
110594,110847
110208,110502
109742,110032
109189,109490
108601,108918
107986,108364
107282,107658
106580,106928
105863,106227
105177,105608
104471,104956
103891,104438
103378,104003
103043,103722
102772,103533
102595,103335
102520,103329
102472,103263
102381,103216
102370,103151
102242,103055
102121,102912
101976,102781
101810,102605
101688,102464
101578,102361
101368,102176
101229,102030
101162,101985
101054,101896
101014,101827
100983,101800
100984,101842
100989,101828
101089,101929
101185,102042
101263,102117
101475,102323
101644,102489
101831,102685
102040,102905
102273,103086
102431,103293
102659,103524
102784,103616
102944,103728
103013,103815
103050,103853
103020,103873
103025,103825
102854,103679
102625,103391
102556,103409
102634,103444
102740,103576
102843,103628
102956,103780
103145,103962
103342,104180
103680,104466
103983,104760
104351,105132
104659,105401
104981,105698
105249,105928
105541,106200
105765,106413
105947,106586
106175,106741
106260,106850
106401,106944
106484,107051
106629,107135
106700,107282
106860,107387
107063,107562
107153,107704
107349,107832
107564,108090
107823,108311
108124,108555
108354,108795
108542,108964
108857,109184
108986,109372
109217,109503
109386,109695
109494,109810
109663,109905
109710,109963
109769,109994
109763,110031
109696,109929
109654,109940
109514,109813
109390,109708
109256,109601
109041,109435
108941,109391
108775,109302
108678,109217
108581,109225
108470,109165
108432,109235
108368,109235
108308,109241
108310,109256
108269,109313
108174,109325
108160,109341
108137,109381
108035,109362
107996,109356
107962,109416
107945,109423
107936,109477
107978,109519
108064,109643
108120,109686
108160,109793
108200,109867
108301,109943
108405,110029
108441,110120
108561,110218
108662,110316
108785,110393
108885,110547
108973,110568
109069,110685
109127,110773
109186,110796
109248,110871
109300,110839
109303,110867
109271,110827
109161,110742
109026,110577
108841,110442
108617,110238
108412,110020
108263,109853
107965,109713
107805,109471
107613,109334
107487,109182
107411,109112
107390,109072
107319,109021
107352,109001
107418,109066
107472,109092
107495,109130
107589,109201
107589,109193
107742,109290
107765,109299
107767,109299
107880,109400
107899,109431
108047,109480
108081,109527
108087,109539
108208,109590
108251,109649
108257,109661
108349,109708
108401,109711
108384,109723
108432,109731
108451,109723
108458,109709
108484,109777
108495,109702
108500,109762
108551,109794
108583,109804
108704,109828
108724,109889
108833,109927
108895,109994
109011,110090
109050,110190
109165,110234
109237,110294
109328,110362
109428,110456
109489,110471
109592,110581
109624,110603
109663,110629
109732,110642
109741,110717
109800,110702
109786,110738
109804,110751
109849,110772
109839,110733
109878,110737
109831,110774
109855,110733
109831,110779
109875,110766
109885,110777
109896,110838
109952,110814
109924,110825
109967,110855
110001,110853
110017,110894
110087,110963
110075,110955
110130,110946
110150,110979
110189,111011
110214,111013
110240,111040
110260,111050
110270,111047
110242,111061
110264,111058
110266,111009
110246,111028
110280,111029
110248,111021
110225,111016
110241,110972
110239,110983
110198,110966
110178,110944
110141,110913
110132,110865
110135,110891
110057,110788
110000,110790
109959,110709
109873,110676
109782,110537
109668,110496
109577,110427
109470,110253
109353,110142
109132,109976
109008,109832
108836,109677
108624,109521
108483,109366
108349,109190
108145,109019
107955,108880
107803,108711
107559,108518
107434,108392
107315,108270
107238,108137
107160,108132
107064,108036
107057,108000
107059,107985
107050,108000
107048,108005
107094,107984
107130,108036
107157,108059
107191,108112
107228,108092
107302,108112
107294,108176
107360,108187
107428,108216
107457,108296
107512,108298
107627,108384
107704,108444
107796,108533
107898,108640
108022,108676
108130,108821
108207,108876
108306,108948
108384,109016
108371,109066
108440,109111
108458,109129
108419,109143
108380,109096
108306,109095
108272,109085
108255,109077
108176,109129
108056,109010
107911,108919
107598,108742
107275,108476
106923,108219
106498,107849
105939,107456
105426,106992
104958,106562
104459,106168
104035,105746
103693,105483
103393,105307
103268,105188
103295,105185
103339,105310
103478,105458
103652,105650
103866,105836
104077,106134
104322,106307
104545,106543
104774,106763
104988,107010
105154,107170
105409,107374
105502,107493
105738,107610
105844,107739
106003,107860
106105,107962
106229,108045
106272,108122
106373,108169
106408,108192
106450,108188
106546,108236
106532,108233
106565,108257
106625,108236
106631,108272
106639,108274
106708,108237
106689,108253
106634,108232
106659,108224
106562,108121
106564,108141
106491,108094
106463,108033
106413,107950
106400,107964
106344,107879
106379,107923
106330,107923
106408,107913
106448,107978
106518,108033
106576,108113
106719,108178
106835,108315
106967,108437
107143,108513
107203,108608
107372,108685
107427,108787
107562,108879
107649,108947
107747,108998
107850,109114
107941,109142
107970,109182
108033,109184
108043,109218
108077,109195
108051,109200
108112,109251
108133,109203
108059,109170
108069,109184
108058,109177
107977,109140
107959,109113
107948,109067
107900,109097
107871,109047
107844,109021
107795,108957
107821,108964
107772,108988
107763,108959
107733,108917
107767,108961
107747,108928
107697,108952
107751,108934
107762,108939
107737,108973
107793,108986
107792,108987
107814,109011
107888,109061
107908,109057
107901,109092
107974,109132
108017,109134
108036,109152
108115,109239
108080,109243
108197,109261
108271,109310
108325,109352
108333,109420
108413,109420
108504,109515
108527,109499
108549,109551
108592,109560
108617,109549
108665,109603
108702,109622
108741,109643
108814,109676
108831,109692
108900,109766
108945,109754
108975,109767
108983,109794
109041,109818
109034,109784
109126,109828
109133,109881
109156,109849
109209,109897
109222,109897
109265,109958
109262,109943
109354,110014
109345,110007
109410,109993
109469,110080
109462,110092
109574,110116
109575,110150
109603,110144
109674,110189
109688,110249
109768,110236
109797,110303
109856,110340
109848,110357
109902,110339
109938,110405
109965,110426
110023,110453
110041,110468
110063,110467
110131,110490
110169,110558
110186,110540
110210,110562
110222,110628
110262,110591
110328,110609
110329,110626
110337,110673
110391,110662
110409,110706
110392,110659
110481,110703
110409,110684
110437,110652
110412,110673
110386,110610
110366,110636
110289,110551
110265,110512
