11111,11111
0,0
80610,80016
100054,97942
100051,97915
100103,97954
100156,98019
100100,97985
100120,97929
100104,97974
100150,97969
100210,98039
100205,97985
100248,97992
100196,97992
100281,98013
100326,98053
100318,98039
100357,98037
100331,98018
100429,98042
100492,98096
100465,98105
100496,98073
100482,98120
100581,98118
100630,98164
100622,98161
100616,98158
100604,98132
100715,98202
100714,98216
100725,98197
100758,98170
100720,98202
100784,98227
100826,98245
100824,98033
100859,98068
100829,98058
100929,98112
100935,98157
100953,98103
100947,98115
100944,98089
101043,98171
101053,98150
101064,98165
101051,98174
101088,98138
101146,98209
101180,98212
101177,98248
101156,98199
101188,98191
101251,98253
101280,98252
101265,98242
101234,98240
101272,98213
101361,98295
101340,98265
101339,98268
101354,98280
101369,98255
101420,98296
101425,98286
101466,98312
101419,98309
101446,98274
101517,98351
101493,98305
101504,98354
101432,98306
101523,98331
101515,98371
101569,98376
101550,98343
101539,98352
101538,98356
101606,98386
101604,98360
101651,98389
101607,98376
101624,98334
101725,98419
101718,98411
101717,98417
101718,98362
101713,98435
101784,98440
101790,98454
101776,98449
101772,98381
101786,98457
101836,98468
101889,98492
101874,98506
101836,98466
101904,98469
101949,98541
101979,98496
101936,98531
101904,98451
101999,98511
102037,98584
102053,98535
102069,98579
102014,98484
102107,98592
102161,98611
102157,98575
102162,98588
102154,98572
102185,98624
102200,98623
102257,98628
102217,98622
102172,98598
102152,98587
102166,98580
102039,98570
101912,98466
101703,98387
101557,98308
101297,98189
98727,97126
99330,97397
99396,97428
99821,97555
99821,97589
99825,97594
99712,97517
99660,97482
99755,97534
99729,97566
100124,97727
100188,97681
100172,97692
100211,97712
100290,97770
100374,97746
100370,97798
100402,97800
100473,97797
100552,97857
100616,97880
100661,97896
100705,97881
100742,97907
100796,97955
100889,98018
100906,97973
100903,97990
100930,97961
101032,98032
101076,98031
101118,98114
101078,98068
101153,98052
101257,98111
101252,98181
101296,98159
101348,98166
101358,98124
101428,98205
101521,98246
101547,98217
101563,98237
101557,98212
101646,98292
101679,98318
101704,98287
101675,98303
101700,98322
101804,98363
101816,98365
101833,98365
101827,98331
101858,98363
101901,98405
101961,98389
101906,98393
101919,98373
101966,98384
101991,98438
101985,98394
101987,98445
101973,98379
101984,98420
102036,98429
102063,98452
102025,98425
102024,98413
102064,98433
102110,98503
102107,98437
102067,98480
102044,98418
102091,98441
102140,98447
102100,98466
102102,98446
102056,98437
102098,98408
102111,98471
102149,98466
102078,98467
102054,98389
102111,98464
102161,98483
102150,98498
102129,98448
102090,98412
102110,98461
102187,98503
102172,98506
102175,98452
102169,98469
102179,98443
102236,98492
102224,98492
102256,98494
102208,98483
102240,98483
102282,98541
102304,98535
102286,98509
102254,98516
102336,98515
102339,98559
102354,98557
102369,98538
102338,98526
102347,98559
102407,98577
102403,98559
102377,98575
102288,98485
102358,98528
102342,98544
102246,98490
102148,98391
101993,98357
101882,98288
101737,98243
101502,98144
101288,98001
100945,97860
100750,97781
100463,97713
100229,97589
100050,97488
99863,97366
99776,97378
99627,97333
99568,97253
99467,97247
99320,97151
99344,97141
99317,97217
99220,97109
99189,97124
99112,97063
99150,97125
99175,97115
99127,97088
99152,97108
99081,97063
99189,97133
99247,97166
99258,97191
99288,97166
99292,97190
99423,97203
99498,97263
99540,97291
99586,97278
99618,97311
99723,97325
99805,97432
99860,97417
99906,97437
99946,97397
100025,97499
100096,97516
100165,97573
100211,97534
100204,97513
100300,97626
100335,97636
100409,97651
100402,97646
100403,97637
100530,97665
100552,97703
100551,97712
100571,97666
100550,97694
100629,97763
100677,97759
100715,97754
100694,97786
100699,97715
100854,97830
100864,97832
100921,97839
100923,97824
100978,97877
101062,97886
101165,97933
101175,97951
101178,97949
101177,97934
101296,97992
101284,98021
101313,97988
101281,97959
101269,97982
101335,98050
101322,97999
101338,98022
101256,97991
101269,97963
101314,97971
101347,98015
101273,98001
101261,97993
101269,97941
101275,97996
101309,97998
101262,97989
101258,97953
101257,97983
101292,97944
101296,98008
101267,97981
101300,97964
101250,97937
101336,98008
101345,98031
101310,97986
101330,97961
101348,97970
101379,98015
101439,98017
101389,98038
101381,97980
101447,98008
101447,98057
101534,98053
101473,98049
101512,98012
101503,98040
101553,98097
101556,98082
101609,98126
101574,98067
101605,98092
101680,98103
101662,98136
101663,98162
101646,98106
101701,98139
101703,98141
101750,98191
101745,98149
101777,98158
101753,98151
101839,98181
101833,98233
101847,98194
101828,98191
101866,98195
101868,98213
101893,98270
101906,98203
101897,98180
101900,98243
101977,98281
102002,98270
101978,98269
101981,98199
102022,98250
102053,98292
102078,98309
102062,98266
102057,98266
102051,98263
102099,98332
102111,98311
102112,98338
102081,98303
102126,98274
102151,98366
102143,98333
102162,98343
102131,98281
102129,98330
102176,98359
102232,98355
102196,98362
102157,98309
102194,98364
102199,98366
102228,98342
102224,98367
102193,98329
102276,98361
102264,98389
102277,98336
102259,98401
102225,98330
102303,98342
102316,98380
102352,98407
102315,98375
102284,98355
102342,98409
102408,98427
102380,98408
102403,98434
102324,98379
102441,98413
102449,98446
102445,98436
102434,98416
102369,98378
102492,98457
102442,98483
102483,98434
102441,98395
102420,98386
102489,98492
102485,98463
102519,98451
102494,98476
102481,98411
102490,98465
102519,98457
102562,98484
102512,98461
102516,98418
102516,98475
102548,98496
102583,98485
102524,98483
102526,98412
102581,98503
102623,98515
102576,98506
102628,98492
102556,98480
102631,98461
102699,98530
102679,98527
102648,98524
102597,98450
102717,98555
102708,98539
102675,98548
102686,98543
102650,98499
102712,98518
102755,98559
102723,98583
102739,98532
102707,98514
102769,98536
102755,98569
102682,98507
102679,98505
102540,98427
102475,98422
102391,98359
102254,98297
102084,98220
101924,98089
101804,98100
101654,98034
101515,97930
101308,97868
101040,97734
100935,97662
100733,97648
100551,97541
100415,97453
100268,97382
100194,97380
100145,97383
100056,97359
100008,97306
99933,97247
99921,97276
99993,97310
99934,97302
99958,97271
99943,97268
100019,97307
100114,97362
100098,97337
100152,97384
100169,97373
100317,97468
100355,97486
100408,97477
100450,97507
100464,97500
100578,97555
100658,97609
100684,97609
100686,97604
100710,97610
100802,97668
100885,97716
100928,97697
100919,97726
100976,97715
101060,97747
101115,97800
101127,97764
101132,97793
101142,97776
101220,97860
101258,97867
101233,97827
101274,97831
101275,97846
101312,97885
101392,97909
101379,97884
101378,97893
101383,97854
101437,97925
101504,97939
101491,97944
101490,97938
101511,97914
101600,97981
101621,98009
101643,98027
101589,97969
101652,97968
101678,98008
101741,98047
101711,98040
101685,98022
101670,97998
101727,98060
101757,98050
101705,98053
101696,98018
101709,98018
101718,98021
101729,98038
101700,98002
101656,98000
101689,98008
101730,98030
101699,98031
101676,97990
101629,97954
101622,97991
101680,98012
101611,98009
101639,98004
101603,97948
101592,97958
101620,97988
101619,97983
101577,97953
101594,97921
101567,97985
101655,97992
101635,97979
101620,97990
101583,97918
101651,97983
101671,98001
101692,97991
101702,98030
101634,97959
101686,97967
101702,98003
101747,98037
101745,98012
101725,97996
101705,97995
101739,98057
101801,98047
101751,98063
101715,97995
101773,98009
101837,98082
101867,98077
101839,98049
101830,98057
101812,98043
101870,98094
101916,98120
101869,98094
101864,98055
101872,98077
101956,98141
101930,98143
101943,98073
101914,98078
101946,98141
101963,98133
102004,98115
101975,98126
101944,98106
102003,98157
102012,98172
102032,98160
102013,98182
101998,98130
102050,98162
102077,98209
102071,98148
102082,98213
102016,98166
102095,98167
102123,98205
102152,98229
102139,98214
102099,98184
102124,98175
102189,98244
102161,98239
102166,98215
102133,98177
102145,98233
102210,98256
102169,98230
102201,98262
102107,98193
102231,98225
102231,98257
102192,98244
102206,98255
102145,98189
102247,98259
102239,98241
102242,98268
102209,98252
102172,98177
102231,98265
102262,98286
102274,98258
102228,98247
102206,98199
102270,98244
102299,98280
102266,98312
102286,98272
102227,98222
102299,98243
102302,98299
102265,98270
102298,98294
102247,98248
102297,98309
102281,98299
102330,98294
102302,98257
102270,98244
102315,98303
102328,98308
102370,98274
102327,98259
102291,98245
102306,98325
102389,98337
102318,98279
102353,98295
102280,98283
102380,98287
102401,98351
102377,98308
102401,98299
102350,98302
102402,98339
102418,98369
102415,98308
102418,98365
102357,98289
102484,98356
102490,98381
102474,98338
102442,98345
102415,98290
102523,98386
102533,98379
102526,98386
102518,98330
102506,98358
102520,98357
102554,98386
102541,98384
102521,98362
102473,98323
102515,98371
102509,98325
102399,98334
102308,98223
102175,98164
102087,98148
101974,98096
101811,98047
101615,97867
101395,97799
101209,97709
101011,97640
100730,97539
100478,97420
100330,97314
100199,97331
100067,97258
99974,97227
99847,97132
99751,97085
99700,97126
99691,97090
99591,97061
99593,97053
99528,96998
99588,97051
99582,97056
99586,97058
99567,97022
99636,97048
99717,97116
99769,97167
99785,97113
99834,97154
99874,97179
100027,97214
100056,97289
100145,97257
100136,97282
100197,97310
100326,97373
100371,97406
100385,97405
100398,97358
100484,97410
100538,97454
100545,97502
100609,97492
100591,97487
100636,97522
100739,97530
100753,97580
100748,97590
100751,97529
100759,97570
100855,97619
100870,97625
100880,97605
100864,97594
100896,97625
100964,97628
100990,97679
100961,97623
100972,97649
100996,97657
101088,97740
101119,97701
101193,97758
101167,97699
101207,97741
101289,97818
101318,97806
101338,97808
101341,97772
101343,97789
101420,97852
101407,97852
101435,97859
101380,97795
101415,97781
101427,97856
101455,97846
101419,97834
101401,97811
101385,97832
101434,97795
101429,97869
101367,97820
101341,97777
101394,97806
101376,97802
101441,97837
101336,97812
101306,97768
101358,97821
101399,97835
101386,97813
101339,97795
101343,97778
101355,97820
101397,97833
101371,97790
101335,97801
101325,97770
101372,97833
101409,97831
101394,97820
101385,97811
101380,97774
101419,97831
101449,97824
101510,97872
101514,97843
101430,97816
101564,97869
101570,97910
101595,97895
101634,97933
101617,97873
101645,97906
101717,97963
101732,97946
101736,97954
101715,97940
101757,97971
101809,97992
101829,98018
101796,97980
101801,97934
101832,98027
101884,98038
101865,98031
101892,98051
101862,97980
101963,98029
102006,98086
101964,98054
101983,98045
101965,98030
102021,98102
102079,98091
102059,98101
102079,98107
102033,98087
102093,98077
102154,98168
102098,98101
102088,98143
102057,98097
102182,98142
102180,98173
102150,98165
102179,98143
102154,98152
102194,98157
102247,98216
102251,98172
102223,98149
102202,98139
102258,98196
102297,98203
102250,98185
102244,98218
102203,98151
102308,98227
102319,98232
102299,98209
102248,98204
102235,98133
102303,98240
102309,98201
102301,98193
102287,98204
102249,98153
102327,98198
102323,98267
102263,98188
102308,98221
102284,98168
102357,98240
102333,98241
102331,98211
102336,98241
102307,98163
102380,98214
102377,98238
102380,98228
102327,98220
102368,98199
102399,98249
102449,98268
102405,98242
102416,98258
102358,98229
102424,98238
102413,98273
102434,98287
102392,98245
102407,98214
102440,98247
102491,98296
102429,98250
102476,98271
102415,98255
102499,98256
102537,98299
102477,98303
102489,98280
102472,98252
102534,98312
102544,98307
102544,98324
102488,98263
102508,98279
102525,98304
102551,98339
102467,98268
102423,98245
102313,98192
102296,98170
102188,98146
102016,98043
101905,97945
101698,97872
101598,97854
101358,97753
101158,97641
100936,97496
100748,97469
100593,97402
100475,97349
100296,97300
100172,97205
100104,97183
100033,97178
100006,97139
99946,97129
99854,97062
99850,97060
99883,97115
99905,97132
99887,97065
99852,97104
99887,97117
100001,97153
100024,97171
100058,97196
100120,97198
100187,97246
100262,97260
100315,97307
100412,97339
100423,97314
100487,97347
100628,97445
100649,97418
100734,97455
100757,97479
100767,97486
100873,97541
100919,97563
100954,97565
100965,97543
100967,97583
101079,97614
101142,97674
101117,97615
101140,97619
101167,97644
101225,97652
101246,97695
101212,97685
101227,97667
101257,97704
101305,97719
101339,97722
101334,97738
101362,97718
101366,97751
101431,97797
101478,97797
101539,97808
101513,97810
101570,97816
101631,97884
101672,97872
101690,97892
101659,97844
101683,97867
101731,97913
101710,97914
101708,97898
101670,97857
101693,97875
101714,97906
101706,97913
101684,97884
101626,97829
101680,97857
101678,97881
101643,97896
101643,97833
101552,97822
101587,97830
101597,97855
101588,97830
101592,97837
101534,97772
101566,97792
101603,97842
101576,97846
101537,97809
101491,97794
101535,97792
101592,97812
101548,97810
101564,97817
101522,97749
101589,97815
101607,97854
101597,97863
101605,97877
101585,97791
101625,97856
101669,97856
101656,97861
101664,97890
101660,97827
101713,97885
101731,97879
101760,97908
101723,97929
101689,97856
101792,97922
101843,97931
101840,97951
101794,97928
101781,97941
101872,97944
101889,98006
101879,97962
101903,97966
101866,97913
101916,97971
101983,98014
101957,98031
101975,97977
101948,97936
101981,98018
102049,98035
102016,98018
102058,98046
101992,97972
102084,98042
102060,98072
102069,98032
102097,98084
102070,98040
102138,98072
102135,98087
102156,98068
102105,98059
102116,98062
102134,98072
102168,98099
102177,98081
102162,98131
102151,98086
102200,98116
102201,98102
102202,98085
102197,98087
102172,98072
102254,98126
102255,98131
102237,98140
102243,98087
102171,98073
102243,98137
102291,98133
102242,98127
102222,98083
102187,98069
102260,98130
102235,98145
102262,98116
102219,98099
102222,98071
102284,98137
102317,98155
102277,98165
102260,98091
102239,98096
102322,98137
102363,98173
102266,98151
102312,98139
102292,98103
102326,98157
102366,98179
102327,98165
102291,98126
102318,98118
102344,98187
102346,98156
102353,98196
102352,98128
102334,98123
102379,98182
102404,98187
102389,98200
102400,98154
102386,98165
102411,98198
102458,98202
102433,98218
102404,98185
102393,98172
102468,98241
102485,98219
102471,98220
102426,98148
102439,98168
102513,98233
102436,98217
102457,98203
102328,98127
102282,98092
102218,98071
102124,98062
101964,97940
101770,97862
101599,97740
101466,97736
101248,97643
100981,97506
100751,97379
100561,97316
100396,97269
100296,97240
100105,97135
99998,97085
99897,97045
99816,97026
99825,97031
99722,96997
99655,96949
99624,96932
99688,96947
99688,96981
99658,96932
99681,96981
99696,96919
99755,97041
99778,96995
99794,97013
99820,97040
99852,97035
99988,97095
99979,97114
100039,97127
100062,97079
100120,97154
100171,97192
100227,97199
100253,97223
100289,97188
100343,97268
100394,97228
100460,97337
100458,97334
100471,97268
100518,97331
100569,97337
100612,97405
100597,97377
100605,97353
100629,97365
100711,97386
100742,97428
100693,97386
100691,97384
100725,97399
100796,97418
100778,97437
100792,97489
100783,97382
100895,97498
100914,97472
100956,97484
100999,97530
100976,97477
101093,97560
101117,97586
101169,97598
101241,97603
101187,97616
101253,97617
101312,97624
101333,97679
101327,97648
101333,97656
101338,97665
101341,97682
101370,97670
101359,97677
101293,97658
101315,97659
101387,97688
101342,97681
101292,97676
101293,97619
101307,97632
101335,97662
101263,97617
101287,97619
101179,97580
101249,97614
101248,97650
101220,97639
101223,97604
101179,97559
101205,97636
101245,97637
101246,97600
101213,97620
101186,97561
101287,97636
101279,97671
101300,97640
101333,97655
101269,97614
101361,97696
101415,97677
101437,97712
101432,97713
101431,97661
101485,97707
101529,97768
101509,97717
101587,97768
101513,97725
101608,97792
101652,97784
101622,97834
101633,97753
101592,97778
101717,97788
101717,97823
101762,97863
101712,97817
101732,97809
101759,97848
101851,97876
101811,97867
101833,97858
101795,97855
101851,97865
101898,97932
101855,97879
101894,97855
101856,97884
101945,97909
101961,97966
101963,97916
101980,97934
101954,97915
101988,97951
102017,97991
101999,97916
102024,97936
101978,97926
102027,97950
102096,97983
102029,97968
102058,97968
102014,97906
102090,97979
102135,97985
102111,97992
102059,97982
102059,97937
102167,98022
102128,98015
102162,98046
102159,97991
102119,97998
102146,98025
102219,98056
102145,97999
102195,97995
102152,98002
102204,98053
102242,98028
102187,98052
102179,98013
102150,98034
102247,98058
102205,98060
102186,98021
102222,98052
102173,98005
102234,98021
102266,98102
102212,98043
102236,98021
102193,98035
102270,98036
102266,98078
102233,98073
102256,98031
102242,98044
102229,98073
102287,98081
102253,98071
102254,98026
102202,98040
102248,98061
102301,98112
102221,98053
102239,98024
102215,98033
102290,98071
102279,98123
102250,98057
102247,98047
102255,98045
102289,98089
102306,98099
102293,98063
102277,98089
102286,98033
102358,98121
102328,98123
102336,98093
102355,98092
102339,98063
102392,98116
102430,98175
102385,98120
102415,98104
102401,98111
102431,98135
102460,98148
102425,98148
102405,98082
102396,98116
102440,98112
102396,98130
102294,98072
102251,98031
102157,97976
102031,97985
101936,97876
101763,97804
101505,97665
101274,97572
101085,97496
100851,97390
100553,97286
100342,97128
100164,97080
100018,97028
99894,96989
99726,96943
99607,96819
99533,96817
99502,96829
99446,96801
99342,96771
99278,96755
99321,96733
99306,96761
99315,96755
99306,96749
99242,96728
99304,96728
99423,96793
99413,96811
99425,96803
99411,96803
99532,96856
99553,96877
99618,96887
99668,96907
99674,96870
99753,96935
99823,96981
99831,96950
99899,96978
99861,97007
99971,97001
99996,97053
100042,97034
100048,97060
100016,97026
100107,97078
100109,97131
100148,97114
100113,97099
100126,97030
100152,97089
100181,97160
100178,97138
100173,97128
100170,97105
100226,97109
100262,97194
100258,97125
100311,97197
100269,97129
100342,97153
100421,97227
100422,97197
100503,97230
100461,97217
100538,97261
100639,97341
100670,97318
100703,97338
100672,97285
100721,97345
100807,97383
100792,97387
100801,97377
100752,97334
100840,97378
100874,97422
100863,97398
100845,97403
100789,97355
100855,97401
100871,97403
100854,97400
100842,97381
100763,97339
100846,97408
100879,97407
100814,97381
100825,97380
100750,97350
100825,97385
100883,97402
100828,97419
100811,97343
100813,97366
100850,97406
100906,97413
100842,97414
100880,97393
100833,97406
100914,97448
100980,97409
100935,97444
100973,97448
100955,97386
101024,97476
101063,97494
101064,97440
101072,97466
101051,97442
101131,97525
101126,97509
101158,97502
101105,97503
101095,97521
101151,97529
101241,97557
101177,97536
101178,97553
101164,97492
101208,97557
101292,97596
101243,97569
101232,97552
101225,97528
101332,97588
101332,97634
101332,97620
101313,97585
101314,97590
101389,97614
101469,97693
101466,97643
101406,97628
101447,97652
101493,97668
101557,97683
101532,97668
101536,97683
101519,97660
101643,97710
101640,97766
101622,97729
101663,97746
101661,97698
101692,97758
101761,97801
101742,97778
101760,97737
101726,97736
101813,97794
101813,97806
101840,97809
101838,97803
101790,97762
101897,97839
101904,97882
101903,97840
101921,97817
101884,97798
101960,97872
101986,97873
101973,97868
101915,97867
101951,97835
102007,97897
102012,97871
102014,97898
102025,97870
102013,97839
102052,97920
102112,97912
102100,97911
102015,97910
102063,97880
102105,97920
102086,97918
102137,97931
102071,97875
102112,97899
102131,97910
102210,97992
102167,97933
102157,97938
102190,97945
102184,97972
102191,97984
102225,97943
102185,97982
102240,97948
102262,97975
102314,98013
102248,98003
102227,97927
102269,98014
102317,98004
102291,97990
102262,98001
102294,97975
102286,97996
102357,98022
102306,98009
102337,98010
102259,97964
102305,97994
102371,98070
102359,98021
102347,98052
102295,97980
102356,98004
102403,98054
102389,98062
102425,98055
102332,98045
102404,98067
102406,98055
102435,98064
102396,98040
102373,98055
102433,98056
102479,98085
102418,98047
102433,98099
102439,98047
102441,98035
102488,98099
102438,98089
102414,98065
102429,98055
102460,98108
102474,98085
102509,98094
102495,98101
102415,98070
102477,98073
102565,98154
102537,98094
102521,98100
102510,98087
102513,98131
102598,98122
102552,98155
102564,98099
102555,98107
102579,98132
102622,98163
102619,98153
102608,98145
102602,98096
102632,98107
102614,98163
102636,98136
102585,98147
102490,98049
102541,98081
102453,98086
102368,98035
102201,97937
102036,97838
101973,97770
101865,97771
101569,97612
101392,97535
101053,97395
100884,97291
100707,97255
100417,97101
100279,97061
100045,96940
99982,96923
99866,96889
99779,96848
99676,96838
99578,96716
99590,96759
99597,96772
99519,96763
99530,96723
99524,96733
99582,96751
99626,96779
99588,96815
99624,96795
99693,96827
99737,96867
99810,96884
99855,96930
99856,96911
99926,96905
100029,96999
100085,97015
100165,97042
100176,97013
100196,97000
100338,97104
100388,97129
100405,97137
100444,97147
100436,97123
100521,97160
100594,97226
100579,97172
100587,97208
100575,97163
100623,97238
100646,97245
100670,97240
100603,97242
100593,97162
100637,97217
100653,97254
100648,97229
100604,97245
100610,97179
100677,97282
100714,97263
100692,97265
100744,97280
100773,97269
100852,97337
100928,97358
100921,97371
100983,97357
101015,97378
101076,97402
101169,97445
101151,97478
101149,97462
101114,97439
101194,97497
101246,97490
101194,97480
101229,97454
101190,97459
101219,97515
101241,97503
101225,97483
101194,97484
101209,97414
101230,97492
101233,97506
101178,97502
101147,97437
101142,97457
101152,97442
101181,97502
101191,97453
101114,97443
101109,97405
101110,97414
101153,97500
101127,97438
101085,97438
101099,97401
101135,97466
101154,97494
101073,97451
101099,97428
101106,97390
101176,97475
101149,97463
101209,97483
101159,97475
101186,97484
101237,97508
101307,97516
101286,97510
101282,97491
101317,97534
101376,97540
101432,97581
101390,97574
101407,97569
101450,97601
101512,97578
101585,97612
101573,97623
101594,97645
101644,97631
101693,97690
101690,97670
101714,97687
101678,97690
101749,97682
101761,97721
101828,97732
101762,97763
101793,97689
101803,97707
101876,97766
101846,97781
101861,97760
101858,97751
101891,97756
101926,97804
101957,97804
101916,97795
101931,97753
101967,97794
101996,97808
102043,97842
102011,97814
101966,97787
102027,97825
102052,97831
102089,97858
102079,97824
102007,97825
102091,97841
102140,97888
102097,97864
102115,97842
102076,97840
102150,97851
102149,97916
102122,97859
102136,97895
102056,97829
102140,97873
102123,97850
102118,97913
102127,97885
102061,97834
102107,97842
102112,97890
102109,97862
102047,97864
102008,97803
102040,97865
102076,97891
102017,97834
102026,97829
101953,97799
102004,97784
102048,97879
102002,97885
101992,97842
101976,97784
101958,97806
102038,97846
101986,97871
101976,97820
101980,97808
101972,97829
102011,97820
102008,97873
102012,97852
101986,97771
102035,97840
102031,97903
102074,97853
102044,97866
102015,97794
102077,97838
102135,97912
102089,97869
102118,97851
102081,97845
102127,97863
102132,97885
102176,97881
102192,97900
102100,97875
102219,97917
102226,97952
102230,97908
102226,97906
102151,97883
102285,97938
102251,97975
102260,97939
102258,97899
102232,97912
102281,97942
102285,97963
102300,97932
102282,97971
102240,97905
102355,97936
102322,97991
102361,97955
102333,98015
102331,97906
102370,98005
102400,98024
102402,97970
102413,98000
102364,97963
102469,98029
102470,98018
102474,98041
102471,98010
102467,98033
102514,98002
102554,98070
102541,98058
102529,98028
102523,98009
102558,98076
102576,98078
102586,98071
102548,98044
102528,98014
102599,98070
102605,98092
102567,98057
102505,98047
102437,97986
102420,97992
102353,97968
102223,97878
102059,97771
101831,97705
101703,97643
101498,97541
101202,97422
100913,97300
100628,97134
100478,97112
100281,97024
100070,96961
99938,96858
99759,96788
99692,96765
99636,96757
99492,96691
99439,96686
99345,96644
99356,96627
99332,96648
99263,96597
99238,96575
99165,96563
99268,96582
99271,96661
99263,96582
99261,96614
99281,96631
99383,96682
99415,96726
99490,96694
99492,96740
99542,96738
99671,96781
99713,96843
99752,96784
99766,96837
99812,96838
99922,96903
99989,96936
99966,96912
100021,96951
100042,96973
100129,96971
100187,97018
100167,97020
100193,96987
100222,96991
100315,97038
100343,97124
100345,97063
100318,97068
100376,97038
100443,97133
100445,97146
100490,97133
100488,97116
100554,97115
100570,97225
100640,97192
100675,97233
100714,97197
100776,97233
100888,97311
100931,97318
100960,97312
100934,97317
101021,97324
101068,97379
101071,97372
101079,97409
101042,97344
101122,97390
101162,97416
101121,97402
101106,97418
101031,97347
101096,97355
101120,97384
101103,97409
101088,97371
101093,97364
101052,97362
101075,97401
101104,97426
101075,97406
101057,97342
101036,97359
101020,97377
101043,97350
101020,97351
100998,97306
101003,97324
101036,97383
101039,97326
100976,97370
100928,97312
101017,97348
101015,97372
101045,97384
101016,97349
100982,97336
101031,97385
101049,97403
101066,97366
101032,97397
101041,97359
101108,97372
101146,97446
101139,97397
101181,97418
101168,97409
101215,97432
101284,97488
101283,97452
101295,97513
101281,97452
101365,97485
101444,97544
101436,97575
101460,97509
101472,97526
101522,97560
101534,97577
101618,97611
101576,97625
101550,97534
101663,97630
101672,97668
101696,97645
101704,97622
101720,97622
101754,97651
101804,97684
101840,97662
101836,97682
101802,97656
101913,97733
101941,97751
101965,97761
101962,97754
101906,97705
102002,97784
102034,97821
102018,97802
102009,97777
102015,97771
102052,97755
102099,97823
102107,97832
102072,97807
102047,97756
102119,97793
102166,97838
102131,97824
102136,97840
102059,97804
102176,97825
102172,97850
102165,97854
102145,97833
102065,97797
102158,97842
102201,97886
102149,97865
102163,97842
102120,97807
102159,97832
102193,97860
102152,97883
102148,97851
102118,97800
102195,97865
102173,97880
102214,97848
102165,97899
102153,97825
102223,97866
102244,97872
102216,97913
102212,97833
102206,97845
102224,97856
102285,97889
102266,97900
102248,97880
102212,97838
102246,97900
102299,97897
102307,97917
102253,97879
102246,97845
102302,97920
102331,97917
102337,97911
102283,97898
102285,97862
102336,97959
102336,97936
102363,97927
102301,97897
102309,97893
102377,97927
102384,97938
102381,97962
102378,97903
102351,97925
102438,97950
102439,97985
102433,97998
102427,97963
102406,97952
102464,97991
102508,98022
102475,97956
102477,97960
102460,97962
102531,97988
102516,98054
102527,98008
102497,97990
102548,97966
102559,98054
102603,98042
102591,98048
102570,98004
102540,98022
102621,98040
102655,98079
102590,98038
102556,97982
102550,98004
102592,98040
102530,98028
102420,97920
102297,97872
102204,97822
102057,97771
101898,97685
101649,97548
101402,97423
101110,97341
100888,97245
100653,97146
100440,97042
100245,96906
100129,96905
99998,96826
99901,96835
99808,96752
99682,96731
99597,96646
99615,96728
99543,96688
99539,96674
99469,96633
99461,96642
99524,96697
99471,96657
99508,96659
99527,96675
99567,96676
99636,96726
99648,96749
99704,96772
99708,96753
99793,96773
99899,96849
99939,96871
100021,96920
100015,96882
100133,96898
100205,96947
100255,96996
100291,97018
100270,96978
100413,97012
100456,97085
100493,97106
100487,97089
100518,97098
100540,97121
100634,97163
100636,97154
100653,97123
100624,97119
100643,97143
100722,97189
100750,97194
100707,97199
100713,97149
100720,97194
100810,97213
100774,97208
100856,97225
100844,97207
100925,97259
100982,97273
101012,97298
101051,97357
101060,97320
101180,97351
101255,97426
101328,97417
101321,97431
101335,97391
101402,97475
101432,97489
101433,97486
101476,97509
101421,97443
101425,97497
101475,97490
101459,97492
101424,97499
101384,97432
101453,97442
101439,97515
101381,97470
101372,97480
101371,97399
101409,97449
101396,97484
101348,97429
101387,97454
101258,97397
101324,97435
101376,97439
101345,97462
101308,97393
101271,97426
101316,97411
101370,97450
101346,97458
101381,97454
101338,97429
101377,97465
101454,97489
101429,97480
101482,97499
101411,97461
101518,97478
101558,97558
101569,97513
101568,97508
101602,97512
101652,97569
101679,97602
101699,97569
101721,97605
101716,97577
101784,97636
101813,97639
101831,97637
101822,97629
101819,97627
101894,97655
101909,97665
101941,97685
101928,97656
101922,97652
102002,97718
102040,97734
101987,97705
102041,97742
101991,97687
102081,97765
102106,97757
102109,97777
102087,97726
102099,97738
102126,97795
102176,97773
102179,97774
102164,97799
102149,97769
102205,97836
102243,97825
102239,97817
102200,97809
102185,97788
102293,97842
102274,97884
102251,97808
102266,97854
102254,97814
102280,97844
102314,97883
102305,97859
102287,97854
102253,97809
102350,97901
102374,97896
102335,97890
102320,97842
102321,97836
102330,97894
102370,97914
102354,97904
102338,97841
102359,97862
102361,97898
102396,97916
102371,97876
102347,97888
102380,97858
102402,97890
102424,97917
102385,97908
102356,97859
102387,97879
102415,97894
102423,97934
102425,97888
102370,97899
102413,97868
102421,97933
102437,97929
102471,97915
102416,97940
102432,97875
102517,97948
102499,97980
102475,97926
102486,97918
102451,97917
102526,97951
102521,97937
102520,97920
102482,97938
102493,97913
102530,97992
102557,97948
102535,97957
102488,97937
102542,97945
102564,97973
102606,97977
102566,97964
102566,97967
102587,97964
102598,97990
102632,97993
102576,97988
102615,97984
102612,97988
102671,98052
102686,98032
102640,98001
102630,97988
102647,98000
102718,98027
102703,98049
102698,98036
102714,97991
102717,98005
102766,98057
102764,98070
102747,98042
102705,98006
102772,98072
102825,98077
102774,98078
102789,98045
102782,98034
102788,98084
102834,98059
102842,98077
102777,98096
102792,98031
102804,98095
102870,98108
102826,98112
102856,98071
102829,98054
102836,98105
102900,98112
102860,98108
102852,98092
102845,98064
102861,98118
102911,98098
102948,98142
102912,98119
102883,98118
102948,98123
102965,98148
102971,98156
102923,98133
102923,98070
102977,98147
102975,98141
102990,98136
102975,98162
102894,98117
102972,98122
102927,98150
102908,98111
102833,98075
102712,97995
102630,97988
102562,97942
102376,97857
102239,97772
101977,97659
101836,97570
101580,97472
101326,97336
101073,97252
100799,97133
100680,97099
100530,97015
100391,96944
100246,96934
100072,96809
100091,96802
100014,96836
99950,96779
99929,96756
99825,96738
99875,96735
99922,96795
99892,96739
99910,96771
99855,96762
99942,96756
100004,96861
100018,96846
100076,96854
100071,96870
100162,96869
100268,96968
100306,96944
100340,96971
100399,96962
100545,97003
100582,97085
100666,97121
100698,97129
100761,97108
100847,97182
100934,97213
100960,97221
101004,97268
100992,97205
101157,97299
101180,97333
101170,97293
101214,97331
101197,97290
101312,97357
101299,97401
101321,97365
101337,97373
101317,97345
101329,97399
101376,97424
101405,97423
101375,97398
101384,97396
101479,97455
101505,97467
101527,97456
101517,97502
101540,97431
101665,97543
101721,97559
101724,97571
101750,97559
101762,97531
101830,97623
101900,97616
101846,97599
101845,97611
101810,97582
101896,97610
101893,97619
101884,97622
101845,97578
101875,97580
101862,97646
101912,97624
101853,97609
101839,97616
101797,97572
101887,97618
101867,97613
101805,97598
101827,97576
101805,97560
101833,97590
101856,97622
101817,97561
101789,97589
101761,97545
101817,97584
101814,97582
101816,97619
101759,97532
101797,97543
101832,97588
101807,97600
101843,97606
101805,97527
101830,97564
101838,97615
101915,97643
101877,97636
101886,97623
101867,97599
101943,97649
102003,97659
101972,97657
101945,97655
102017,97653
101998,97665
102121,97724
102076,97730
102053,97681
102106,97719
102156,97757
102170,97760
102165,97712
102134,97732
102197,97750
102229,97768
102278,97799
102219,97772
102247,97787
102239,97781
102314,97791
102307,97817
102326,97834
102333,97786
102354,97814
102371,97836
102430,97892
102362,97850
102402,97847
102437,97851
102446,97874
102501,97903
102495,97901
102485,97850
102499,97896
102559,97911
102546,97926
102524,97882
102497,97877
102554,97909
102581,97965
102576,97949
102581,97914
102531,97931
102568,97924
102602,97940
102617,97977
102606,97922
102575,97931
102636,97908
102666,97946
102661,97982
102645,97951
102624,97938
102627,97938
102700,98002
102686,97962
102711,97994
102645,97914
102686,97973
102741,98030
102694,97981
102664,97982
102670,97967
102686,97961
102706,98011
102709,97978
102730,97994
102680,97960
102712,97980
102723,98003
102756,97980
102729,98015
102685,97938
102737,97994
102781,98053
102753,98007
102754,97993
102751,97968
102736,97973
102820,98009
102812,97980
102754,98013
102764,97984
102780,98015
102864,98038
102834,98065
102769,98030
102764,97975
102835,98068
102861,98021
102849,98074
102832,98014
102770,97994
102859,98042
102860,98050
102860,98067
102831,98049
102810,98004
102860,98038
102919,98084
102904,98058
102904,98073
102826,98028
102914,98094
102934,98091
102930,98097
102894,98053
102900,98054
102947,98111
103007,98138
102956,98099
102967,98069
102941,98080
102959,98130
103015,98113
102988,98103
102997,98078
102920,98033
103030,98109
103004,98151
103009,98104
102997,98107
102950,98069
102998,98104
103047,98158
103027,98120
103042,98145
103005,98092
103072,98138
103036,98150
103058,98122
103050,98138
102998,98059
103089,98152
103107,98154
103095,98169
103061,98112
103059,98135
103096,98172
103141,98148
103124,98156
103105,98176
103089,98137
103172,98154
103130,98220
103106,98160
103131,98175
103091,98115
103118,98163
103070,98107
102997,98083
102902,98057
102758,97961
102691,97954
102526,97853
102414,97800
102188,97690
102041,97568
101899,97556
101701,97459
101466,97403
101243,97221
101055,97197
100943,97125
100812,97136
100686,97007
100586,96989
100477,96929
100488,96941
100398,96921
100367,96920
100359,96875
100299,96900
100356,96885
100371,96959
100410,96941
100360,96916
100471,96955
100543,96970
100620,97067
100627,97027
100697,97047
100766,97069
100833,97125
100947,97178
101003,97218
101028,97157
101115,97230
101171,97307
101279,97285
101303,97317
101293,97298
101414,97334
101490,97426
101532,97400
101590,97465
101580,97396
101634,97468
101707,97470
101785,97522
101762,97512
101799,97521
101812,97523
101851,97549
101932,97602
101896,97586
101865,97543
101912,97551
102009,97627
101972,97633
101965,97592
101932,97558
101990,97593
102062,97658
102049,97639
102107,97674
102090,97630
102111,97652
102175,97714
102218,97696
102221,97720
102166,97676
102245,97721
102243,97726
102276,97761
102229,97733
102205,97707
102233,97706
102287,97766
102261,97733
102239,97732
102212,97692
102225,97715
102249,97731
102224,97724
102233,97710
102168,97659
102227,97686
102219,97749
102207,97690
102203,97713
102148,97686
102189,97684
102232,97692
102207,97746
102164,97665
102151,97680
102199,97696
102237,97705
102205,97687
102228,97692
102149,97680
102235,97699
102249,97739
102259,97699
102261,97745
102228,97652
102282,97729
102302,97722
102278,97722
102311,97733
102255,97687
102362,97755
102359,97802
102382,97810
102367,97779
102356,97723
102397,97757
102451,97831
102452,97820
102414,97828
102444,97775
102470,97807
102522,97872
102502,97859
102558,97864
102502,97792
102554,97864
102621,97884
102573,97877
102582,97879
102562,97855
102654,97893
102688,97918
102639,97898
102659,97898
102635,97866
102712,97932
102731,97962
102711,97920
102683,97926
102680,97909
102739,97919
102769,97993
102765,97947
102745,97930
102694,97919
102776,97929
102829,98015
102795,97974
102808,97958
102771,97931
102843,97959
102842,98025
102812,97983
102842,97956
102784,97921
102882,97960
102859,98001
102856,97998
102840,97982
102860,97943
102902,98007
102923,97999
102878,97996
102910,97990
102858,97994
102887,97991
102947,98041
102909,98008
102883,98004
102834,97993
102910,97977
102968,98074
102908,98015
102918,98006
102873,97988
102968,98031
102959,98056
102960,98036
102933,98003
102894,98020
102958,98037
102997,98049
102963,98052
102948,98034
102966,98016
102964,98045
103017,98054
102997,98037
102963,98055
102984,98019
103018,98059
103061,98084
103010,98085
103010,98015
102976,98031
103080,98071
103044,98119
103027,98079
103019,98038
103043,98046
103052,98074
103115,98116
103033,98063
103076,98045
103032,98025
103128,98098
103072,98141
103078,98070
103082,98078
103073,98071
103120,98094
103147,98093
103122,98107
103058,98102
103128,98097
103134,98108
103138,98119
103137,98086
103089,98110
103123,98085
103136,98152
103155,98126
103147,98134
103110,98089
103155,98125
103171,98168
103216,98158
103214,98148
103148,98135
103156,98119
103215,98125
103216,98187
103205,98126
103186,98135
103204,98164
103240,98154
103281,98185
103224,98189
103207,98131
103193,98124
103163,98142
103118,98138
103017,98061
102937,97978
102836,97929
102689,97914
102598,97838
102440,97755
102283,97650
102164,97617
101994,97575
101818,97475
101647,97401
101451,97257
101299,97264
101189,97191
101128,97150
100990,97129
100858,97032
100865,97022
100819,97071
100798,96999
100724,97030
100692,96967
100733,97019
100748,97033
100806,97060
100763,97047
100760,97026
100859,97081
100954,97101
100975,97139
101016,97163
101074,97158
101178,97222
101297,97256
101334,97296
101408,97277
101427,97326
101516,97351
101601,97402
101660,97398
101745,97431
101678,97445
101813,97455
101858,97525
101908,97505
101878,97525
101884,97493
101983,97552
101985,97598
102069,97583
102038,97566
101983,97539
102084,97608
102083,97613
102127,97653
102101,97643
102098,97549
102162,97615
102206,97668
102173,97654
102166,97674
102177,97596
102216,97678
102284,97678
102279,97718
102280,97708
102243,97633
102319,97713
102348,97740
102316,97747
102341,97750
102290,97668
102398,97741
102364,97769
102383,97740
102346,97718
102284,97676
102370,97708
102371,97786
102380,97723
102308,97720
102274,97670
102318,97719
102340,97730
102344,97730
102308,97699
102287,97691
102324,97711
102341,97707
102324,97714
102264,97697
102247,97670
102323,97709
102299,97707
102296,97703
102269,97709
102265,97655
102295,97725
102332,97711
102270,97695
102272,97680
102255,97676
102305,97717
102332,97714
102336,97728
102315,97717
102310,97672
102346,97715
102398,97753
102375,97735
102347,97733
102347,97710
102383,97739
102455,97774
102427,97754
102403,97746
102394,97748
102472,97773
102531,97812
102495,97791
102438,97766
102479,97777
102540,97798
102561,97837
102531,97831
102518,97839
102523,97771
102605,97829
102565,97855
102573,97816
102570,97827
102588,97808
102633,97867
102657,97896
102664,97873
102631,97865
102623,97839
102696,97905
102695,97864
102688,97898
102709,97864
102701,97836
102772,97930
102750,97905
102767,97932
102750,97896
102749,97911
102790,97940
102793,97933
102767,97930
102771,97895
102749,97887
102845,97949
102800,97980
102813,97953
102790,97913
102814,97926
102867,97955
102861,97980
102843,97987
102806,97913
102857,97975
102901,97990
102930,97989
102898,97999
102835,97929
102877,97974
102907,97991
102967,97988
102886,97991
102882,97964
102870,97937
102956,97991
102940,98007
102913,97983
102921,97978
102935,98001
102963,98027
102988,98035
102946,97988
102920,98009
102937,97977
102997,98026
103004,98020
103006,98015
102943,98011
102981,97976
103022,98039
103034,98044
103007,98045
102957,97991
103027,98017
103044,98074
103072,98047
103066,98037
103024,97996
103037,98032
103068,98066
103112,98081
103094,98059
103052,98028
103063,98072
103106,98045
103137,98111
103097,98055
103043,98044
103125,98053
103140,98097
103145,98068
103135,98084
103117,98077
103134,98058
103193,98090
103134,98105
103124,98065
103122,98087
103136,98054
103169,98125
103150,98107
103137,98116
103118,98034
103147,98112
103160,98093
103177,98139
103126,98094
103141,98087
103199,98092
103203,98133
103188,98089
103180,98128
103152,98077
103206,98134
103255,98131
103223,98107
103236,98121
103213,98080
103231,98131
103289,98169
103269,98158
103219,98182
103208,98075
103290,98184
103298,98187
103266,98150
103299,98140
103259,98138
103291,98134
103345,98176
103327,98150
103331,98167
103253,98125
103333,98176
103322,98195
103262,98112
103207,98101
103067,98008
103057,98038
102976,97983
102758,97879
102638,97800
102452,97739
102407,97697
102240,97615
102086,97546
101907,97474
101646,97355
101571,97327
101416,97258
101266,97197
101124,97094
100970,97076
100945,97047
100901,97032
100806,97008
100756,96990
100709,96910
100727,96992
100716,96983
100706,96997
100691,96948
100702,96979
100784,96983
100787,97032
100824,97017
100867,97032
100853,97016
100997,97062
101080,97157
101095,97124
101178,97156
101173,97159
101303,97261
101368,97246
101468,97312
101444,97283
101485,97323
101629,97372
101656,97393
101732,97417
101706,97418
101772,97367
101868,97466
101883,97484
101890,97536
101889,97452
101917,97496
102005,97530
102010,97527
101956,97540
101983,97518
101951,97529
102046,97532
102044,97579
102044,97543
102056,97561
102038,97525
102112,97598
102142,97603
102113,97598
102119,97587
102138,97584
102217,97639
102257,97671
102240,97655
102255,97637
102222,97630
102309,97686
102322,97681
102312,97689
102281,97652
102287,97656
102314,97688
102319,97702
102283,97676
102280,97661
102249,97643
102314,97681
102315,97671
102297,97649
102237,97638
102243,97637
102290,97650
102334,97700
102299,97652
102260,97637
102236,97633
102305,97644
102300,97693
102280,97631
102229,97620
102234,97635
102259,97686
102276,97627
102245,97646
102246,97604
102243,97638
102300,97681
102296,97672
102297,97675
102248,97617
102299,97666
102350,97701
102351,97680
102354,97676
102304,97688
102329,97636
102389,97682
102391,97694
102408,97721
102351,97691
102418,97681
102479,97747
102457,97760
102440,97723
102483,97695
102463,97768
102518,97764
102532,97757
102518,97766
102509,97712
102529,97773
102563,97802
102615,97820
102574,97804
102580,97770
102620,97756
102663,97845
102645,97824
102665,97819
102615,97810
102659,97784
102707,97838
102705,97847
102747,97853
102663,97851
102760,97836
102770,97905
102784,97897
102753,97888
102720,97843
102817,97922
102837,97927
102836,97918
102804,97880
102832,97877
102823,97897
102873,97928
102864,97955
102872,97928
102861,97918
102912,97904
102960,97983
102921,97959
102939,97950
102886,97922
102918,97918
102980,97978
102989,97977
102937,97967
102915,97925
102988,97989
102996,97992
102986,97954
103019,97974
102936,97951
103017,97957
103057,98025
103010,98013
103010,97959
102996,97978
103044,97947
103071,98003
103027,97980
103035,97984
102990,97973
103042,98006
103081,98009
103073,98035
103051,97971
103012,97975
103086,98027
103099,98048
103076,98000
103071,98037
103034,97951
103100,98044
103124,98056
103137,98007
103114,98042
103045,97974
103111,98051
103142,98060
103153,98024
103143,98054
103064,97979
103150,98057
103168,98064
103147,98034
103181,98054
103078,98029
103195,98032
103202,98119
103174,98074
103165,98060
103166,98019
103160,98050
103260,98084
103180,98104
103177,98049
103181,98006
103263,98095
103212,98123
103243,98053
103233,98098
103215,98049
103270,98068
103290,98092
103244,98113
103236,98053
103257,98065
103275,98087
103305,98118
103272,98112
103295,98118
103262,98054
103322,98124
103325,98147
103293,98122
103291,98120
103309,98079
103339,98114
103397,98131
103357,98137
103366,98146
103333,98105
103385,98185
103401,98163
103426,98147
103400,98137
103417,98135
103455,98187
103462,98203
103448,98153
103425,98181
103396,98165
103457,98182
103478,98220
103434,98176
103432,98149
103392,98109
103380,98149
103302,98139
103188,98002
103071,97953
102901,97894
102815,97845
102706,97812
102591,97715
102459,97645
102322,97600
102211,97589
102108,97483
102003,97492
101843,97400
101795,97361
101684,97299
101644,97294
101457,97262
101345,97180
101352,97168
101329,97167
101319,97174
101251,97111
101261,97128
101229,97136
101279,97201
101301,97193
101336,97158
101343,97191
101348,97180
101491,97248
101497,97260
101560,97301
101565,97285
101693,97300
101749,97390
101805,97369
101860,97404
101900,97423
101960,97435
102037,97534
102041,97487
102102,97548
102078,97533
102185,97534
102229,97596
102201,97585
102253,97607
102229,97561
102271,97581
102292,97640
102324,97590
102302,97645
102271,97566
102325,97629
102385,97658
102375,97655
102332,97625
102332,97606
102350,97660
102415,97668
102404,97664
102386,97648
102371,97616
102420,97689
102466,97669
102502,97696
102488,97691
102451,97685
102492,97697
102539,97738
102571,97732
102562,97733
102518,97725
102605,97725
102594,97770
102585,97716
102599,97767
102542,97717
102541,97738
102598,97779
102559,97746
102524,97735
102488,97681
102566,97713
102560,97738
102559,97747
102523,97689
102495,97698
102504,97689
102549,97721
102521,97723
102509,97696
102472,97671
102484,97674
102505,97741
102472,97705
102472,97699
102426,97654
102463,97713
102497,97682
102473,97717
102506,97694
102438,97663
102471,97663
102520,97710
102477,97735
102497,97671
102458,97695
102459,97715
102528,97729
102556,97751
102546,97704
102508,97706
102590,97762
102613,97773
102585,97738
102596,97774
102558,97696
102666,97792
102700,97763
102667,97783
102709,97799
102635,97754
102758,97840
102739,97814
102777,97825
102731,97823
102738,97803
102776,97831
102828,97839
102800,97871
102782,97867
102751,97820
102855,97861
102880,97882
102850,97895
102872,97829
102845,97867
102876,97888
102917,97879
102916,97916
102896,97867
102912,97898
102950,97889
102973,97966
102972,97905
102953,97906
102885,97892
102988,97936
103033,97959
102952,97940
102984,97922
102945,97927
103021,97913
103047,97948
102986,97940
103026,97927
102992,97932
103039,97918
103083,97994
103047,97959
103005,97959
103016,97940
103099,97956
103074,98024
103050,97939
103061,97964
103042,97931
103055,97990
103052,97994
103077,97962
103062,97987
103029,97924
103082,98015
103096,97995
103066,97942
103104,97954
103056,97969
103111,97970
103126,97976
103094,97975
103109,97947
103061,97987
103127,97964
103125,98054
103109,98003
103068,97979
103110,97985
103122,97975
103196,98030
103121,98014
103098,97983
103129,97986
103148,98012
103169,98034
103147,98013
103095,97982
103122,97994
103178,98034
103158,98021
103215,98012
103098,97986
103151,97979
103182,98007
103196,98043
103146,98043
103160,97988
103154,98030
103191,98023
103210,98053
103175,98024
103178,98001
103182,98032
103231,98006
103224,98071
103200,98041
103178,98068
103171,97994
103274,98101
103239,98043
103217,98051
103231,98010
103251,98054
103254,98073
103314,98053
103284,98113
103246,98029
103299,98074
103302,98062
103310,98109
103283,98099
103232,98019
103276,98078
103297,98048
103248,98073
103191,98018
103087,97965
102971,97883
102922,97865
102774,97825
102625,97720
102500,97627
102360,97612
102304,97554
102168,97525
102023,97436
101806,97338
101724,97287
101591,97252
101448,97178
101357,97135
101193,97056
101168,97051
101156,97074
101081,97046
101018,97008
100969,96960
100976,97001
101043,97039
101004,97013
101013,97006
100991,96992
101041,97040
101123,97060
101160,97091
101216,97093
101201,97077
101314,97125
101362,97174
101425,97192
101474,97204
101496,97222
101602,97264
101642,97326
101709,97327
101744,97332
101771,97345
101853,97386
101914,97439
101927,97386
102000,97445
101978,97419
102018,97449
102087,97533
102067,97464
102111,97516
102063,97463
102108,97502
102167,97549
102134,97533
102178,97509
102126,97507
102193,97532
102260,97548
102214,97538
102196,97554
102203,97503
102258,97562
102327,97574
102318,97628
102311,97575
102305,97571
102363,97623
102434,97635
102372,97655
102420,97627
102367,97625
102456,97650
102471,97700
102434,97642
102446,97670
102380,97608
102450,97634
102490,97670
102438,97678
102432,97610
102406,97595
102431,97677
102443,97647
102424,97660
102453,97641
102371,97609
102461,97636
102476,97643
102482,97672
102413,97636
102419,97623
102485,97691
102491,97700
102426,97644
102468,97671
102438,97605
102488,97616
102531,97708
102467,97672
102478,97635
102419,97633
102511,97693
102559,97686
102535,97680
102531,97685
102477,97664
102586,97715
102629,97696
102596,97727
102603,97702
102588,97711
102665,97761
102663,97743
102651,97764
102644,97736
102654,97752
102708,97767
102721,97801
102737,97784
102705,97748
102727,97747
102795,97809
102797,97825
102823,97798
102781,97825
102792,97809
102865,97861
102882,97876
102884,97857
102851,97816
102829,97829
102919,97871
102927,97880
102900,97869
102881,97855
102905,97870
102990,97908
102941,97910
102936,97888
102933,97878
102945,97860
102990,97921
103009,97916
103011,97898
102962,97880
102994,97908
103049,97932
103020,97944
103020,97915
103018,97926
103012,97924
103103,97956
103064,97948
103053,97960
103026,97894
103049,97922
103060,97974
103075,97936
103062,97937
103065,97941
103042,97919
103141,97958
103100,98005
103087,97946
103077,97945
103071,97944
103137,97946
103164,97981
103058,97994
103076,97942
103090,97964
103116,97971
103134,97958
103101,97997
103076,97925
103100,97978
103114,98014
103107,97944
103129,97982
103086,97916
103107,97957
103149,98004
103147,97980
103098,97970
103084,97967
103077,97958
103151,98005
103139,98001
103107,97982
103083,97959
103124,97972
103158,97989
103144,97960
103174,98010
103126,97953
103138,97967
103189,98005
103161,97973
103172,98006
103109,97936
103158,97990
103196,97998
103198,97995
103150,97987
103119,98006
103179,98013
103178,98012
103215,97991
103163,98034
103171,97968
103174,97999
103250,98060
103215,98037
103215,98029
103177,97984
103241,98005
103229,98059
103240,98054
103239,98035
103215,97990
103242,98023
103275,98046
103277,98057
103268,98046
103226,97985
103299,98033
103312,98069
103314,98046
103293,98057
103252,97996
103323,98060
103361,98092
103333,98081
103339,98076
103301,98027
103348,98062
103410,98110
103378,98083
103360,98070
103341,98049
103362,98083
103415,98103
103389,98096
103368,98073
103319,98041
103347,98060
103266,98033
103181,97989
103057,97914
102902,97820
102813,97795
102694,97728
102531,97651
102405,97591
102235,97476
102171,97467
102070,97427
101874,97342
101721,97280
101562,97188
101501,97180
101401,97139
101292,97092
101195,97055
101093,96991
101083,97020
101064,97001
100998,96969
100984,96956
100932,96933
101013,96969
101039,96980
101011,96986
101012,96988
101014,96972
101125,97016
101193,97071
101222,97080
101247,97087
101281,97096
101368,97138
101485,97187
101508,97197
101552,97203
101565,97215
101694,97288
101783,97319
101793,97336
101839,97340
101822,97355
101928,97396
101938,97407
101990,97416
101995,97426
101965,97384
102062,97429
102059,97449
102086,97473
102085,97442
102036,97431
102146,97504
102138,97505
102135,97494
102083,97471
102129,97445
102156,97492
102190,97527
102154,97488
102175,97453
102141,97492
102262,97550
102230,97577
102235,97508
102228,97552
102237,97529
102368,97571
102325,97614
102311,97543
102337,97584
102314,97555
102367,97596
102405,97623
102336,97602
102347,97555
102344,97569
102381,97595
102389,97588
102328,97578
102328,97579
102347,97543
102377,97621
102375,97598
102346,97577
102280,97563
102360,97555
102367,97597
102331,97569
102309,97604
102304,97533
102335,97557
102318,97613
102318,97573
102346,97546
102288,97549
102320,97554
102334,97583
102371,97575
102359,97617
102314,97511
102341,97583
102381,97584
102394,97636
102369,97584
102394,97587
102405,97581
102445,97610
102454,97630
102445,97627
102431,97561
102466,97630
102483,97639
102498,97660
102522,97653
102443,97584
102512,97639
102560,97689
102589,97661
102529,97686
102506,97626
102561,97676
102617,97689
102603,97723
102585,97688
102594,97637
102628,97707
102685,97764
102678,97713
102675,97733
102603,97680
102679,97727
102707,97737
102731,97752
102707,97757
102698,97744
102739,97762
102781,97778
102763,97792
102752,97788
102732,97717
102796,97764
102807,97814
102791,97765
102840,97800
102750,97738
102843,97797
102865,97844
102831,97808
102826,97822
102844,97777
102837,97815
102889,97831
102904,97839
102881,97835
102872,97772
102908,97828
102930,97877
102908,97828
102919,97835
102831,97752
102895,97820
102941,97856
102949,97859
102967,97842
102865,97838
102955,97843
102974,97858
102976,97852
102933,97880
102890,97813
103001,97844
102998,97879
102969,97858
103022,97876
102910,97803
103011,97876
103027,97908
102998,97852
102983,97842
102953,97861
103002,97870
103068,97883
103042,97910
102985,97864
103024,97869
103029,97889
103076,97937
103062,97911
103034,97858
103046,97877
103084,97909
103128,97942
103135,97901
103070,97914
103083,97875
103132,97919
103109,97931
103119,97898
103101,97939
103123,97871
103153,97922
103190,97973
103140,97954
103136,97914
103062,97908
103155,97950
103231,97977
103167,97967
103113,97933
103168,97931
103194,97940
103231,97965
103141,97976
103168,97900
103158,97926
103226,97979
103233,98020
103177,97945
103224,97965
103162,97911
103251,97991
103256,98012
103228,97951
103251,97983
103225,97938
103292,97988
103316,98008
103265,98027
103264,97955
103233,97980
103351,97994
103325,98021
103314,97991
103319,98007
103316,97958
103371,98033
103374,98035
103321,98006
103286,97996
103256,97935
103218,97965
103137,97952
103005,97827
102917,97798
102791,97692
102689,97672
102581,97641
102418,97551
102284,97455
102169,97416
102102,97408
102024,97348
101859,97304
101666,97173
101603,97165
101541,97160
101458,97137
101302,97067
101269,96991
101199,96990
101205,97019
101180,97000
101164,96959
101090,96982
101163,96991
101199,97019
101209,97012
101255,97046
101260,96992
101275,97049
101413,97121
101444,97111
101479,97161
101506,97135
101589,97132
101649,97241
101726,97277
101727,97245
101793,97253
101825,97288
101952,97315
101940,97370
101974,97336
102003,97364
102039,97360
102095,97404
102125,97403
102162,97391
102117,97392
102190,97413
102214,97454
102219,97447
102159,97448
102199,97442
102206,97422
102236,97461
102253,97508
102248,97451
102174,97410
102192,97453
102283,97479
102254,97515
102257,97459
102236,97476
102283,97510
102348,97528
102379,97545
102325,97523
102354,97496
102416,97538
102418,97544
102448,97561
102416,97569
102411,97548
102442,97577
102481,97581
102474,97573
102446,97593
102408,97509
102432,97544
102455,97593
102456,97561
102414,97564
102422,97508
102442,97533
102430,97557
102452,97585
102440,97524
102370,97528
102411,97542
102461,97577
102442,97582
102401,97544
102372,97533
102415,97557
102455,97577
102431,97557
102463,97577
102412,97531
102437,97548
102468,97608
102476,97555
102487,97567
102435,97516
102484,97602
102512,97585
102488,97625
102482,97585
102466,97579
102562,97580
102602,97669
102573,97604
102578,97627
102530,97584
102616,97620
102620,97652
102619,97657
102659,97618
102601,97607
102658,97642
102717,97667
102670,97677
102721,97670
102664,97641
102737,97688
102796,97718
102758,97707
102759,97705
102737,97685
102825,97726
102813,97765
102819,97740
102788,97720
102797,97692
102873,97749
102907,97812
102875,97742
102911,97726
102841,97750
102908,97758
102986,97783
102952,97779
102938,97783
102925,97731
102950,97812
103017,97823
102985,97790
102956,97774
102972,97765
103018,97845
103018,97794
102995,97813
103026,97817
102985,97783
103077,97846
103054,97848
103044,97839
103002,97821
103010,97826
103050,97848
103109,97845
103054,97831
103077,97833
103043,97797
103116,97838
103098,97869
103081,97891
103085,97845
103058,97811
103108,97854
103100,97879
103115,97859
103110,97876
103083,97803
103141,97882
103137,97895
103107,97844
103106,97864
103100,97812
103139,97877
103141,97870
103153,97870
103147,97874
103137,97829
103181,97890
103165,97890
103186,97853
103137,97867
103131,97832
103229,97909
103195,97933
103188,97866
103146,97880
103146,97849
103218,97878
103195,97899
103216,97892
103147,97878
103145,97880
103222,97920
103257,97901
103166,97879
103199,97860
103191,97901
103241,97895
103258,97959
103254,97905
103216,97897
103277,97893
103286,97961
103264,97894
103260,97937
103252,97916
103243,97939
103312,97950
103293,97964
103311,97964
103294,97910
103306,97955
103345,98001
103358,97976
103336,97978
103308,97918
103334,98000
103383,97965
103371,97966
103361,97962
103289,97920
103329,97966
103305,97989
103295,97917
103185,97873
103025,97771
102991,97760
102866,97754
102764,97628
102621,97578
102438,97523
102397,97455
102319,97478
102216,97385
102113,97342
101958,97264
101932,97236
101830,97235
101769,97193
101663,97167
101548,97101
101527,97060
101525,97100
101457,97100
101415,97037
101400,97034
101433,97055
101432,97050
101482,97103
101453,97076
101474,97053
101513,97082
101605,97160
101608,97175
101665,97170
101686,97140
101722,97213
101848,97220
101840,97294
101870,97272
101891,97214
102000,97320
102041,97327
102028,97325
102039,97338
102028,97339
102104,97369
102136,97379
102187,97416
102166,97391
102137,97362
102175,97402
102202,97431
102235,97455
102207,97420
102165,97411
102227,97396
102256,97451
102243,97408
102222,97447
102188,97416
102291,97417
102285,97485
102258,97450
102278,97435
102246,97446
102336,97453
102324,97488
102341,97502
102363,97487
102354,97442
102404,97543
102407,97528
102418,97521
102436,97510
102354,97472
102431,97533
102432,97533
102430,97535
102410,97512
102376,97481
102390,97512
102427,97520
102359,97501
102387,97496
102328,97478
102379,97476
102385,97527
102414,97514
102358,97484
102327,97434
102355,97528
102390,97518
102359,97510
102340,97461
102308,97450
102378,97519
102338,97492
102349,97500
102313,97473
102355,97482
102334,97486
102371,97473
102350,97505
102372,97467
102319,97474
102378,97483
102445,97540
102407,97475
102406,97501
102404,97472
102431,97569
102473,97549
102415,97506
102442,97523
102413,97526
102459,97520
102531,97592
102470,97552
102499,97559
102497,97513
102569,97589
102553,97583
102557,97605
102549,97560
102564,97546
102640,97631
102615,97596
102615,97645
102603,97598
102581,97608
102644,97614
102705,97648
102660,97627
102654,97621
102648,97609
102724,97671
102720,97680
102725,97682
102681,97631
102716,97606
102787,97672
102785,97695
102782,97713
102752,97654
102722,97678
102800,97669
102823,97719
102848,97720
102775,97684
102810,97644
102855,97747
102836,97755
102852,97710
102799,97685
102826,97740
102848,97705
102902,97745
102872,97693
102864,97729
102846,97735
102897,97728
102918,97780
102904,97723
102859,97725
102904,97746
102909,97744
102928,97760
102931,97755
102891,97713
102902,97758
102930,97777
102961,97772
102946,97743
102950,97714
102920,97773
102969,97765
102987,97792
102939,97759
102936,97766
102983,97749
102991,97803
102970,97760
103016,97792
102946,97762
102996,97759
103017,97820
102995,97773
103008,97799
102996,97762
103028,97772
103048,97830
103048,97825
103030,97790
102961,97769
103042,97822
103046,97794
103057,97821
103032,97797
102997,97780
103073,97799
103056,97824
103064,97805
103048,97785
103029,97795
103042,97849
103082,97833
103127,97818
103074,97788
103074,97792
103112,97821
103109,97870
103117,97828
103119,97829
103079,97798
103107,97843
103158,97841
103123,97882
103160,97839
103129,97803
103154,97862
103198,97901
103181,97843
103162,97911
103111,97804
103220,97853
103250,97922
103200,97864
103253,97870
103141,97887
103253,97882
103252,97913
103190,97890
103209,97879
103129,97815
103168,97855
103142,97823
103029,97795
102947,97709
102756,97628
102698,97627
102576,97552
102490,97493
102347,97422
102156,97315
102089,97299
101999,97259
101790,97175
101695,97121
101513,97045
101427,96989
101346,96998
101182,96924
101120,96871
100989,96819
101016,96856
100983,96827
100917,96777
100931,96802
100844,96789
100907,96814
100924,96843
100952,96822
100927,96798
100975,96827
101035,96859
101143,96909
101122,96887
101153,96923
101210,96943
101295,96986
101351,96994
101433,97058
101442,97023
101451,97039
101577,97127
101623,97116
101684,97147
101676,97141
101685,97116
101794,97228
101846,97196
101827,97234
101816,97204
101863,97228
101924,97247
101939,97270
101937,97258
101922,97253
101914,97237
101972,97267
101997,97284
101950,97266
101962,97265
101962,97253
101995,97290
102008,97321
102013,97302
102029,97281
102003,97260
102065,97318
102114,97342
102124,97356
102115,97339
102159,97342
102202,97376
102189,97391
102223,97377
102193,97361
102214,97373
102271,97421
102270,97422
102188,97425
102207,97345
102230,97383
102255,97388
102293,97406
102234,97390
102215,97373
102209,97362
102279,97408
102255,97427
102237,97360
102200,97369
102177,97374
102255,97396
102238,97406
102243,97380
102189,97373
102182,97414
102230,97366
102252,97407
102213,97390
102175,97376
102228,97386
102244,97397
102259,97423
102215,97361
102231,97359
102244,97406
102337,97430
102279,97431
102303,97416
102288,97390
102288,97413
102375,97470
102366,97446
102326,97452
102336,97423
102373,97446
102388,97488
102445,97467
102385,97475
102364,97450
102453,97489
102451,97488
102475,97521
102481,97485
102447,97488
102485,97515
102535,97525
102541,97581
102540,97535
102516,97519
102525,97527
102607,97538
102597,97594
102622,97530
102553,97549
102614,97547
102637,97588
102638,97582
102594,97563
102604,97560
102636,97581
102682,97659
102669,97576
102694,97629
102631,97569
102676,97609
102730,97645
102695,97605
102702,97648
102670,97592
102737,97618
102750,97678
102737,97625
102747,97670
102716,97601
102765,97666
102776,97662
102821,97648
102771,97642
102754,97634
102772,97646
102821,97680
102810,97635
102792,97695
102730,97619
102811,97678
102872,97683
102801,97675
102849,97661
102765,97662
102846,97665
102870,97697
102811,97670
102821,97696
102778,97619
102878,97707
102894,97693
102862,97697
102874,97701
102790,97675
102857,97670
102890,97734
102853,97705
102879,97689
102833,97658
102909,97674
102886,97706
102852,97728
102894,97687
102883,97694
102913,97679
102929,97742
102910,97743
102897,97683
102913,97686
102930,97686
102954,97751
102952,97765
102915,97682
102937,97692
102995,97750
103030,97754
102975,97732
102972,97768
102941,97693
103047,97774
103025,97772
103028,97742
102974,97738
102994,97727
103055,97746
103054,97804
103038,97769
103024,97721
103034,97764
103079,97800
103069,97794
103078,97773
103071,97788
103046,97741
103099,97783
103120,97784
103119,97838
103107,97776
103090,97809
103161,97826
103176,97823
103179,97842
103173,97779
103155,97835
103211,97839
103185,97859
103204,97843
103161,97810
103181,97800
103198,97872
103245,97888
103191,97828
103205,97829
103211,97819
103230,97861
103253,97857
103192,97825
103090,97790
103066,97751
102987,97711
102902,97651
102758,97622
102597,97492
102468,97449
102376,97424
102309,97348
102150,97327
101993,97203
101885,97168
101827,97125
101692,97115
101492,96984
101371,96927
101292,96900
101225,96875
101165,96852
101083,96817
100993,96797
100986,96738
101027,96821
101007,96822
101006,96758
100999,96771
101048,96800
101116,96819
101161,96895
101191,96887
101197,96856
101269,96924
101415,96973
101414,97008
101467,96965
101468,97003
101565,97023
101646,97062
101721,97116
101717,97108
101753,97118
101783,97157
101907,97188
101933,97198
101917,97232
101916,97166
101990,97248
102030,97233
102049,97270
102031,97291
101981,97198
102093,97264
102089,97303
102099,97292
102068,97265
102064,97261
102081,97270
102178,97349
102135,97293
102170,97334
102108,97267
102198,97316
102205,97350
102213,97328
