11111,11111
0,0
82296,81405
108296,103159
108330,103179
108358,103177
108292,103172
108338,103161
108332,103133
108363,103210
108378,103217
108389,103221
108368,103167
108389,103168
108391,103215
108420,103205
108394,103197
108418,103161
108420,103189
108408,103183
108478,103236
108421,103216
108453,103188
108410,103198
108474,103201
108493,103245
108448,103201
108441,103187
108454,103207
108479,103226
108556,103252
108508,103247
108500,103234
108499,103207
108506,103241
108595,103268
108537,103238
108587,103261
108541,103248
108580,103244
108664,103313
108634,103268
108605,103307
108546,103216
108654,103270
108600,103274
108580,103240
108510,103250
108400,103127
108360,103173
108295,103120
108196,103082
108084,103029
107991,102967
107952,103001
107853,102955
107811,102896
107722,102834
107616,102767
107603,102811
107522,102786
107509,102764
107426,102725
107320,102679
107366,102710
107331,102709
107275,102704
107229,102645
107152,102590
107191,102661
107190,102633
107158,102653
107158,102595
107125,102606
107165,102618
107193,102634
107168,102594
107167,102607
107135,102612
107179,102651
107218,102638
107212,102661
107169,102645
107185,102600
107225,102683
107212,102668
107241,102666
107272,102670
107217,102630
107287,102704
107283,102675
107293,102715
107248,102695
107242,102628
107291,102706
107334,102693
107291,102681
107302,102670
107236,102643
107288,102687
107345,102719
107286,102699
107304,102674
107246,102692
107305,102667
107332,102677
107273,102705
107285,102653
107291,102687
107289,102703
107328,102686
107300,102676
107320,102688
107286,102655
107373,102740
107334,102719
107336,102730
107328,102706
107324,102717
107400,102721
107458,102759
107400,102725
107408,102709
107401,102721
107472,102729
107452,102765
107371,102695
107651,102819
107665,102835
107750,102842
107841,102891
107828,102880
107921,102928
107938,102901
107991,102974
108009,102961
108210,103032
108146,103023
108183,102999
108158,103016
108213,103041
108243,103091
108211,103039
108208,103038
108204,103049
108245,103038
108302,103106
108279,103070
108253,103076
108259,103045
108353,103106
108310,103104
108347,103119
108305,103095
108340,103055
108378,103118
108424,103143
108386,103135
108347,103070
108359,103115
108408,103133
108460,103138
108438,103108
108386,103154
108379,103081
108417,103112
108348,103091
108328,103070
108224,103060
108163,102967
108127,102983
108075,102950
107941,102887
107861,102846
107798,102815
107722,102790
107663,102767
107567,102728
107485,102666
107407,102633
107350,102630
107349,102627
107260,102555
107201,102554
107167,102531
107146,102558
107079,102525
107065,102508
107014,102455
106944,102455
107023,102463
106976,102486
106958,102451
106907,102439
106923,102437
106953,102475
106985,102446
106943,102457
106948,102453
106921,102434
106985,102476
106980,102497
106979,102489
106965,102457
106953,102442
107025,102511
107035,102537
106991,102511
107012,102456
107010,102501
107068,102516
107040,102559
107048,102486
107055,102473
107033,102453
107083,102530
107083,102507
107083,102515
107014,102505
107067,102477
107069,102519
107072,102543
107051,102493
107047,102482
107067,102480
107055,102512
107077,102503
107060,102515
107084,102495
107041,102501
107122,102550
107099,102550
107060,102527
107081,102500
107107,102500
107124,102558
107133,102511
107153,102536
107087,102546
107146,102502
107179,102547
107157,102561
107171,102537
107149,102557
107144,102523
107217,102580
107238,102573
107182,102562
107149,102548
107140,102526
107213,102539
107192,102580
107177,102546
107110,102505
107174,102532
107177,102575
107181,102524
107156,102547
107087,102506
107113,102494
107162,102549
107112,102511
107143,102540
107076,102493
107068,102499
107122,102539
107135,102539
107082,102530
107082,102463
107117,102500
107140,102537
107158,102531
107127,102546
107094,102471
107123,102526
107192,102533
107185,102542
107165,102558
107130,102509
107183,102546
107236,102603
107200,102600
107198,102568
107244,102543
107244,102578
107261,102607
107292,102604
107282,102618
107313,102582
107289,102571
107402,102654
107350,102625
107354,102641
107368,102616
107366,102621
107440,102665
107435,102671
107435,102672
107400,102622
107438,102657
107528,102695
107485,102703
107486,102698
107496,102654
107480,102698
107543,102671
107559,102714
107541,102726
107497,102685
107560,102699
107553,102748
107581,102726
107591,102731
107561,102715
107563,102663
107617,102739
107592,102721
107648,102709
107578,102716
107605,102719
107672,102729
107660,102764
107671,102724
107647,102739
107687,102718
107716,102793
107736,102773
107690,102782
107704,102757
107705,102726
107752,102805
107784,102814
107739,102818
107771,102762
107756,102848
107812,102812
107853,102845
107824,102804
107793,102834
107814,102801
107901,102868
107915,102889
107884,102864
107878,102801
107916,102886
107905,102868
107948,102904
107932,102871
107961,102877
107913,102860
107996,102936
108014,102884
108007,102907
107966,102899
107995,102857
108051,102938
108040,102935
108068,102947
108000,102892
108043,102939
108075,102969
108088,102968
108075,102937
108103,102967
108106,102929
108128,103000
108144,102985
108191,102985
108118,102920
108164,102972
108179,103016
108206,103023
108165,102974
108211,103009
108190,102991
108275,103040
108256,103024
108229,103010
108226,103009
108233,102998
108245,103046
108283,103067
108268,103037
108263,102991
108282,103024
108342,103070
108295,103022
108348,103045
108285,103057
108356,103072
108363,103079
108371,103059
108354,103050
108296,102999
108376,103042
108336,103059
108324,103021
108229,102969
108209,102985
108139,102938
108090,102940
107953,102868
107921,102820
107796,102771
107711,102760
107668,102707
107569,102691
107473,102651
107410,102567
107334,102590
107275,102534
107243,102552
107149,102479
107088,102462
107038,102458
107036,102466
107011,102443
106948,102421
106920,102382
106886,102399
106912,102399
106913,102369
106856,102396
106826,102326
106878,102354
106864,102374
106871,102395
106875,102366
106811,102364
106853,102363
106905,102422
106910,102419
106868,102412
106851,102371
106871,102363
106947,102439
106921,102387
106905,102413
106892,102361
106935,102402
106936,102462
106944,102407
106972,102419
106904,102359
106950,102427
106962,102465
106954,102401
106969,102439
106922,102377
106929,102406
106974,102456
106955,102417
106918,102404
106935,102404
106921,102391
106950,102439
106928,102407
106954,102414
106900,102372
106967,102396
106970,102425
106915,102409
106932,102426
106927,102384
106930,102416
106986,102423
106963,102448
106972,102436
106937,102381
106981,102405
107034,102468
107003,102433
107035,102455
106969,102449
107022,102451
107089,102488
107054,102449
107083,102452
107011,102445
107068,102456
107113,102463
107101,102471
107050,102488
107033,102419
107069,102472
107076,102468
107095,102448
107037,102485
107021,102353
107051,102447
107034,102435
106999,102438
107021,102432
106983,102368
107019,102427
107008,102411
107029,102429
106989,102406
106966,102355
107017,102402
107012,102412
107018,102405
107007,102417
106950,102331
107006,102383
107033,102401
107036,102393
107015,102427
107004,102362
107061,102411
107092,102424
107067,102443
107085,102389
107084,102415
107102,102411
107187,102448
107162,102438
107178,102478
107148,102417
107212,102475
107235,102488
107262,102507
107269,102478
107232,102475
107281,102482
107296,102502
107330,102499
107310,102483
107273,102473
107330,102484
107355,102518
107336,102522
107349,102527
107322,102464
107341,102524
107387,102527
107382,102517
107385,102535
107390,102504
107406,102532
107463,102556
107451,102536
107461,102584
107479,102531
107508,102598
107550,102606
107555,102595
107522,102609
107532,102600
107592,102604
107634,102658
107617,102661
107646,102607
107576,102652
107667,102648
107701,102707
107685,102668
107730,102708
107705,102652
107735,102704
107778,102748
107749,102721
107761,102717
107766,102723
107823,102728
107817,102761
107870,102754
107824,102798
107811,102723
107900,102801
107975,102844
107944,102842
107988,102841
107989,102856
108073,102932
108124,102938
108158,102942
108191,102987
108146,102955
108246,102997
108223,103047
108222,103012
108238,103023
108197,102957
108252,103043
108326,103108
108332,103087
108328,103159
108383,103143
108456,103224
108558,103353
108561,103390
108649,103445
108670,103497
108822,103648
108889,103747
108903,103833
108927,103889
108972,103956
109135,104102
109193,104214
109237,104267
109250,104338
109322,104430
109384,104548
109508,104622
109507,104684
109514,104762
109543,104767
109632,104856
109721,104978
109744,104997
109740,105041
109730,105052
109786,105088
109886,105175
109879,105161
109845,105175
109855,105154
109897,105264
109961,105242
109944,105279
109940,105280
109914,105228
109934,105273
109954,105273
109920,105275
109870,105247
109770,105178
109808,105190
109765,105174
109652,105134
109593,105100
109490,105016
109458,105020
109426,105021
109321,104961
109207,104907
109132,104857
109117,104853
109064,104845
108979,104807
108920,104765
108855,104723
108866,104717
108817,104741
108788,104690
108745,104650
108684,104614
108683,104641
108717,104634
108678,104608
108639,104613
108624,104544
108629,104615
108663,104574
108670,104586
108654,104562
108637,104549
108656,104567
108699,104620
108670,104588
108666,104568
108659,104532
108727,104565
108806,104608
108770,104599
108741,104549
108774,104547
108800,104623
108854,104610
108818,104620
108850,104606
108808,104548
108891,104607
108884,104633
108876,104608
108911,104612
108866,104595
108907,104610
108964,104672
108945,104649
108936,104623
108954,104608
108962,104687
109026,104641
109009,104683
109015,104641
108991,104620
109074,104698
109118,104717
109107,104717
109119,104677
109131,104689
109172,104752
109199,104745
109185,104718
109196,104727
109154,104723
109256,104752
109287,104791
109256,104752
109178,104728
109146,104690
109197,104753
109214,104720
109153,104703
109151,104720
109081,104669
109112,104717
109093,104672
109101,104657
109005,104662
108972,104621
109032,104639
109032,104666
108972,104636
108983,104606
108931,104575
108952,104634
108962,104610
108950,104613
108936,104598
108926,104595
108994,104657
108986,104639
109005,104608
108993,104643
108931,104614
109018,104649
109044,104713
109029,104675
109007,104627
109037,104637
109043,104691
109087,104690
109053,104679
109073,104701
109051,104626
109168,104722
109141,104715
109134,104685
109158,104728
109114,104680
109198,104724
109236,104748
109221,104774
109235,104725
109215,104710
109242,104742
109315,104807
109311,104796
109269,104733
109260,104747
109305,104815
109342,104806
109301,104750
109336,104791
109287,104739
109393,104790
109388,104813
109376,104788
109368,104766
109368,104799
109400,104773
109432,104823
109415,104806
109397,104804
109372,104756
109450,104835
109441,104816
109469,104821
109442,104838
109463,104789
109489,104850
109495,104858
109505,104879
109491,104834
109505,104825
109560,104877
109522,104880
109530,104854
109564,104890
109532,104848
109594,104883
109616,104881
109618,104909
109569,104900
109568,104857
109659,104917
109679,104894
109672,104906
109644,104939
109591,104923
109694,104941
109696,104948
109677,104940
109699,104922
109661,104933
109746,104956
109763,104986
109749,104966
109725,104947
109720,104944
109783,104961
109783,104969
109788,104973
109749,104938
109754,104970
109826,105008
109804,104974
109811,104978
109783,104974
109781,104945
109873,105019
109847,105000
109865,105018
109834,104982
109830,104977
109892,105043
109890,105050
109886,105028
109883,105049
109869,105007
109890,105071
109894,105032
109866,105029
109812,104983
109806,104940
109796,105002
109713,104935
109654,104906
109546,104853
109465,104787
109432,104805
109298,104758
109217,104679
109125,104642
109005,104584
108997,104591
108893,104572
108786,104503
108746,104480
108640,104432
108605,104436
108559,104407
108497,104350
108404,104364
108361,104269
108403,104356
108341,104307
108314,104296
108260,104261
108213,104221
108291,104282
108258,104264
108223,104257
108189,104244
108187,104199
108226,104255
108238,104250
108216,104227
108197,104258
108195,104217
108238,104264
108198,104248
108247,104250
108205,104237
108165,104208
108233,104238
108229,104251
108217,104277
108211,104210
108191,104236
108247,104245
108244,104227
108200,104226
108146,104211
108150,104179
108224,104241
108227,104267
108162,104220
108158,104192
108134,104213
108157,104209
108146,104224
108166,104208
108105,104193
108069,104139
108158,104226
108120,104178
108128,104185
108062,104152
108080,104168
108164,104208
108129,104210
108069,104149
108059,104144
108098,104158
108085,104203
108162,104177
108095,104160
108123,104167
108105,104159
108147,104180
108189,104210
108170,104223
108103,104182
108118,104146
108190,104218
108187,104234
108169,104228
108143,104174
108186,104150
108197,104245
108215,104225
108187,104203
108176,104192
108131,104198
108188,104196
108205,104234
108122,104172
108131,104174
108125,104144
108137,104174
108130,104173
108106,104170
108090,104137
108082,104143
108145,104153
108096,104169
108122,104128
108046,104139
108036,104087
108135,104141
108084,104152
108085,104117
108051,104109
108064,104063
108097,104123
108139,104172
108118,104169
108097,104081
108134,104091
108160,104142
108184,104158
108181,104182
108195,104141
108194,104123
108281,104172
108271,104194
108286,104169
108280,104167
108298,104174
108303,104205
108304,104177
108337,104234
108304,104169
108362,104207
108379,104226
108397,104203
108406,104267
108378,104200
108404,104185
108428,104259
108469,104261
108425,104262
108446,104210
108416,104265
108505,104274
108491,104265
108456,104262
108468,104242
108496,104232
108564,104290
108521,104292
108528,104276
108540,104286
108520,104269
108613,104316
108597,104338
108578,104278
108558,104275
108551,104292
108625,104332
108635,104317
108551,104307
108569,104286
108570,104282
108576,104304
108598,104254
108515,104225
108525,104171
108453,104136
108508,104151
108496,104129
108471,104123
108503,104105
108486,104131
108556,104133
108557,104165
108579,104141
108547,104119
108552,104162
108594,104164
108611,104194
108634,104197
108680,104202
108660,104222
108715,104252
108710,104233
108704,104192
108689,104177
108607,104151
108563,104100
108566,104079
108460,104027
108431,103997
108391,103980
108265,103913
108280,103878
108202,103879
108164,103838
108180,103793
108156,103828
108104,103832
108120,103811
108137,103815
108140,103861
108198,103885
108170,103861
108143,103867
108174,103858
108152,103922
108121,103848
108111,103886
108087,103844
108007,103850
107955,103770
107908,103775
107858,103737
107778,103677
107743,103677
107637,103633
107612,103631
107533,103584
107487,103559
107488,103541
107401,103521
107370,103497
107358,103501
107306,103502
107323,103462
107243,103445
107275,103472
107269,103456
107224,103474
107202,103452
107190,103467
107160,103449
107185,103402
107172,103452
107105,103444
107146,103405
107124,103416
107127,103408
107105,103375
107137,103401
107086,103404
107085,103385
107088,103399
107091,103366
107141,103414
107095,103382
107112,103390
107122,103417
107144,103401
107130,103410
107136,103402
107158,103395
107140,103428
107115,103392
107125,103404
107162,103417
107142,103438
107131,103395
107098,103394
107064,103367
107082,103366
107095,103381
107062,103359
107085,103357
107034,103380
107020,103309
107003,103334
107026,103309
106974,103304
107030,103303
106962,103303
106945,103289
106991,103302
106982,103281
106975,103290
106932,103308
106924,103272
106951,103313
106942,103286
106970,103296
106944,103287
106957,103302
106917,103270
106960,103283
106928,103293
106933,103271
106888,103271
106938,103241
106900,103283
106912,103243
106901,103296
106888,103285
106917,103261
106881,103288
106878,103237
106893,103279
106908,103267
106887,103234
106893,103267
106854,103270
106884,103239
106919,103245
106889,103250
106872,103292
106873,103263
106904,103290
106869,103261
106935,103261
106916,103258
106919,103283
106947,103301
106900,103264
106933,103257
106938,103295
106955,103297
106965,103310
106972,103303
106969,103266
106966,103326
106983,103274
107036,103322
107024,103308
107019,103307
107047,103312
107044,103297
107109,103353
107057,103343
107094,103312
107078,103317
107102,103309
107137,103336
107106,103357
107100,103351
107109,103330
107105,103309
107097,103346
107078,103300
107156,103332
107169,103341
107124,103338
107219,103377
107237,103402
107233,103360
107257,103436
107292,103412
107321,103446
107281,103444
107317,103461
107307,103424
107312,103437
107242,103379
107265,103356
107198,103374
107179,103335
107215,103330
107140,103347
107150,103333
107155,103331
107160,103323
107127,103344
107091,103299
107152,103331
107125,103323
107122,103382
107184,103403
107146,103421
107175,103394
107201,103453
107198,103431
107230,103427
107239,103440
107216,103464
107222,103432
107259,103468
107278,103476
107252,103435
107280,103489
107284,103453
107277,103462
107331,103507
107331,103474
107350,103496
107393,103479
107460,103541
107416,103596
107526,103577
107572,103628
107622,103640
107658,103691
107679,103675
107771,103764
107791,103733
107856,103792
107897,103800
107909,103834
107951,103829
108040,103874
108039,103870
108114,103925
108113,103941
108189,103932
108196,103980
108214,103978
108307,104023
108343,104044
108361,104061
108407,104101
108468,104078
108495,104161
108522,104129
108560,104175
108644,104185
108656,104231
108694,104252
108714,104210
108755,104301
108790,104301
108808,104313
108857,104306
108867,104379
108947,104367
108939,104384
108949,104388
109018,104418
109018,104390
109075,104449
109064,104446
109071,104442
109099,104461
109097,104497
109146,104454
109152,104510
109126,104451
109167,104506
109166,104471
109132,104509
109167,104465
109174,104524
109185,104491
109192,104510
109224,104480
109223,104494
109226,104511
109200,104502
109230,104502
109234,104507
109265,104525
109257,104512
109320,104524
109266,104565
109341,104537
109375,104577
109411,104574
109372,104559
109410,104548
109422,104603
109397,104563
109401,104569
109338,104532
109297,104528
109223,104463
109196,104452
109042,104344
108906,104312
108755,104237
108700,104191
108520,104117
108424,104062
108280,103997
108225,103953
108108,103908
108020,103864
107951,103853
107892,103831
107852,103789
107767,103769
107775,103771
107707,103720
107714,103757
107631,103768
107600,103723
107611,103708
107571,103719
107586,103708
107576,103725
107533,103703
107567,103699
107549,103743
107591,103730
107596,103706
107594,103756
107601,103768
107632,103733
107595,103753
107637,103762
107659,103760
107670,103770
107636,103757
107687,103804
107674,103794
107705,103779
107662,103807
107696,103784
107684,103822
107657,103754
107703,103814
107675,103809
107670,103805
107686,103781
107695,103817
107678,103778
107674,103797
107695,103776
107685,103796
107663,103803
107691,103789
107690,103820
107693,103801
107698,103833
107687,103809
107685,103824
107727,103811
107703,103846
107742,103836
107726,103810
107762,103835
107774,103857
107769,103818
107828,103859
107835,103895
107852,103912
107890,103896
107868,103902
107901,103904
107928,103931
107976,103946
107958,103940
107977,103963
107975,103963
108032,103948
107999,103996
108046,103968
108027,103951
108031,103986
108027,103991
108033,103958
107969,103948
107985,103950
108005,103950
107977,103929
108010,103971
107937,103924
107949,103940
107933,103919
107944,103962
107948,103952
107913,103936
107933,103929
107916,103929
107874,103912
107896,103889
107889,103905
107904,103920
107893,103928
107920,103886
107885,103934
107926,103895
107866,103919
107917,103910
107901,103966
107914,103928
107953,103946
107936,103912
108004,103950
107971,103985
107958,103970
108030,103998
108011,103977
108054,103983
108076,104008
108059,104007
108101,104017
108106,104020
108145,104056
108144,104030
108134,104039
108149,104062
108190,104058
108192,104064
108189,104064
108186,104066
108212,104091
108248,104075
108242,104094
108223,104108
108256,104065
108234,104088
108276,104083
108280,104101
108277,104103
108284,104102
108302,104103
108335,104105
108332,104150
108312,104113
108344,104141
108325,104094
108336,104127
108354,104126
108380,104150
108357,104146
108404,104146
108387,104148
108393,104137
108382,104170
108378,104134
108438,104150
108406,104151
108417,104173
108433,104149
108457,104169
108461,104181
108475,104185
108489,104185
108475,104177
108499,104199
108518,104211
108483,104205
108510,104179
108513,104232
108529,104245
108542,104227
108554,104212
108620,104211
108554,104268
108583,104228
108622,104247
108608,104255
108628,104227
108608,104277
108651,104261
108689,104254
108683,104294
108669,104287
108696,104311
108665,104264
108731,104307
108714,104296
108754,104275
108732,104291
108766,104304
108760,104281
108786,104324
108796,104320
108793,104302
108784,104327
108835,104334
108835,104320
108814,104337
108814,104326
108839,104339
108851,104332
108843,104331
108820,104343
108803,104295
108820,104327
108729,104321
108692,104268
108642,104249
108610,104210
108501,104154
108417,104151
108317,104067
108235,104083
108163,104022
108100,103957
107975,103969
107911,103896
107863,103883
107739,103816
107680,103814
107587,103804
107504,103736
107510,103683
107421,103698
107371,103687
107320,103633
107301,103655
107230,103577
107218,103608
107190,103591
107178,103604
107192,103569
107174,103571
107116,103561
107173,103586
107180,103581
107152,103581
107147,103593
107172,103568
107201,103574
107176,103615
107205,103574
107233,103586
107200,103621
107188,103580
107274,103624
107205,103590
107239,103591
107214,103583
107252,103609
107223,103590
107276,103626
107211,103655
107244,103613
107236,103627
107231,103588
107241,103629
107210,103588
107258,103632
107215,103611
107232,103600
107239,103626
107205,103621
107218,103585
107184,103583
107194,103577
107201,103616
107160,103563
107163,103598
107180,103592
107199,103581
107181,103616
107202,103587
107216,103576
107215,103600
107223,103586
107270,103629
107273,103615
107266,103625
107315,103652
107318,103628
107354,103709
107356,103652
107398,103684
107423,103722
107403,103704
107436,103713
107414,103688
107449,103732
107414,103713
107447,103710
107451,103740
107445,103725
107465,103723
107479,103755
107454,103714
107449,103705
107463,103705
107482,103738
107430,103743
107449,103689
107429,103721
107457,103731
107447,103713
107425,103670
107426,103723
107406,103672
107465,103733
107463,103736
107471,103704
107477,103727
107443,103704
107474,103767
107511,103734
107516,103744
107509,103714
107554,103761
107570,103750
107544,103787
107562,103748
107537,103787
107570,103781
107605,103762
107635,103806
107583,103799
107611,103787
107667,103808
107665,103791
107662,103805
107728,103839
107693,103807
107705,103843
107709,103831
107750,103813
107742,103840
107789,103869
107782,103818
107828,103878
107842,103875
107815,103880
107872,103898
107886,103925
107921,103876
107934,103951
107934,103929
107944,103982
107947,103931
108018,103978
108020,103986
108036,103958
108063,104009
108097,104005
108104,104023
108127,104043
108149,104003
108164,104074
108197,104071
108221,104082
108209,104110
108216,104101
108262,104103
108261,104100
108281,104125
108292,104127
108344,104131
108330,104164
108350,104133
108369,104161
108354,104159
108439,104210
108408,104203
108449,104171
108474,104235
108504,104223
108491,104236
108534,104258
108514,104243
108545,104242
108556,104251
108602,104264
108591,104299
108638,104307
108636,104298
108660,104314
108659,104345
108698,104359
108718,104342
108736,104379
108720,104352
108780,104377
108747,104379
108804,104379
108807,104399
108811,104424
108786,104381
108834,104425
108783,104426
108819,104431
108821,104424
108835,104428
108827,104423
108878,104412
108831,104449
108847,104397
108880,104437
108903,104465
108854,104438
108917,104422
108893,104464
108909,104442
108934,104425
108908,104434
108924,104433
108889,104434
108952,104453
108975,104459
108922,104459
108945,104426
108999,104453
108973,104477
108971,104460
108944,104440
108889,104407
108881,104414
108829,104359
108826,104384
108706,104329
108652,104257
108594,104245
108495,104239
108418,104197
108390,104148
108272,104124
108197,104064
108170,104056
108072,104016
108019,103968
107939,103986
107867,103910
107842,103884
107782,103867
107731,103853
107713,103864
107655,103845
107639,103778
107610,103797
107618,103819
107545,103784
107529,103767
107573,103808
107550,103756
107529,103778
107555,103810
107548,103758
107555,103793
107547,103762
107602,103782
107552,103772
107587,103788
107605,103802
107606,103803
107652,103848
107631,103810
107673,103846
107638,103816
107674,103827
107692,103846
107657,103858
107683,103849
107702,103825
107672,103836
107725,103886
107695,103820
107722,103855
107713,103841
107683,103828
107732,103865
107737,103821
107685,103858
107760,103866
107708,103867
107709,103855
107751,103842
107724,103842
107784,103838
107781,103854
107766,103880
107791,103864
107800,103877
107827,103879
107862,103888
107836,103915
107876,103892
107877,103890
107872,103929
107915,103881
107896,103938
107932,103893
107956,103934
107939,103892
107947,103902
107907,103897
107939,103893
107977,103929
107950,103871
107949,103856
107905,103874
107914,103875
107925,103868
107905,103863
107893,103860
107885,103816
107902,103835
107873,103820
107874,103865
107859,103792
107877,103826
107861,103802
107842,103811
107827,103780
107864,103781
107804,103804
107836,103789
107890,103804
107852,103808
107877,103786
107815,103782
107818,103759
107820,103742
107789,103721
107837,103754
107809,103770
107873,103768
107898,103823
107927,103787
107933,103804
107963,103822
107961,103840
107972,103835
108019,103858
107999,103860
108034,103887
108046,103891
108124,103872
108139,103937
108180,103908
108191,103950
108256,103955
108229,103972
108263,104000
108268,103983
108317,103967
108307,103989
108345,103973
108338,103990
108365,103978
108382,104036
108419,104000
108431,104016
108416,104001
108453,104019
108445,104017
108482,104006
108468,104036
108502,103987
108516,104037
108508,104027
108489,103996
108527,103999
108560,103997
108574,103989
108566,104009
108591,104013
108613,103999
108610,103981
108643,104012
108649,103999
108646,103985
108642,103982
108675,103972
108684,103941
108641,103942
108677,103939
108641,103925
108666,103901
108685,103909
108642,103905
108684,103889
108677,103880
108684,103859
108710,103889
108694,103851
108703,103858
108726,103880
108709,103846
108762,103879
108710,103864
108729,103882
108756,103880
108737,103855
108761,103866
108729,103891
108740,103862
108769,103841
108782,103862
108768,103852
108793,103859
108803,103851
108770,103834
108841,103858
108791,103852
108821,103841
108791,103841
108828,103863
108843,103821
108833,103863
108850,103885
108853,103835
108863,103841
108854,103873
108878,103856
108918,103877
108873,103853
108908,103830
108937,103858
108910,103848
108929,103881
108907,103828
108972,103835
108938,103865
108983,103865
108987,103836
108969,103864
108967,103823
108951,103859
108899,103827
108916,103821
108865,103788
108819,103765
108738,103701
108676,103684
108586,103677
108523,103610
108457,103533
108379,103537
108302,103499
108244,103451
108188,103446
108051,103390
108006,103370
107929,103304
107887,103264
107832,103293
107761,103252
107727,103220
107692,103194
107652,103181
107608,103204
107582,103111
107525,103151
107540,103143
107521,103140
107476,103128
107525,103099
107451,103123
107455,103041
107432,103094
107451,103080
107452,103047
107448,103083
107397,103030
107412,103024
107387,103028
107421,102999
107386,103007
107423,102982
107382,103013
107400,102991
107424,102981
107390,102989
107418,103013
107383,102958
107404,102971
107422,103003
107409,102995
107407,102976
107400,102970
107401,102970
107416,103005
107370,102959
107424,102969
107377,102974
107383,102984
107375,102925
107422,102957
107363,102974
107382,102947
107348,102939
107363,102929
107389,102915
107389,102972
107369,102921
107337,102907
107365,102947
107353,102916
107382,102901
107329,102925
107389,102912
107398,102944
107403,102943
107350,102934
107391,102942
107427,102942
107389,102973
107430,102918
107423,102952
107474,102971
107443,102950
107448,102939
107444,102964
107441,102931
107380,102885
107405,102909
107348,102824
107391,102897
107349,102837
107383,102879
107349,102851
107334,102816
107272,102832
107260,102761
107223,102796
107221,102744
107160,102749
107175,102721
107222,102767
107245,102760
107280,102829
107269,102825
107310,102867
107328,102867
107356,102852
107358,102900
107337,102884
107384,102880
107355,102880
107380,102906
107371,102851
107370,102901
107375,102856
107407,102883
107380,102858
107380,102868
107409,102885
107392,102877
107421,102876
107440,102902
107411,102893
107414,102876
107412,102909
107432,102889
107460,102875
107490,102883
107448,102875
107482,102883
107458,102886
107522,102884
107493,102897
107476,102878
107489,102901
107499,102860
107546,102900
107515,102906
107550,102875
107564,102914
107546,102871
107580,102896
107574,102889
107615,102917
107597,102933
107606,102927
107622,102904
107677,102913
107613,102905
107666,102920
107641,102919
107689,102913
107673,102924
107672,102922
107658,102918
107717,102938
107697,102915
107716,102946
107754,102936
107729,102941
107720,102934
107774,102977
107766,102952
107770,102942
107799,102956
107817,102989
107811,102955
107856,102959
107823,103000
107848,102968
107880,102975
107889,103012
107871,103001
107922,103010
107894,103008
107920,103036
107917,103006
107963,103039
107950,103057
107964,103030
108008,103030
107986,103048
107999,103070
108012,103042
108025,103054
107999,103055
108064,103047
108054,103047
108092,103069
108075,103083
108085,103029
108092,103112
108100,103061
108128,103051
108155,103092
108153,103099
108123,103085
108204,103076
108194,103116
108199,103102
108228,103145
108204,103103
108216,103120
108279,103120
108244,103169
108287,103158
108298,103133
108305,103159
108282,103140
108356,103159
108324,103191
108340,103186
108363,103191
108388,103170
108370,103215
108356,103135
108377,103185
108319,103137
108326,103112
108252,103146
108204,103051
108134,103077
108067,103015
108044,103003
107938,102954
107898,102910
107786,102889
107740,102878
107635,102795
107610,102765
107508,102783
107448,102716
107451,102690
107343,102719
107309,102636
107250,102624
107239,102629
107156,102593
107198,102610
107121,102594
107127,102554
107119,102537
107072,102545
107104,102540
107096,102560
107078,102522
107053,102568
107047,102544
107101,102541
107064,102548
107097,102562
107091,102526
107100,102530
107098,102554
107134,102574
107131,102541
107195,102562
107150,102596
107161,102570
107132,102570
107197,102580
107186,102574
107196,102545
107190,102615
107199,102565
107195,102604
107244,102571
107223,102619
107221,102552
107249,102590
107203,102592
107220,102585
107217,102541
107247,102585
107229,102572
107205,102553
107199,102582
107244,102573
107230,102585
107205,102589
107228,102536
107236,102570
107248,102555
107217,102552
107253,102564
107252,102589
107233,102577
107282,102557
107290,102617
107289,102589
107298,102596
107281,102604
107343,102615
107337,102575
107324,102616
107300,102608
107352,102608
107379,102606
107323,102605
107376,102629
107359,102606
107371,102628
107325,102610
107349,102602
107315,102614
107338,102594
107325,102588
107340,102615
107324,102582
107281,102593
107268,102587
107278,102549
107242,102581
107277,102579
107278,102555
107232,102550
107274,102537
107223,102587
107221,102564
107256,102539
107225,102532
107260,102528
107232,102580
107233,102537
107282,102565
107271,102564
107241,102564
107265,102546
107260,102596
107258,102556
107280,102565
107277,102563
107304,102572
107317,102564
107345,102602
107320,102559
107335,102582
107368,102589
107335,102579
107378,102592
107367,102620
107417,102578
107397,102626
107415,102618
107394,102612
107426,102652
107412,102606
107490,102653
107483,102644
107480,102640
107502,102664
107467,102669
107523,102635
107550,102690
107549,102651
107524,102708
107549,102677
107596,102669
107557,102705
107556,102656
107586,102706
107603,102688
107608,102668
107672,102697
107630,102745
107662,102689
107647,102706
107652,102712
107675,102726
107688,102728
107691,102727
107701,102745
107712,102752
107710,102740
107732,102745
107708,102737
107757,102747
107759,102766
107762,102764
107775,102754
107800,102775
107788,102781
107764,102768
107812,102785
107802,102784
107829,102784
107852,102783
107820,102793
107860,102777
107856,102774
107888,102778
107870,102811
107898,102788
107861,102810
107903,102766
107900,102832
107940,102810
107938,102824
107943,102835
107964,102841
107966,102830
107976,102836
108026,102855
107965,102856
107994,102814
108044,102870
108040,102856
108038,102892
108070,102877
108041,102888
108098,102917
108096,102891
108086,102877
108145,102899
108117,102916
108123,102880
108106,102921
108122,102889
108091,102878
108025,102888
108024,102837
107949,102827
107885,102823
107825,102746
107766,102749
107721,102699
107659,102704
107527,102648
107509,102584
107421,102620
107361,102542
107259,102532
107196,102461
107165,102462
107060,102460
107042,102404
106970,102403
106959,102408
106916,102359
106865,102385
106879,102348
106809,102342
106827,102299
106783,102328
106795,102305
106762,102295
106757,102306
106776,102314
106736,102298
106750,102287
106756,102277
106748,102296
106750,102300
106743,102330
106727,102292
106755,102310
106759,102301
106736,102316
106737,102296
106765,102336
106774,102269
106732,102302
106760,102315
106752,102321
106760,102264
106728,102302
106754,102302
106764,102290
106752,102291
106731,102314
106746,102295
106704,102273
106687,102317
106677,102292
106706,102285
106709,102266
106679,102270
106677,102258
106687,102270
106681,102260
106670,102264
106662,102287
106728,102286
106693,102304
106655,102254
106708,102294
106685,102294
106684,102290
106681,102263
106696,102307
106693,102270
106734,102320
106738,102332
106702,102294
106758,102297
106768,102328
106744,102328
106777,102331
106774,102336
106778,102318
106763,102336
106779,102349
106763,102300
106771,102340
106792,102320
106758,102315
106761,102339
106780,102325
106710,102327
106727,102301
106735,102323
106714,102324
106678,102294
106728,102306
106660,102321
106675,102323
106640,102272
106660,102307
106655,102277
106655,102307
106660,102273
106667,102301
106644,102252
106661,102269
106619,102295
106647,102271
106665,102305
106633,102249
106669,102280
106650,102301
106643,102271
106717,102319
106703,102312
106680,102284
106711,102314
106754,102310
106716,102343
106752,102284
106747,102352
106768,102312
106762,102330
106742,102327
106794,102365
106782,102350
106835,102343
106804,102396
106821,102348
106824,102356
106824,102397
106848,102381
106871,102380
106858,102390
106859,102402
106899,102390
106923,102423
106893,102378
106952,102418
106938,102400
106969,102434
106986,102433
106950,102436
106978,102413
107000,102462
106997,102435
107033,102458
107019,102472
106997,102427
107089,102498
107021,102480
107056,102465
107089,102485
107112,102495
107068,102487
107108,102490
107087,102504
107143,102530
107179,102527
107134,102522
107179,102517
107185,102574
107154,102521
107166,102541
107203,102561
107206,102572
107225,102567
107237,102556
107294,102588
107276,102562
107279,102576
107284,102609
107298,102589
107351,102626
107313,102581
107347,102608
107371,102630
107414,102662
107363,102643
107423,102655
107382,102650
107420,102639
107439,102667
107421,102680
107461,102676
107455,102661
107486,102701
107470,102722
107514,102708
107529,102695
107543,102733
107541,102706
107596,102737
107550,102735
107600,102760
107587,102740
107597,102764
107600,102744
107638,102767
107674,102798
107659,102778
107707,102808
107671,102777
107714,102817
107674,102800
107753,102800
107731,102816
107736,102813
107741,102840
107720,102798
107701,102777
107690,102807
107638,102774
107564,102712
107550,102694
107458,102709
107362,102640
107315,102626
107247,102569
107121,102550
107091,102495
106974,102520
106900,102423
106836,102433
106790,102392
106672,102368
106647,102322
106576,102306
106496,102280
106449,102283
106427,102239
106402,102221
106286,102205
106309,102197
106279,102200
106272,102181
106227,102157
106188,102157
106219,102136
106180,102174
106158,102108
106152,102135
106187,102144
106162,102119
106183,102125
106161,102168
106157,102109
106168,102125
106169,102140
106148,102095
106184,102145
106156,102160
106169,102139
106176,102182
106179,102168
106167,102128
106160,102131
106187,102158
106143,102145
106147,102124
106143,102153
106140,102137
106178,102147
106116,102116
106134,102137
106133,102118
106100,102121
106128,102129
106087,102096
106137,102123
106080,102120
106073,102107
106097,102120
106080,102148
106040,102093
106060,102110
106031,102102
106056,102135
106050,102098
106086,102121
106038,102145
106081,102119
106072,102124
106081,102119
106101,102154
106128,102115
106098,102184
106081,102129
106169,102167
106166,102166
106143,102196
106146,102148
106169,102158
106137,102189
106197,102154
106185,102197
106157,102192
106184,102152
106145,102207
106174,102157
106177,102195
106180,102224
106154,102180
106148,102213
106143,102164
106157,102178
106134,102139
106150,102178
106106,102191
106093,102196
106146,102162
106115,102187
106143,102165
106105,102209
106101,102181
106126,102163
106129,102210
106090,102170
106147,102181
106144,102191
106143,102171
106155,102171
106174,102216
106135,102166
106185,102231
106178,102220
106206,102179
106238,102252
106201,102189
106247,102238
106221,102226
106225,102230
106289,102236
106253,102246
106294,102291
106287,102253
106280,102286
106313,102253
106330,102319
106338,102296
106361,102344
106344,102303
106391,102327
106393,102298
106424,102316
106416,102360
106413,102327
106462,102332
106448,102383
106462,102376
106520,102363
106520,102416
106491,102393
106561,102414
106535,102430
106525,102438
106591,102451
106565,102426
106620,102465
106587,102451
106623,102437
106656,102428
106625,102472
106657,102447
106697,102488
106655,102467
106697,102477
106697,102489
106733,102505
106712,102533
106747,102490
106761,102523
106753,102512
106799,102566
106781,102536
106808,102532
106855,102552
106805,102583
106815,102543
106856,102590
106822,102615
106876,102586
106880,102595
106883,102604
106913,102597
106927,102641
106930,102609
106975,102644
106975,102598
106992,102654
106997,102641
107011,102674
107032,102654
107035,102699
107026,102657
107096,102662
107046,102717
107083,102681
107073,102684
107107,102710
107151,102708
107106,102713
107139,102724
107180,102752
107189,102730
107196,102736
107187,102748
107202,102754
107236,102779
107259,102772
107233,102755
107271,102801
107292,102771
107308,102801
107322,102815
107322,102799
107313,102812
107334,102840
107351,102841
107382,102828
107375,102837
107392,102835
107366,102855
107412,102830
107393,102869
107360,102791
107362,102811
107333,102801
107226,102767
107211,102729
107119,102760
107054,102680
107026,102660
106922,102646
106878,102588
106767,102565
106709,102507
106603,102520
106512,102425
106493,102419
106394,102374
106354,102358
106240,102310
106201,102323
106115,102259
106121,102241
106056,102254
105994,102189
105964,102219
105965,102188
105908,102177
105894,102145
105859,102185
105865,102137
105823,102146
105830,102151
105824,102132
105825,102139
105854,102144
105807,102131
105869,102109
105846,102158
105837,102132
105837,102127
105859,102145
105859,102140
105861,102164
105842,102122
105894,102145
105881,102145
105835,102149
105879,102124
105894,102188
105909,102154
105878,102172
105871,102135
105908,102169
105891,102176
105884,102200
105911,102164
105936,102175
105934,102186
105916,102161
105922,102175
105947,102209
105912,102119
105923,102165
105904,102165
105928,102207
105894,102160
105983,102175
105957,102191
105949,102155
105955,102157
105950,102175
105959,102152
105989,102193
105963,102155
105981,102139
105964,102170
106020,102152
105997,102171
105958,102078
106017,102133
105985,102127
105993,102140
105957,102119
105979,102111
106001,102113
105962,102133
105989,102091
105970,102134
105953,102117
105973,102103
106017,102119
105986,102102
105993,102124
106008,102124
105970,102111
106031,102147
105976,102152
106022,102128
106006,102161
105997,102146
106018,102133
106018,102185
106006,102138
106044,102160
106046,102181
106012,102187
106050,102158
106062,102191
106094,102191
106108,102159
106104,102175
106110,102197
106155,102197
106120,102179
106150,102181
106162,102216
106215,102245
106183,102225
106242,102218
106234,102223
106256,102258
106300,102249
106268,102242
106321,102240
106290,102263
106371,102248
106340,102337
106369,102270
106376,102332
106413,102318
106447,102311
106437,102342
106473,102356
106502,102336
106525,102375
106504,102378
106551,102346
106545,102389
106566,102379
106586,102396
106598,102433
106583,102402
106623,102444
106637,102410
106688,102451
106662,102456
106676,102461
106723,102454
106735,102447
106717,102505
106726,102468
106758,102485
106778,102484
106798,102489
106776,102510
106817,102506
106807,102552
106825,102510
106832,102551
106821,102527
106864,102552
106902,102572
106872,102541
106948,102555
106923,102611
106901,102565
106943,102610
106953,102601
106963,102628
106988,102598
107004,102635
107022,102634
106997,102630
107033,102676
107026,102624
107100,102669
107091,102631
107103,102669
107116,102654
107143,102717
107122,102665
107132,102699
107201,102718
107173,102729
107212,102733
107209,102732
107237,102724
107260,102750
107268,102729
107288,102746
107274,102783
107290,102762
107341,102756
107337,102807
107357,102805
107355,102837
107377,102774
107416,102845
107408,102812
107441,102858
107431,102844
107465,102825
107507,102874
107467,102843
107483,102891
107519,102848
107518,102877
107502,102880
107546,102884
107553,102876
107572,102939
107566,102878
107619,102952
107602,102904
107628,102946
107635,102962
107636,102944
107649,102939
107683,103003
107687,103003
107703,102964
107742,102968
107727,103025
107758,102979
107723,102990
107740,103013
107702,102970
107723,102959
107642,102984
107637,102937
107576,102920
107543,102887
107411,102851
107361,102801
107296,102799
107187,102732
107111,102706
107070,102676
106942,102633
106834,102598
106792,102555
106695,102523
106616,102496
106532,102442
106513,102404
106401,102412
106350,102346
106348,102344
106259,102302
106234,102306
106205,102259
106158,102276
106102,102277
106102,102273
106087,102237
106088,102230
106093,102247
106058,102251
106049,102256
106039,102237
106031,102246
106067,102259
106054,102226
106063,102263
106045,102222
106081,102242
106066,102253
106077,102271
106058,102247
106076,102230
106085,102305
106102,102263
106084,102251
106091,102266
106111,102287
106078,102230
106129,102268
106105,102281
106109,102234
106088,102260
106072,102261
106075,102247
106131,102297
106083,102275
106092,102240
106097,102257
106063,102261
106079,102253
106076,102266
106102,102286
106084,102259
106071,102252
106099,102278
106067,102268
106079,102254
106098,102258
106073,102270
106142,102269
106144,102312
106105,102289
106193,102321
106170,102294
106177,102324
106214,102344
106175,102322
106230,102333
106209,102348
106196,102335
106218,102377
106231,102337
106248,102363
106242,102364
106275,102349
106296,102354
106252,102352
106286,102347
106276,102382
106234,102321
106259,102358
106281,102362
106249,102371
106258,102328
106238,102381
106210,102351
106259,102362
106225,102355
106254,102368
106213,102357
106216,102347
106236,102350
106237,102347
106214,102355
106236,102361
106257,102359
106221,102345
106223,102357
106275,102373
106266,102372
106281,102367
106290,102381
106300,102403
106321,102398
106280,102407
106320,102396
106360,102422
106363,102425
106370,102438
106370,102426
106396,102472
106414,102447
106437,102437
106410,102458
106431,102493
106440,102445
106512,102490
106485,102465
106526,102504
106525,102503
106555,102494
106592,102527
106537,102551
106581,102538
106645,102544
106625,102522
106642,102565
106702,102578
106668,102581
106685,102588
106689,102576
106728,102585
106740,102620
106729,102588
106787,102600
106788,102643
106776,102604
106833,102627
106869,102658
106835,102623
106860,102638
106893,102684
106911,102656
106917,102659
106912,102667
106943,102682
106971,102699
106996,102749
107024,102725
106973,102713
106986,102730
107041,102762
107073,102713
107040,102780
107086,102735
107107,102760
107101,102777
107130,102788
107117,102779
107169,102779
107158,102785
107202,102826
107148,102821
107198,102796
107216,102855
107244,102829
107208,102841
107280,102861
107246,102866
107324,102870
107313,102890
107331,102860
107316,102872
107342,102910
107347,102862
107385,102899
107375,102910
107415,102935
107391,102898
107447,102947
107438,102931
107446,102944
107478,102967
107453,102932
107520,102985
107493,102973
107548,102978
107533,102981
107564,102999
107594,103000
107594,103019
107575,102999
107613,103013
107613,103015
107632,103022
107662,103036
107644,103055
107665,103045
107656,103042
107700,103082
107722,103071
107702,103070
107732,103066
107760,103083
107782,103102
107775,103095
107769,103082
107822,103102
107795,103113
107846,103098
107833,103127
107859,103154
107885,103135
107877,103162
107927,103154
107920,103172
107881,103147
107931,103146
107893,103151
107851,103114
107854,103118
107775,103133
107709,103072
107655,103042
107607,103026
107539,102982
107459,102971
107357,102932
107297,102852
107223,102853
107136,102813
107065,102757
107023,102733
106923,102734
106894,102660
106792,102650
106721,102612
106686,102598
106584,102582
106568,102558
106511,102518
106477,102531
106446,102475
106437,102500
106415,102467
106406,102466
106376,102468
106367,102432
106350,102453
106359,102440
106326,102456
106318,102461
106333,102432
106358,102432
106350,102449
106353,102444
106361,102429
106411,102475
106369,102479
106401,102471
106418,102473
106408,102451
106440,102503
106422,102513
106450,102488
106426,102500
106460,102491
106500,102503
106447,102529
106468,102499
106446,102532
106456,102499
106479,102501
106490,102540
106505,102500
106505,102516
106529,102529
106506,102560
106501,102496
106556,102548
106545,102526
106545,102510
106560,102555
106538,102541
106535,102524
106555,102546
106615,102548
106603,102582
106605,102525
106651,102595
106654,102563
106658,102617
106650,102558
106657,102578
106685,102565
106698,102580
106697,102619
106675,102588
106684,102575
106713,102613
106698,102594
106677,102590
106668,102605
106716,102566
106683,102594
106695,102589
106692,102553
106665,102590
106672,102579
106657,102549
106634,102551
106628,102570
106609,102535
106602,102549
106590,102530
106598,102544
106546,102523
106588,102524
106550,102558
106599,102535
106568,102525
106591,102536
106560,102558
106602,102524
106581,102546
106591,102533
106585,102566
106574,102557
106647,102567
106635,102576
106594,102554
106672,102580
106654,102564
106702,102593
106699,102600
106675,102574
106741,102602
106703,102606
106755,102611
106765,102592
106760,102602
106791,102624
106798,102642
106814,102602
106794,102621
106829,102655
106872,102657
106852,102661
106896,102663
106873,102642
106884,102679
106884,102677
106923,102716
106938,102660
106968,102720
106933,102689
106998,102748
106997,102728
107010,102745
107013,102735
107034,102701
107037,102771
107049,102768
107039,102737
107069,102752
107082,102777
107133,102754
107121,102818
107130,102745
107146,102783
107180,102788
107165,102802
107171,102806
107216,102800
107202,102830
107219,102796
107268,102837
107251,102840
107280,102802
107279,102886
107300,102868
107262,102862
107344,102863
107305,102849
107376,102879
107354,102906
107388,102866
107402,102905
107432,102918
107421,102937
107409,102878
107467,102933
107482,102923
107484,102949
107512,102937
107492,102952
107527,102929
107535,102945
107548,102958
107554,102962
107570,102967
107612,103009
107567,102982
107617,102976
107635,102984
107604,103003
107624,102957
107673,103016
107644,103029
107693,103010
107725,103049
107679,103033
107736,103056
107722,103040
107798,103060
107761,103090
107755,103080
107787,103076
107809,103065
107844,103091
107836,103101
107865,103080
107889,103121
107862,103140
107886,103088
107945,103157
107917,103113
107929,103115
107945,103107
107962,103139
107941,103160
107972,103151
108024,103177
107987,103152
108023,103172
108053,103161
108040,103194
108028,103163
108087,103208
108054,103180
108053,103190
108124,103212
108083,103205
108124,103207
108093,103204
108120,103213
108124,103194
108071,103184
108052,103160
107975,103140
107921,103163
107876,103053
107806,103066
107727,102978
107650,102965
107576,102919
107489,102916
107361,102833
107271,102823
107182,102781
107122,102728
107000,102697
106945,102623
106837,102619
106752,102568
106735,102532
106623,102496
106570,102438
106536,102471
106478,102405
106404,102396
106377,102371
106366,102339
106307,102333
106310,102323
106274,102329
106281,102300
106284,102310
106289,102327
106234,102331
106213,102247
106231,102319
106196,102283
106199,102294
106213,102258
106247,102325
106209,102265
106223,102277
106228,102301
106187,102283
106224,102285
106226,102302
106230,102232
106224,102293
106236,102271
106249,102272
106204,102256
106260,102252
106220,102303
106232,102268
106257,102297
106248,102288
106239,102270
106214,102270
106237,102252
106269,102272
106251,102255
106216,102253
106251,102281
106237,102283
106251,102241
106231,102284
106236,102260
106255,102253
106268,102289
106220,102236
106280,102280
106231,102268
106273,102261
106239,102263
106305,102264
106308,102287
106319,102273
106304,102286
106310,102284
106342,102313
106302,102280
106355,102287
106354,102326
106378,102290
106400,102308
106354,102320
106350,102287
106380,102325
106349,102299
106350,102277
106344,102282
106359,102315
106326,102273
106324,102270
106342,102293
106334,102263
106331,102285
106314,102286
106320,102268
106298,102283
106272,102244
106298,102257
106314,102237
106272,102226
106288,102199
106297,102206
106252,102226
106265,102214
106303,102199
106284,102206
106283,102195
106296,102236
106290,102163
106319,102219
106299,102201
106304,102218
106305,102172
106367,102231
106312,102212
106349,102188
106393,102243
106370,102216
106444,102246
106415,102221
106408,102219
106464,102248
106431,102237
106464,102271
106444,102244
106520,102250
106512,102299
106497,102268
106532,102278
106516,102283
106542,102315
106559,102265
106621,102309
106579,102299
106620,102307
106616,102282
106665,102309
106633,102356
106680,102314
106731,102339
106703,102330
106714,102337
106751,102326
106737,102383
106755,102328
106792,102359
106810,102366
106777,102370
106838,102392
106834,102401
106832,102361
106853,102389
106842,102377
106853,102402
106868,102404
106863,102407
106898,102392
106903,102398
106937,102453
106932,102437
106929,102422
106977,102447
106962,102461
106997,102448
106987,102463
107036,102453
107063,102503
107022,102462
107051,102489
107071,102478
107103,102480
107114,102507
107097,102501
107111,102509
107130,102511
107100,102489
107142,102507
107163,102533
107184,102540
107160,102527
107195,102518
107210,102548
107225,102538
107232,102538
107239,102532
107237,102556
107256,102572
107274,102564
107292,102543
107281,102553
107322,102565
107317,102555
107320,102584
107279,102576
107333,102583
107363,102612
107378,102590
107340,102596
107398,102620
107390,102605
107389,102624
107399,102612
107429,102637
107439,102610
107427,102632
107463,102626
107436,102642
107464,102636
107490,102639
107495,102681
107516,102651
107528,102651
107533,102677
107528,102670
107543,102679
107539,102676
107590,102701
107562,102693
107592,102700
107615,102708
107618,102694
107622,102717
107651,102715
107624,102722
107566,102679
107611,102683
107554,102652
107538,102668
107471,102619
107399,102596
107324,102563
107271,102537
107155,102499
107098,102459
107008,102406
106900,102361
106829,102328
106749,102284
106647,102229
106524,102185
106437,102152
106367,102119
106287,102088
106192,102034
106127,102014
106043,101967
105995,101926
105944,101926
105890,101890
105846,101854
105777,101846
105776,101825
105712,101832
105675,101820
105666,101770
105637,101803
105637,101769
105619,101749
105626,101781
105621,101774
105576,101727
105595,101763
105585,101757
105570,101744
105585,101729
105623,101741
105580,101762
105640,101766
105567,101735
105616,101730
105604,101717
105631,101751
105617,101726
105580,101744
105616,101717
105580,101700
105578,101686
105569,101704
105516,101676
105526,101632
105483,101652
105499,101646
105477,101614
105441,101598
105462,101616
105430,101565
105439,101614
105440,101612
105455,101655
105450,101588
105440,101635
105475,101648
105499,101643
105536,101658
105528,101678
105583,101700
105576,101727
105615,101710
105593,101717
105642,101767
105647,101739
105677,101773
105710,101809
105705,101790
105762,101776
105767,101788
105787,101810
105801,101847
105797,101830
105885,101829
105866,101856
105905,101878
105918,101897
105930,101903
105986,101931
105992,101905
105978,101943
106024,101966
106023,101966
106053,101988
106099,101963
106073,102001
106124,102000
106112,102021
106129,102027
106154,102064
106166,102041
106154,102047
106178,102075
106206,102076
106228,102087
106207,102064
106220,102078
106250,102122
106287,102103
106254,102119
106308,102104
106288,102129
106326,102137
106346,102141
106354,102134
106365,102140
106371,102155
106360,102165
106370,102148
106387,102162
106392,102166
106359,102125
106348,102092
106312,102112
106328,102098
106325,102097
106316,102079
106277,102045
106254,102007
106172,101953
106135,101896
106099,101830
106031,101770
106008,101720
105992,101695
105978,101667
105962,101641
105976,101647
105971,101627
105956,101610
105932,101575
105856,101561
105854,101543
105820,101512
105795,101511
105781,101470
105734,101454
105683,101427
105642,101406
105658,101418
105656,101412
105592,101412
105575,101389
105595,101388
105580,101405
105591,101402
105563,101394
105602,101428
107443,102633
107421,102588
107358,102603
107282,102593
107290,102608
107181,102533
107146,102515
107057,102515
107002,102494
106937,102418
106878,102388
106758,102369
106647,102321
106621,102318
106550,102267
106413,102227
106379,102210
106318,102165
106210,102140
106180,102136
106100,102100
106066,102087
106042,102086
105997,102028
105951,102044
105924,102040
105926,101999
105843,102002
105883,102000
105856,101989
105821,101989
105848,101983
105848,101985
105855,102016
105801,102004
105874,101989
105836,102043
105810,102008
105864,102013
105898,102014
105884,102027
105921,102019
105868,102065
105892,102071
105950,102046
105971,102096
105920,102080
105942,102036
105971,102044
105969,102063
105985,102092
105972,102087
106010,102054
106005,102097
105979,102126
105988,102101
106034,102122
106000,102092
106059,102122
106060,102130
106097,102120
106038,102148
106104,102155
106084,102178
106126,102120
106102,102144
106117,102169
106132,102135
106129,102152
106094,102160
106146,102185
106156,102184
106205,102210
106145,102193
106186,102166
106182,102194
106203,102174
106188,102183
106260,102204
106185,102232
106207,102238
106197,102209
106185,102208
106214,102201
106164,102217
106195,102182
106200,102199
106148,102182
106188,102208
106133,102185
106151,102177
106096,102165
106119,102192
106114,102182
106033,102158
106077,102177
106067,102142
106039,102145
106084,102167
106065,102154
106010,102136
106067,102166
106064,102152
106028,102151
106049,102159
106063,102132
106019,102150
106062,102158
106079,102162
106046,102170
106102,102185
106142,102196
106090,102188
106158,102221
106132,102197
106126,102200
106180,102206
106202,102224
106182,102225
106195,102249
106252,102258
106218,102248
106240,102250
106274,102266
106282,102259
106296,102277
106324,102302
106287,102265
106331,102297
106360,102304
106334,102276
106340,102308
106387,102284
106355,102312
106400,102334
106385,102321
106363,102312
106424,102342
106425,102330
106396,102338
106436,102348
106440,102338
106446,102336
106460,102357
106474,102345
106456,102357
106478,102372
106468,102364
106495,102371
106497,102368
106485,102363
106518,102368
106519,102364
106515,102357
106551,102386
106524,102382
106561,102394
106573,102387
106556,102370
106586,102386
106589,102381
106594,102393
106610,102398
106639,102377
106669,102418
106674,102397
106647,102413
106704,102418
106709,102433
106675,102400
106733,102435
106724,102427
106687,102412
106747,102413
106776,102436
106734,102432
106768,102438
106776,102440
106754,102441
106800,102462
106813,102433
106771,102430
106792,102452
106775,102441
106795,102404
106691,102427
106711,102400
106646,102377
106598,102347
106521,102317
106445,102281
106329,102241
106235,102196
106142,102179
106045,102103
105932,102052
105853,102002
105748,101974
105591,101909
105531,101857
105439,101805
105294,101777
105241,101723
105156,101689
105048,101641
104975,101622
104935,101585
104858,101574
104803,101526
104812,101524
104729,101506
104687,101494
104631,101472
104669,101478
104606,101467
104618,101419
104615,101451
104590,101437
104615,101453
104595,101434
104621,101461
104601,101422
104584,101453
104617,101418
104567,101458
104578,101421
104623,101462
104635,101449
104665,101444
104588,101456
104605,101430
104629,101447
104630,101445
104624,101440
104616,101440
104597,101475
104649,101452
104615,101434
104605,101432
104652,101466
104602,101442
104600,101437
104624,101431
104674,101466
104635,101432
104622,101463
104641,101434
104646,101434
104616,101487
104614,101424
104612,101438
104624,101452
104576,101421
104650,101405
104615,101467
104606,101448
104672,101500
104666,101459
104690,101472
104667,101426
104716,101458
104697,101476
104671,101470
104765,101495
104777,101514
104766,101512
104764,101481
104807,101490
104775,101517
104784,101502
104839,101527
104793,101545
104790,101514
104820,101508
104822,101526
104855,101532
104813,101480
104799,101541
104847,101522
104819,101497
104801,101492
104847,101544
104852,101543
104816,101486
104806,101514
104828,101496
104823,101494
104816,101514
104815,101487
104818,101488
104819,101496
104812,101493
104832,101483
104804,101498
104825,101517
104829,101504
104834,101512
104873,101535
104871,101533
104880,101511
104858,101519
104909,101557
104940,101566
104910,101539
104974,101561
104975,101571
104979,101574
105025,101594
105047,101612
105025,101598
105071,101594
105060,101604
105121,101642
105120,101627
105146,101635
105170,101663
105191,101670
105195,101668
105229,101713
105237,101696
105235,101687
105284,101750
105308,101724
105298,101728
105353,101768
105359,101763
105362,101757
105408,101798
105407,101772
105439,101807
105410,101805
105431,101806
105458,101791
105466,101825
105486,101802
105522,101826
105549,101854
105502,101861
105590,101870
105600,101895
105559,101874
105618,101873
105657,101889
105612,101904
105651,101878
105715,101919
105687,101946
105684,101940
105701,101941
105733,101919
105768,101959
105745,101943
105789,101973
105770,101963
105782,101955
105822,101986
105837,102009
105824,102002
105864,101979
105872,101998
105906,102019
105900,102000
105920,102041
105945,102013
105945,102051
105939,102011
105970,102091
105980,102085
105990,102101
105995,102050
106061,102079
106027,102119
106072,102104
106104,102108
106098,102112
106117,102144
106174,102114
106183,102138
106172,102190
106155,102146
106208,102146
106183,102145
106230,102155
106234,102183
106192,102174
106175,102161
106151,102097
106103,102096
106030,102115
105956,102043
105942,102000
105796,102021
105748,101971
105697,101909
105548,101886
105447,101818
105400,101807
105244,101747
105150,101671
105109,101661
104957,101659
104903,101565
104809,101553
104734,101507
104685,101477
104628,101479
104573,101423
104525,101420
104510,101398
104461,101421
104407,101351
104429,101354
104379,101373
104399,101363
104377,101383
104357,101340
104422,101381
104383,101372
104392,101346
104452,101382
104436,101435
104438,101385
104469,101411
104478,101415
104479,101444
104474,101395
104504,101460
104479,101437
104530,101423
104535,101458
104516,101406
104566,101477
104543,101442
104560,101429
104565,101456
104585,101487
104606,101450
104586,101482
104595,101501
104608,101485
104595,101450
104616,101478
104604,101481
104624,101451
104665,101473
104628,101511
104600,101495
104615,101480
104634,101530
104617,101499
104643,101480
104639,101519
104655,101504
104673,101525
104715,101529
104726,101573
104767,101535
104722,101565
104727,101534
104803,101559
104790,101619
104806,101598
104785,101606
104825,101610
104869,101596
104852,101589
104896,101657
104881,101640
104905,101646
104885,101628
104891,101675
104921,101638
104898,101661
104908,101686
104879,101661
104935,101657
104909,101675
104896,101646
104874,101644
104929,101652
104905,101688
104901,101630
104902,101650
104882,101646
104911,101679
104854,101625
104853,101646
104859,101637
104885,101634
104876,101639
104879,101688
104878,101642
104897,101676
104873,101655
104883,101633
104915,101686
104923,101646
104887,101665
104937,101699
104918,101661
104924,101651
104972,101742
104974,101706
104970,101732
104968,101709
105035,101733
105054,101726
105022,101738
105086,101763
105103,101774
105120,101741
105104,101796
105163,101799
105130,101796
105153,101801
105215,101790
105218,101816
105213,101838
105230,101830
105227,101842
105290,101834
105296,101859
105321,101873
105300,101852
105375,101904
105370,101895
105337,101878
105395,101921
105446,101886
105429,101936
105413,101893
105456,101926
105498,101914
105523,101985
105499,101978
105555,101970
105587,101981
105551,101990
105572,102004
105635,102015
105602,102042
105633,102032
105637,102034
105690,102042
105691,102101
105692,102032
105702,102062
105744,102056
105756,102122
105740,102110
105805,102062
105781,102084
105808,102119
105806,102101
105867,102110
105827,102133
105850,102144
105820,102137
105894,102141
105888,102149
105918,102191
105894,102161
105947,102150
105912,102173
105927,102186
105963,102164
105943,102183
105971,102188
105988,102216
105966,102178
106049,102200
106031,102225
106036,102192
106056,102241
106054,102236
106057,102212
106112,102258
106058,102245
106088,102218
106138,102271
106114,102294
106113,102246
106177,102285
106150,102290
106136,102243
106201,102321
106179,102305
106197,102275
106136,102294
106171,102294
106089,102239
106058,102241
106018,102225
105906,102165
105865,102135
105794,102105
105719,102040
105621,102014
105521,101990
105388,101917
105316,101909
105229,101868
105109,101794
105054,101777
104911,101726
104858,101702
104783,101651
104696,101602
104685,101620
104554,101552
104552,101531
104513,101531
104415,101512
104424,101482
104393,101497
104427,101468
104401,101483
104342,101479
104366,101448
104348,101439
104326,101466
104367,101452
104344,101468
104348,101423
104351,101442
104344,101428
104362,101441
104368,101469
104327,101438
104402,101434
104360,101495
104431,101461
104412,101444
104417,101469
104402,101487
104447,101471
104435,101491
104438,101465
104458,101464
104445,101453
104453,101531
104441,101490
104474,101514
104488,101512
104472,101466
104483,101535
104474,101507
104489,101523
104484,101480
104546,101535
104535,101487
104551,101499
104558,101524
104533,101497
104593,101551
104589,101535
104580,101524
104597,101567
104631,101554
104628,101567
104668,101613
104699,101584
104726,101582
104697,101577
104751,101587
104774,101601
104744,101621
104796,101625
104813,101637
104852,101653
104814,101644
104851,101665
104903,101651
104870,101679
104877,101675
104883,101654
104909,101668
104899,101644
104908,101692
104877,101642
104920,101695
104882,101642
104921,101666
104921,101701
104880,101662
104896,101699
104900,101663
104877,101678
104869,101676
104882,101707
104908,101678
104938,101698
104928,101672
104937,101710
104914,101680
104941,101715
104911,101711
104965,101712
104984,101705
104994,101756
105019,101723
105018,101735
105042,101765
105033,101752
105077,101792
105099,101763
105105,101780
105127,101813
105118,101788
105155,101799
105154,101821
105203,101833
105234,101843
105228,101815
105269,101878
105290,101874
105262,101865
105314,101898
105315,101887
105320,101853
105359,101904
105347,101919
105405,101939
105396,101916
105428,101889
105416,101957
105444,101945
105500,101965
105478,101974
105503,101934
105517,102000
105570,101981
105551,101988
105578,101981
105636,102009
105639,102017
105606,102024
105673,102042
105699,102052
105664,102040
105703,102073
105694,102072
105697,102119
105699,102084
105780,102058
105769,102064
105796,102100
105809,102083
105839,102107
105793,102128
105881,102125
105852,102146
105873,102124
105925,102175
105888,102162
105942,102209
105942,102208
105951,102170
105994,102213
105978,102184
105983,102223
106025,102225
106050,102242
106022,102248
106077,102205
106090,102235
106124,102251
106114,102236
106145,102271
106153,102285
106196,102308
106195,102285
106197,102337
106171,102339
106241,102292
106257,102318
106269,102333
106254,102288
106301,102347
106277,102364
106339,102347
106319,102362
106356,102377
106351,102384
