11111,11111
0,0
82327,82348
113030,112220
112992,112201
112873,112120
112935,112167
113045,112226
113025,112182
112985,112213
112843,112115
112960,112199
113026,112182
113040,112200
112968,112211
112851,112107
112924,112145
113081,112214
113036,112225
112965,112142
112880,112117
112984,112157
113023,112221
113038,112186
112980,112205
112862,112091
112974,112186
113063,112223
113058,112194
112979,112183
112898,112116
113022,112213
113061,112208
113063,112168
112991,112196
112879,112099
112981,112204
113102,112196
113070,112195
113059,112199
112932,112097
113041,112195
113130,112193
113105,112199
113030,112158
112950,112115
113050,112167
113139,112204
113143,112206
113075,112152
113004,112100
113124,112192
113197,112220
113145,112222
113103,112177
113020,112127
113157,112225
113224,112250
113196,112219
113123,112204
113076,112154
113180,112242
113242,112272
113196,112219
113156,112215
113094,112167
113233,112244
113258,112278
113217,112237
113182,112223
113089,112191
113221,112245
113268,112286
113267,112225
113161,112227
113132,112171
113226,112256
113288,112301
113225,112245
113161,112172
113064,112176
113168,112229
113122,112205
113033,112150
112852,112082
112735,112009
112735,112008
112608,111957
112376,111802
112080,111711
111857,111585
111827,111546
111718,111506
111489,111428
111322,111291
111181,111264
111218,111294
111216,111270
111088,111220
111021,111167
110967,111178
111058,111194
111089,111249
111039,111197
111019,111164
111052,111226
111188,111299
111253,111292
111310,111357
111258,111295
111316,111377
111541,111476
111603,111471
111615,111502
111549,111478
111662,111506
111830,111618
111871,111630
111894,111627
111854,111605
111923,111651
112100,111721
112119,111770
112118,111718
112005,111703
112127,111717
112558,111931
112520,111845
112595,111920
112865,111964
112776,111933
112881,112009
112979,112061
112913,112001
112892,111975
113005,112080
113045,112077
113075,112038
113023,112039
112904,111985
112960,112015
113009,112057
113051,112075
112988,112029
112935,111984
112929,112037
113044,112025
113075,112079
113015,112039
112912,111955
112977,112004
113047,112057
113081,112071
113022,112037
112975,111961
113013,112003
113093,112054
113103,112051
113054,112055
112965,111947
113018,112008
113129,112081
113120,112079
113059,112048
113013,111997
113055,112038
113099,112062
113167,112086
113112,112045
112975,111965
113062,112035
113136,112095
113186,112081
113103,112038
112975,111994
113097,112069
113188,112063
113144,112076
113171,112065
113053,112000
113116,112041
113237,112120
113188,112070
113168,112064
113061,112026
113156,112087
113221,112072
113207,112112
113166,112058
113023,112016
113127,112046
113200,112093
113161,112064
113090,112027
112972,111959
112967,112012
113013,111969
112887,111951
112749,111865
112565,111787
112518,111776
112448,111729
112250,111639
111966,111488
111672,111343
111635,111323
111566,111336
111416,111216
111328,111170
111146,111111
111222,111137
111268,111210
111249,111136
111189,111133
111095,111062
111246,111188
111340,111237
111356,111194
111365,111245
111282,111209
111474,111295
111608,111361
111632,111340
111600,111339
111651,111373
111750,111447
111880,111496
111909,111505
111865,111451
111892,111491
112034,111558
112128,111626
112112,111590
112092,111562
112108,111594
112225,111627
112282,111678
112243,111648
112219,111593
112175,111624
112305,111654
112372,111722
112292,111681
112234,111611
112218,111641
112322,111679
112343,111698
112358,111679
112274,111652
112260,111653
112355,111741
112420,111729
112380,111725
112332,111663
112310,111697
112405,111731
112516,111755
112472,111740
112388,111670
112386,111683
112525,111760
112534,111798
112486,111724
112431,111692
112435,111736
112501,111762
112550,111752
112531,111757
112369,111722
112376,111684
112505,111775
112496,111747
112475,111711
112345,111670
112393,111698
112447,111724
112510,111764
112445,111718
112320,111671
112366,111677
112480,111739
112509,111743
112436,111696
112347,111647
112386,111708
112478,111747
112516,111737
112494,111720
112390,111687
112395,111723
112498,111732
112550,111788
112498,111732
112378,111684
112483,111732
112571,111788
112593,111768
112557,111763
112434,111701
112531,111735
112618,111805
112627,111794
112603,111776
112511,111692
112604,111784
112709,111785
112689,111801
112668,111779
112557,111741
112647,111780
112742,111824
112684,111833
112677,111795
112591,111750
112672,111785
112773,111840
112711,111853
112720,111822
112581,111770
112696,111820
112770,111841
112770,111835
112725,111792
112625,111764
112710,111786
112797,111843
112802,111840
112759,111827
112650,111747
112755,111832
112774,111845
112801,111858
112749,111802
112703,111780
112732,111798
112855,111871
112846,111864
112799,111827
112672,111803
112789,111816
112887,111880
112858,111847
112793,111846
112717,111815
112800,111859
112892,111869
112825,111866
112792,111818
112707,111787
112807,111851
112862,111865
112819,111870
112788,111842
112720,111800
112819,111830
112882,111887
112847,111843
112788,111837
112730,111772
112818,111830
112871,111883
112857,111876
112779,111803
112778,111804
112843,111864
112949,111904
112884,111875
112817,111818
112773,111810
112874,111845
112979,111909
112910,111831
112849,111799
112792,111797
112930,111866
112976,111884
112948,111875
112879,111820
112853,111790
112948,111854
113046,111896
112965,111890
112923,111814
112868,111847
112987,111914
113038,111919
113009,111872
112939,111841
112899,111848
113019,111915
113066,111919
113029,111890
112925,111820
112930,111869
112987,111878
113101,111933
113023,111886
112927,111823
112918,111849
113021,111910
113033,111896
112942,111851
112802,111781
112751,111778
112821,111765
112790,111789
112611,111686
112447,111612
112313,111568
112293,111564
112114,111471
111919,111346
111605,111236
111530,111187
111463,111140
111370,111122
111273,111063
111110,111000
111128,110978
111208,111045
111187,111057
111176,111016
111123,110981
111168,111044
111324,111140
111413,111149
111422,111153
111407,111146
111526,111186
111717,111292
111782,111347
111814,111329
111755,111302
111892,111388
112012,111441
112031,111420
112062,111477
111965,111388
112068,111472
112189,111529
112186,111506
112147,111531
112049,111436
112132,111522
112238,111570
112255,111544
112212,111571
112094,111465
112208,111540
112272,111571
112307,111556
112221,111534
112130,111520
112236,111502
112359,111620
112335,111580
112306,111562
112245,111540
112311,111567
112445,111645
112402,111626
112389,111600
112309,111549
112409,111620
112486,111627
112486,111654
112416,111610
112324,111570
112468,111629
112521,111677
112492,111622
112417,111622
112322,111540
112418,111630
112479,111643
112461,111614
112395,111583
112320,111518
112442,111613
112490,111636
112451,111596
112406,111584
112270,111569
112417,111576
112484,111644
112424,111603
112355,111584
112269,111526
112405,111609
112439,111640
112429,111589
112366,111550
112326,111546
112402,111597
112497,111673
112433,111604
112434,111604
112389,111574
112476,111629
112582,111668
112518,111660
112469,111603
112459,111626
112581,111647
112632,111711
112598,111689
112531,111660
112483,111632
112620,111712
112688,111717
112604,111687
112570,111676
112530,111639
112619,111676
112727,111704
112628,111698
112588,111660
112603,111663
112671,111719
112725,111746
112697,111700
112639,111681
112643,111688
112716,111744
112748,111777
112703,111755
112617,111683
112654,111686
112751,111764
112761,111757
112729,111750
112629,111669
112660,111708
112780,111754
112760,111768
112727,111729
112650,111705
112639,111710
112761,111753
112790,111736
112773,111748
112659,111715
112668,111671
112800,111785
112828,111779
112796,111726
112676,111687
112685,111690
112800,111774
112809,111768
112789,111733
112660,111666
112722,111707
112788,111719
112837,111791
112765,111734
112692,111677
112710,111682
112807,111773
112835,111784
112810,111730
112705,111673
112761,111721
112866,111757
112828,111748
112785,111762
112675,111686
112809,111720
112871,111779
112827,111764
112771,111726
112707,111637
112788,111754
112876,111759
112849,111742
112814,111753
112705,111667
112806,111757
112910,111767
112872,111782
112826,111706
112742,111667
112807,111727
112896,111733
112919,111775
112911,111740
112758,111675
112847,111737
112927,111736
112936,111741
112892,111718
112794,111679
112890,111720
113017,111793
112958,111735
112901,111677
112836,111686
112906,111741
113010,111784
112960,111745
112927,111723
112853,111679
112937,111758
113018,111778
112964,111746
112856,111711
112744,111658
112826,111663
112815,111687
112728,111673
112577,111549
112406,111475
112342,111471
112272,111456
112077,111348
111807,111183
111586,111083
111544,111088
111435,111032
111303,110956
111157,110879
111033,110828
111097,110882
111145,110918
111102,110893
111066,110847
111068,110841
111171,110932
111283,110956
111294,110984
111270,110975
111283,110982
111464,111080
111580,111113
111581,111145
111560,111130
111626,111146
111754,111224
111913,111260
111894,111294
111870,111273
111895,111272
112016,111345
112129,111350
112100,111383
112026,111300
112021,111336
112192,111407
112201,111428
112200,111421
112104,111338
112107,111338
112240,111426
112242,111423
112226,111412
112153,111382
112131,111402
112205,111396
112255,111466
112240,111435
112171,111391
112147,111433
112284,111448
112307,111487
112278,111439
112149,111416
112227,111460
112314,111445
112377,111519
112322,111500
112227,111405
112302,111481
112371,111518
112405,111517
112352,111473
112294,111440
112308,111463
112337,111515
112376,111500
112353,111462
112226,111441
112266,111447
112370,111513
112374,111496
112311,111459
112237,111408
112246,111437
112389,111500
112350,111463
112339,111453
112202,111372
112289,111435
112354,111516
112343,111451
112327,111464
112166,111411
112312,111444
112419,111508
112391,111505
112389,111469
112284,111430
112372,111464
112492,111526
112462,111506
112458,111466
112367,111448
112448,111485
112557,111566
112535,111533
112528,111521
112410,111473
112522,111486
112614,111560
112612,111559
112620,111538
112481,111526
112555,111525
112692,111610
112693,111563
112615,111548
112537,111509
112609,111558
112730,111598
112684,111579
112659,111568
112545,111521
112680,111581
112762,111617
112725,111584
112660,111550
112572,111503
112712,111577
112767,111586
112711,111581
112645,111577
112608,111496
112691,111590
112771,111611
112709,111591
112716,111549
112587,111555
112734,111565
112801,111611
112773,111588
112701,111593
112621,111530
112772,111626
112775,111625
112772,111613
112707,111566
112645,111543
112736,111594
112801,111654
112762,111577
112711,111539
112639,111548
112771,111589
112825,111622
112790,111596
112697,111578
112651,111551
112779,111600
112819,111613
112822,111609
112685,111583
112680,111546
112815,111626
112856,111659
112777,111625
112729,111552
112689,111601
112800,111623
112844,111677
112790,111627
112765,111607
112733,111588
112830,111650
112887,111689
112800,111621
112773,111610
112743,111633
112807,111655
112915,111720
112841,111647
112788,111615
112736,111626
112847,111626
112905,111699
112824,111642
112780,111589
112789,111610
112867,111641
112920,111667
112884,111649
112788,111602
112810,111621
112906,111652
112970,111687
112939,111668
112811,111626
112849,111617
112959,111683
112974,111668
112961,111657
112841,111651
112873,111614
112990,111670
113007,111679
112960,111652
112864,111633
112901,111621
113004,111687
113017,111703
112998,111677
112867,111608
112944,111643
113053,111708
113025,111697
112989,111678
112891,111634
112955,111677
113025,111698
113043,111691
112992,111677
112881,111611
112962,111658
113026,111705
112985,111683
112956,111642
112870,111608
112880,111621
112945,111638
112865,111594
112766,111559
112579,111494
112603,111469
112619,111495
112492,111416
112367,111337
112090,111264
112000,111194
111962,111173
111773,111100
111630,111017
111436,110923
111463,110947
111451,110985
111400,110910
111324,110911
111202,110826
111298,110885
111406,110964
111412,110943
111416,110939
111343,110903
111504,110990
111664,111070
111658,111080
111681,111085
111660,111063
111774,111138
111913,111199
111896,111188
111934,111168
111887,111147
112018,111248
112079,111271
112075,111273
112045,111229
111999,111231
112115,111254
112248,111344
112162,111268
112144,111270
112092,111269
112174,111301
112216,111347
112190,111283
112176,111284
112074,111272
112163,111308
112250,111351
112168,111291
112073,111243
112028,111239
112128,111289
112171,111358
112154,111306
112114,111298
112057,111254
112176,111331
112257,111378
112226,111320
112149,111317
112121,111330
112258,111361
112373,111391
112309,111392
112246,111333
112235,111311
112325,111394
112394,111433
112339,111349
112257,111362
112277,111335
112366,111384
112414,111400
112351,111420
112252,111322
112268,111319
112358,111389
112346,111403
112336,111408
112241,111305
112223,111341
112338,111382
112354,111403
112336,111367
112260,111309
112235,111336
112358,111386
112397,111396
112332,111398
112268,111355
112308,111367
112375,111400
112440,111399
112408,111381
112310,111341
112381,111377
112469,111449
112489,111385
112503,111396
112394,111367
112395,111376
112552,111419
112573,111458
112530,111390
112465,111374
112488,111417
112586,111445
112643,111456
112602,111417
112510,111418
112577,111403
112637,111447
112699,111478
112655,111447
112538,111389
112632,111411
112679,111488
112705,111491
112675,111449
112559,111374
112651,111437
112739,111453
112762,111489
112734,111452
112630,111437
112667,111436
112778,111484
112786,111508
112746,111451
112629,111420
112708,111458
112826,111505
112761,111511
112740,111445
112662,111397
112718,111420
112820,111525
112820,111495
112728,111465
112644,111405
112744,111488
112801,111512
112810,111485
112765,111467
112658,111409
112750,111474
112828,111544
112789,111474
112726,111446
112648,111421
112757,111458
112813,111508
112784,111499
112746,111471
112633,111440
112743,111465
112802,111509
112816,111503
112768,111475
112643,111452
112733,111490
112822,111517
112815,111495
112749,111457
112622,111452
112736,111476
112850,111544
112797,111522
112759,111486
112673,111475
112774,111482
112807,111521
112797,111497
112754,111455
112682,111478
112773,111472
112857,111558
112765,111514
112750,111459
112682,111454
112775,111500
112874,111546
112802,111520
112731,111501
112714,111446
112796,111541
112877,111552
112817,111524
112787,111503
112713,111479
112856,111574
112846,111591
112830,111544
112809,111509
112749,111508
112842,111535
112888,111583
112850,111544
112796,111513
112737,111500
112894,111563
112934,111576
112872,111540
112814,111514
112784,111472
112883,111562
112903,111553
112902,111505
112853,111481
112803,111491
112958,111558
112952,111533
112934,111545
112862,111459
112878,111496
112989,111570
112995,111560
112988,111553
112877,111525
112904,111549
112995,111567
113031,111615
113004,111585
112890,111507
112907,111555
113002,111567
112990,111580
112945,111528
112824,111479
112789,111494
112860,111518
112843,111505
112737,111437
112553,111370
112478,111328
112508,111387
112401,111313
112273,111204
112026,111126
111913,111053
111820,111038
111686,110949
111520,110863
111308,110770
111262,110788
111325,110789
111250,110766
111173,110703
111069,110653
111103,110671
111265,110787
111244,110769
111222,110751
111199,110733
111314,110845
111467,110922
111472,110900
111516,110934
111443,110842
111624,110979
111722,110999
111760,111038
111817,111060
111742,110992
111844,111084
111986,111140
112034,111146
112001,111118
111918,111067
112049,111154
112099,111185
112168,111189
112111,111172
112060,111142
112118,111176
112187,111235
112212,111226
112136,111177
112063,111148
112154,111215
112219,111239
112198,111250
112194,111213
112092,111199
112187,111193
112271,111275
112237,111263
112221,111209
112159,111176
112244,111226
112365,111284
112292,111251
112316,111242
112213,111216
112346,111262
112425,111335
112375,111266
112317,111300
112267,111260
112379,111298
112470,111326
112390,111330
112339,111237
112245,111234
112335,111301
112413,111310
112397,111264
112277,111271
112243,111209
112326,111274
112405,111298
112328,111291
112261,111196
112229,111216
112330,111260
112376,111291
112341,111255
112290,111218
112209,111223
112344,111255
112414,111314
112344,111286
112335,111229
112289,111253
112446,111306
112477,111349
112427,111305
112391,111238
112350,111250
112440,111333
112527,111312
112511,111330
112430,111302
112395,111297
112519,111362
112575,111386
112538,111317
112464,111304
112450,111296
112550,111375
112614,111377
112536,111337
112499,111318
112470,111328
112567,111385
112589,111365
112571,111343
112524,111300
112489,111347
112639,111352
112649,111376
112623,111359
112474,111289
112525,111302
112647,111377
112657,111379
112606,111355
112537,111330
112544,111338
112647,111380
112696,111387
112650,111371
112560,111306
112614,111346
112655,111392
112714,111390
112649,111396
112564,111304
112627,111374
112719,111405
112726,111425
112686,111368
112594,111301
112624,111376
112738,111373
112736,111395
112669,111396
112571,111301
112665,111352
112737,111429
112729,111413
112726,111378
112609,111295
112704,111377
112727,111389
112781,111383
112737,111402
112620,111339
112676,111380
112778,111407
112753,111411
112693,111405
112596,111337
112689,111378
112754,111466
112727,111413
112746,111391
112594,111358
112668,111385
112807,111433
112764,111401
112749,111377
112631,111348
112718,111382
112809,111430
112776,111416
112757,111402
112637,111347
112714,111393
112826,111450
112788,111436
112735,111384
112647,111397
112729,111381
112845,111461
112811,111431
112755,111408
112662,111368
112760,111438
112852,111439
112837,111437
112764,111396
112709,111364
112834,111414
112914,111470
112843,111465
112801,111369
112750,111397
112831,111427
112951,111479
112873,111427
112839,111438
112738,111383
112869,111427
112923,111502
112866,111442
112806,111378
112775,111389
112848,111468
112924,111453
112874,111428
112728,111411
112715,111375
112727,111370
112774,111404
112637,111364
112545,111272
112425,111219
112479,111226
112431,111265
112276,111163
112128,111068
111976,111040
111901,110999
111820,110978
111612,110877
111457,110769
111311,110726
111343,110758
111393,110753
111300,110703
111232,110681
111230,110672
111383,110758
111484,110815
111503,110835
111486,110798
111555,110840
111728,110917
111842,110998
111852,110984
111839,110943
111892,110976
112021,111088
112076,111075
112083,111070
112001,111016
112041,111063
112183,111143
112207,111149
112149,111104
112098,111086
112121,111129
112184,111142
112243,111201
112190,111150
112124,111110
112164,111123
112257,111193
112246,111186
112243,111152
112121,111097
112170,111167
112247,111162
112256,111182
112250,111171
112123,111120
112202,111161
112305,111205
112329,111197
112298,111209
112211,111134
112265,111182
112382,111234
112387,111236
112370,111186
112268,111172
112335,111225
112407,111251
112448,111258
112374,111244
112284,111128
112363,111192
112433,111249
112410,111212
112366,111227
112249,111154
112305,111179
112380,111234
112366,111201
112316,111171
112207,111134
112303,111192
112383,111220
112341,111199
112323,111182
112235,111134
112314,111193
112386,111231
112380,111219
112357,111188
112263,111150
112378,111197
112467,111253
112426,111228
112418,111208
112315,111157
112430,111215
112513,111282
112508,111248
112445,111196
112393,111176
112485,111225
112605,111280
112524,111252
112514,111246
112436,111220
112514,111263
112574,111322
112586,111267
112520,111257
112454,111245
112531,111273
112652,111319
112595,111269
112570,111287
112506,111226
112619,111287
112651,111337
112633,111291
112564,111272
112531,111257
112623,111314
112705,111316
112644,111289
112613,111267
112553,111264
112653,111300
112718,111348
112686,111300
112598,111271
112589,111252
112653,111309
112735,111343
112672,111293
112605,111289
112594,111255
112657,111312
112720,111353
112688,111309
112581,111253
112586,111257
112703,111300
112741,111334
112703,111334
112632,111238
112581,111267
112723,111316
112753,111332
112721,111294
112654,111272
112627,111267
112741,111338
112760,111349
112738,111308
112687,111250
112656,111279
112750,111323
112808,111364
112771,111307
112653,111267
112663,111304
112747,111335
112817,111353
112769,111322
112686,111251
112716,111293
112803,111347
112837,111336
112771,111322
112682,111283
112725,111278
112850,111360
112839,111334
112798,111312
112739,111296
112758,111310
112823,111361
112864,111338
112817,111318
112757,111317
112799,111291
112894,111377
112924,111383
112864,111387
112756,111301
112792,111292
112909,111348
112917,111377
112874,111354
112759,111265
112818,111351
112928,111380
112938,111378
112888,111355
112785,111271
112864,111345
112971,111405
112945,111362
112941,111340
112771,111306
112890,111357
112953,111396
112952,111404
112911,111356
112798,111313
112867,111373
112945,111372
112887,111388
112836,111317
112714,111259
112701,111262
112745,111272
112658,111272
112561,111201
112396,111113
112342,111119
112343,111117
112251,111070
112123,110994
111892,110890
111874,110919
111820,110882
111745,110835
111609,110749
111497,110708
111481,110730
111573,110780
111603,110727
111558,110753
111473,110723
111602,110801
111737,110832
111795,110856
111736,110872
111698,110808
111857,110916
112007,110939
111976,110973
111989,110946
111913,110943
112067,111027
112151,111036
112143,111050
112115,110998
112066,111006
112196,111065
112269,111102
112247,111076
112185,111068
112168,111023
112271,111089
112314,111130
112289,111103
112211,111067
112136,111058
112285,111096
112291,111128
112265,111066
112160,111077
112132,111020
112250,111109
112272,111124
112245,111109
112203,111088
112180,111032
112302,111141
112334,111131
112328,111149
112241,111098
112271,111121
112409,111162
112420,111195
112417,111135
112330,111137
112314,111134
112420,111170
112423,111205
112406,111157
112352,111109
112288,111155
112404,111168
112442,111192
112388,111162
112285,111102
112288,111077
112379,111156
112394,111178
112405,111142
112281,111051
112293,111110
112328,111116
112404,111157
112332,111107
112250,111067
112273,111080
112368,111146
112420,111134
112373,111150
112232,111077
112295,111133
112393,111159
112415,111143
112400,111137
112312,111118
112336,111122
112430,111178
112450,111185
112406,111153
112339,111098
112362,111171
112492,111216
112494,111186
112427,111154
112377,111110
112423,111205
112510,111202
112535,111214
112524,111174
112444,111156
112468,111130
112562,111228
112593,111235
112569,111211
112488,111153
112536,111225
112621,111243
112650,111241
112621,111222
112530,111164
112576,111207
112676,111262
112671,111247
112643,111216
112557,111212
112596,111194
112683,111258
112703,111241
112653,111241
112562,111173
112654,111239
112709,111295
112716,111253
112679,111240
112578,111170
112659,111252
112757,111282
112713,111223
112697,111250
112579,111213
112688,111247
112756,111282
112744,111250
112693,111219
112638,111188
112688,111235
112793,111302
112720,111283
112696,111243
112642,111225
112680,111254
112776,111322
112710,111235
112726,111263
112586,111218
112724,111261
112797,111293
112708,111293
112676,111223
112649,111235
112684,111252
112762,111282
112781,111274
112682,111266
112626,111208
112730,111275
112807,111307
112774,111254
112724,111266
112616,111218
112748,111288
112799,111335
112759,111281
112730,111242
112700,111260
112777,111281
112844,111353
112765,111285
112723,111270
112695,111250
112747,111320
112852,111316
112802,111326
112724,111232
112720,111254
112784,111326
112848,111370
112807,111297
112751,111300
112726,111249
112793,111326
112837,111334
112828,111332
112727,111285
112748,111264
112825,111363
112901,111348
112851,111316
112748,111278
112762,111259
112845,111363
112907,111359
112851,111341
112806,111287
112760,111288
112890,111364
112886,111358
112888,111322
112766,111301
112811,111301
112936,111325
112962,111381
112869,111331
112817,111304
112806,111293
112899,111378
112895,111366
112916,111366
112762,111281
112763,111303
112851,111347
112799,111337
112739,111241
112556,111212
112473,111182
112509,111178
112409,111135
112230,111047
111999,110915
111799,110846
111723,110785
111545,110741
111366,110606
111148,110484
111099,110488
111085,110481
111090,110479
110975,110459
110885,110383
110914,110417
111032,110505
111043,110499
111030,110498
110919,110428
111064,110490
111181,110609
111235,110572
111294,110609
111174,110599
111329,110618
111511,110731
111556,110721
111525,110762
111459,110705
111630,110763
111703,110876
111701,110833
111725,110820
111631,110771
111756,110861
111816,110861
111873,110888
111804,110871
111733,110817
111800,110873
111917,110934
111849,110875
111832,110880
111755,110841
111836,110895
111909,110925
111908,110880
111855,110922
111770,110815
111900,110909
111955,110917
111960,110901
111911,110921
111845,110872
111962,110906
112087,110986
112050,110987
112063,110987
111948,110936
112078,110973
112172,111051
112133,111019
112110,110978
112036,110933
112145,110990
112219,111037
112171,111026
112129,110989
112028,110937
112166,111025
112224,111048
112196,111020
112114,110992
112056,110934
112155,111012
112198,111020
112183,111026
112113,110967
112083,110936
112177,111001
112215,111056
112182,111005
112128,110951
112097,110984
112164,110981
112241,111051
112221,110994
112165,110948
112152,110985
112227,111011
112339,111092
112308,111042
112186,111007
112184,111032
112327,111051
112375,111089
112357,111045
112290,111017
112260,111022
112432,111099
112442,111128
112387,111062
112360,111050
112311,111052
112433,111102
112457,111136
112434,111068
112346,111061
112349,111056
112463,111084
112509,111150
112480,111090
112377,111023
112419,111084
112472,111106
112533,111147
112503,111108
112404,111078
112474,111080
112541,111160
112590,111124
112579,111107
112497,111069
112498,111085
112626,111159
112631,111134
112615,111125
112504,111067
112552,111129
112618,111146
112645,111161
112604,111153
112501,111083
112525,111105
112638,111180
112682,111170
112603,111123
112519,111091
112580,111129
112647,111161
112688,111153
112621,111136
112531,111088
112597,111135
112673,111182
112714,111166
112597,111137
112548,111097
112639,111138
112680,111190
112670,111160
112632,111149
112544,111115
112600,111158
112699,111163
112686,111167
112635,111159
112530,111083
112668,111142
112668,111193
112668,111136
112676,111156
112536,111090
112626,111131
112727,111176
112673,111149
112690,111177
112549,111107
112666,111157
112732,111210
112730,111173
112694,111157
112587,111114
112679,111160
112687,111218
112738,111202
112664,111164
112574,111143
112652,111165
112766,111170
112746,111178
112695,111130
112629,111114
112682,111197
112767,111183
112789,111189
112713,111158
112634,111128
112758,111169
112822,111226
112776,111214
112754,111155
112677,111136
112800,111235
112827,111210
112808,111210
112777,111179
112665,111139
112814,111195
112862,111245
112797,111192
112788,111162
112721,111140
112814,111218
112899,111222
112817,111190
112813,111194
112727,111155
112857,111179
112896,111276
112844,111230
112745,111168
112731,111160
112723,111163
112838,111211
112701,111153
112578,111088
112464,111025
112460,111085
112455,111043
112325,110984
112104,110866
112010,110856
111981,110823
111866,110797
111681,110701
111511,110583
111412,110537
111384,110547
111416,110556
111364,110503
111246,110469
111215,110476
111346,110525
111429,110593
111421,110540
111360,110535
111373,110542
111566,110671
111631,110679
111625,110670
111635,110690
111677,110729
111799,110761
111930,110828
111842,110802
111806,110727
111842,110772
111992,110845
112020,110881
111982,110831
111917,110806
111949,110828
112076,110888
112053,110864
112054,110876
111932,110816
112009,110864
112078,110912
112132,110915
112081,110891
111954,110851
112008,110842
112105,110911
112098,110903
112047,110877
111976,110840
112013,110870
112089,110949
112146,110912
112087,110922
112047,110849
112108,110881
112199,110977
112182,110912
112217,110939
112091,110923
112205,110928
112318,110987
112316,110992
112266,111012
112177,110893
112257,110980
112359,111011
112368,110984
112299,111000
112188,110888
112256,110995
112312,110996
112272,111000
112249,110953
112159,110893
112178,110954
112289,110993
112247,110958
112205,110940
112074,110910
112181,110945
112280,111005
112210,110966
112197,110943
112105,110897
112237,110960
112274,111031
112277,110985
112245,110962
112166,110891
112252,110992
112351,111009
112306,110983
112279,111012
112186,110912
112321,111006
112399,111007
112341,111028
112303,110976
112210,110980
112302,111009
112449,111037
112363,111054
112312,110999
112301,110977
112391,111065
112401,111063
112402,111040
112347,111019
112274,111014
112370,111045
112485,111091
112412,111066
112368,111012
112342,111016
112465,111075
112467,111111
112485,111045
112400,111057
112372,110986
112496,111055
112512,111084
112457,111066
112441,111033
112350,111057
112509,111082
112525,111131
112513,111076
112437,111058
112410,111053
112473,111093
112579,111121
112497,111049
112459,111043
112404,111037
112518,111110
112599,111100
112553,111074
112478,111063
112452,111044
112539,111115
112580,111095
112569,111121
112468,111039
112460,111061
112564,111082
112597,111132
112562,111079
112479,111039
112480,111037
112613,111130
112650,111144
112545,111094
112495,111012
112530,111069
112632,111125
112612,111127
112610,111080
112517,111051
112518,111079
112647,111100
112624,111114
112611,111128
112507,111061
112535,111076
112665,111117
112666,111153
112628,111083
112525,111068
112563,111100
112638,111125
112679,111137
112620,111078
112526,111081
112573,111081
112669,111162
112678,111122
112617,111145
112546,111047
112598,111097
112675,111139
112713,111110
112651,111138
112526,111042
112626,111109
112730,111151
112710,111136
112657,111131
112544,111031
112654,111147
112715,111164
112712,111119
112660,111138
112580,111078
112642,111117
112750,111158
112703,111155
112687,111108
112583,111080
112646,111133
112806,111181
112690,111135
112700,111136
112596,111063
112674,111165
112757,111185
112747,111122
112715,111148
112592,111113
112692,111139
112779,111191
112764,111167
112698,111151
112613,111052
112748,111180
112807,111198
112790,111135
112759,111114
112684,111120
112761,111131
112860,111208
112761,111133
112752,111129
112678,111100
112751,111145
112839,111200
112774,111141
112701,111112
112576,111044
112650,111107
112634,111106
112527,111012
112380,110994
112226,110890
112194,110889
112150,110862
111942,110743
111711,110679
111428,110499
111418,110506
111309,110472
111160,110373
110973,110287
110794,110214
110858,110249
110849,110268
110753,110199
110703,110152
110652,110146
110780,110217
110852,110272
110801,110259
110797,110231
110825,110224
110933,110336
111036,110372
111069,110372
111059,110362
111047,110385
111233,110479
111290,110494
111353,110512
111310,110511
111341,110523
111460,110608
111574,110622
111507,110571
111509,110589
111490,110595
111636,110663
111703,110672
111634,110634
111599,110608
111602,110628
111717,110676
111753,110716
111728,110666
111630,110652
111595,110611
111745,110719
111710,110703
111692,110665
111641,110633
111582,110622
111706,110707
111685,110699
111651,110649
111581,110639
111569,110637
111737,110717
111760,110733
111762,110690
111661,110701
111734,110714
111818,110780
111865,110756
111896,110793
111744,110710
111839,110732
111915,110819
111974,110807
111921,110794
111850,110742
111877,110756
112012,110857
111986,110834
111929,110789
111851,110747
111877,110804
111979,110811
112009,110819
111945,110777
111820,110735
111905,110783
111975,110856
111935,110810
111953,110811
111819,110736
111922,110799
111983,110818
112009,110829
111932,110822
111849,110753
111972,110813
112028,110825
112030,110820
112039,110820
111925,110784
112007,110837
112093,110894
112053,110848
112090,110854
111976,110819
112091,110831
112176,110905
112186,110888
112153,110870
112055,110861
112171,110866
112263,110948
112209,110888
112231,110862
112121,110857
112211,110899
112279,110958
112265,110937
112222,110913
112108,110862
112248,110931
112325,110959
112292,110921
112250,110928
112171,110854
112283,110949
112382,110991
112319,110946
112293,110923
112234,110885
112317,110959
112394,110958
112362,110956
112354,110958
112264,110902
112341,110971
112437,110986
112391,110962
112321,110959
112284,110939
112363,110989
112427,111000
112370,110996
112353,110942
112267,110927
112394,110981
112426,111020
112391,110996
112339,110964
112259,110956
112397,110954
112416,111003
112391,111004
112324,110944
112292,110931
112389,111015
112418,111032
112394,110991
112337,110958
112315,110933
112411,111008
112454,111025
112421,110990
112362,110943
112324,110942
112410,111024
112492,111037
112436,111024
112380,110964
112348,110947
112470,111011
112476,111048
112476,111021
112385,110964
112368,110972
112476,111037
112497,111018
112487,110997
112399,110962
112403,110963
112518,111009
112554,111039
112477,111050
112432,110946
112423,110990
112547,111068
112580,111081
112517,111011
112425,111002
112461,110976
112581,111080
112602,111031
112551,111044
112450,110973
112499,111031
112578,111073
112613,111079
112566,111037
112469,111025
112476,111038
112620,111058
112637,111087
112568,111061
112458,111027
112512,111038
112629,111100
112609,111075
112602,111071
112491,111022
112551,111061
112645,111107
112655,111090
112569,111096
112532,110997
112563,111065
112652,111103
112655,111065
112614,111079
112529,110984
112623,111080
112683,111103
112675,111096
112652,111102
112503,111035
112631,111071
112698,111076
112677,111106
112683,111069
112539,111036
112658,111101
112752,111133
112708,111132
112688,111073
112596,111016
112675,111089
112746,111109
112730,111119
112679,111074
112592,111032
112710,111083
112776,111158
112716,111128
112711,111059
112615,111063
112672,111082
112727,111106
112690,111039
112567,111022
112456,110939
112494,110997
112462,110959
112329,110904
112177,110816
111968,110740
111879,110695
111821,110653
111632,110569
111397,110474
111184,110345
111155,110338
111113,110337
111007,110275
110918,110230
110779,110163
110850,110204
110920,110231
110867,110244
110857,110194
110826,110196
110936,110272
111078,110333
111065,110319
111049,110354
111031,110302
111223,110419
111285,110417
111346,110476
111326,110433
111307,110482
111426,110506
111520,110594
111494,110565
111501,110564
111453,110542
111593,110569
111658,110634
111630,110622
111556,110595
111514,110563
111633,110575
111703,110680
111633,110614
111574,110568
111541,110572
111639,110655
111694,110630
111647,110597
111572,110586
111519,110561
111608,110588
111703,110658
111631,110610
111556,110567
111542,110567
111651,110615
111694,110673
111640,110631
111568,110594
111589,110609
111742,110716
111788,110724
111754,110703
111710,110660
111714,110680
111853,110714
111886,110772
111884,110748
111786,110683
111829,110721
111931,110770
111993,110787
111914,110771
111838,110687
111881,110721
111960,110776
111990,110775
111957,110770
111831,110723
111867,110715
112002,110794
111988,110768
111943,110765
111826,110746
111897,110710
111967,110769
112025,110799
111930,110756
111897,110714
111914,110763
112015,110792
112050,110829
111970,110784
111897,110749
111981,110754
112109,110819
112113,110835
112080,110792
112032,110755
112066,110844
112139,110846
112214,110890
112145,110870
112020,110797
112107,110855
112266,110903
112207,110930
112163,110849
112111,110848
112195,110858
112222,110914
112260,110913
112211,110912
112091,110808
112219,110890
112264,110929
112287,110914
112216,110884
112143,110830
112232,110902
112337,110919
112351,110921
112303,110905
112201,110863
112320,110895
112450,110973
112386,110962
112369,110909
112251,110895
112325,110932
112450,110985
112432,110980
112377,110928
112280,110906
112377,110949
112493,110994
112414,110973
112411,110917
112291,110910
112426,110985
112477,110996
112425,110952
112386,110927
112304,110919
112458,110946
112505,110997
112449,110951
112413,110928
112324,110933
112443,110944
112542,110988
112514,110949
112454,110942
112406,110909
112499,110979
112551,110974
112520,110965
112474,110950
112386,110914
112503,110952
112594,111026
112543,110946
112499,110959
112450,110905
112571,110982
112574,111030
112564,110962
112524,110975
112453,110954
112533,111004
112634,111060
112575,110999
112528,110965
112462,110959
112564,110996
112629,111037
112586,111033
112525,110938
112509,110986
112580,110983
112658,111062
112636,111030
112528,110972
112495,110971
112602,111018
112671,111075
112610,110998
112525,110967
112569,110979
112631,111062
112678,111026
112650,111034
112569,110973
112603,110985
112692,111071
112725,111049
112676,111013
112607,110950
112596,110997
112670,111044
112771,111075
112685,111056
112600,110966
112661,111023
112719,111042
112793,111091
112737,111032
112641,111011
112659,111001
112785,111074
112803,111091
112743,111058
112674,111028
112687,111010
112768,111072
112777,111070
112772,111061
112666,111020
112707,111054
112780,111074
112801,111090
112774,111060
112643,110977
112672,111017
112739,111068
112748,111060
112620,111022
112453,110891
112432,110954
112469,110953
112350,110909
112179,110805
111974,110664
111843,110685
111794,110619
111588,110508
111407,110445
111172,110309
111174,110351
111159,110296
111031,110278
110966,110240
110799,110168
110885,110167
110993,110247
110926,110215
110927,110214
110835,110167
111014,110261
111104,110349
111112,110290
111147,110320
111082,110312
111214,110415
111320,110451
111346,110472
111385,110433
111364,110445
111454,110489
111597,110583
111630,110567
111614,110555
111543,110561
111703,110587
111776,110657
111791,110668
111738,110638
111683,110562
111797,110658
111847,110697
111886,110710
111790,110659
111742,110627
111850,110661
111914,110719
111857,110682
111796,110655
111737,110640
111834,110655
111895,110704
111847,110666
111836,110673
111759,110658
111847,110695
111980,110747
111929,110701
111895,110700
111848,110690
111982,110754
112067,110790
112006,110756
112010,110734
111933,110743
112052,110764
112126,110818
112055,110781
112014,110761
111957,110721
112033,110787
112125,110837
112071,110776
111955,110730
111933,110726
112018,110779
112078,110792
112009,110757
111949,110734
111894,110717
112003,110777
112065,110805
111982,110763
111935,110726
111923,110706
112029,110785
112086,110788
112022,110766
111975,110734
111992,110727
112098,110801
112130,110817
112098,110781
112056,110775
112040,110750
112166,110823
112236,110858
112192,110823
112092,110805
112098,110760
112237,110864
112289,110865
112238,110824
112198,110799
112168,110817
112296,110883
112363,110927
112281,110851
112220,110814
112237,110832
112359,110924
112433,110909
112320,110883
112253,110812
112307,110881
112358,110950
112439,110924
112405,110904
112297,110849
112338,110895
112440,110961
112443,110919
112435,110928
112315,110858
112393,110878
112498,110953
112453,110935
112470,110916
112370,110863
112399,110917
112481,110938
112539,110940
112462,110943
112347,110875
112438,110906
112532,110980
112535,110963
112487,110925
112401,110859
112473,110923
112522,110979
112546,110934
112464,110951
112393,110889
112442,110928
112550,110973
112555,110971
112475,110905
112404,110898
112500,110922
112538,110981
112519,110946
112522,110962
112372,110884
112467,110895
112568,110997
112545,110957
112476,110927
112414,110879
112465,110923
112568,110972
112570,110974
112523,110907
112433,110908
112520,110952
112617,110987
112572,110946
112521,110946
112445,110901
112573,110964
112617,111011
112605,110994
112529,110955
112490,110932
112581,111010
112646,111029
112589,111002
112537,110934
112499,110922
112576,110992
112628,111023
112615,110969
112590,110975
112496,110925
112625,110988
112692,111040
112650,111025
112604,110965
112558,110970
112670,110994
112744,111076
112682,111020
112647,110988
112581,110978
112690,110994
112773,111050
112717,111002
112661,111022
112631,110972
112735,111065
112765,111092
112709,111069
112648,110993
112649,111009
112776,111039
112808,111082
112752,111076
112679,111003
112651,111013
112727,111033
112825,111098
112715,111063
112678,111017
112682,111038
112722,111058
112773,111075
112675,111034
112586,110958
112521,110959
112534,110939
112527,110946
112404,110899
112213,110787
112104,110762
111989,110701
111882,110650
111616,110510
111384,110363
111221,110303
111155,110304
111114,110242
110947,110221
110772,110077
110712,110090
110772,110119
110790,110128
110709,110100
110649,110029
110705,110119
110781,110108
110863,110144
110837,110135
110749,110123
110836,110168
110998,110233
111047,110274
111053,110287
111002,110268
111051,110286
111226,110364
111262,110397
111248,110369
111213,110376
111287,110393
111404,110478
111430,110476
111431,110463
111369,110424
111448,110470
111530,110517
111557,110554
111501,110495
111434,110454
111458,110482
111545,110534
111520,110514
111428,110491
111324,110426
111413,110437
111467,110501
111473,110475
111429,110445
111324,110424
111389,110476
111513,110512
111487,110502
111480,110505
111375,110435
111497,110469
111630,110609
111623,110567
111629,110557
111500,110506
111660,110598
111711,110638
111742,110617
111738,110618
111620,110553
111712,110635
111770,110688
111731,110628
111692,110600
111568,110568
111670,110587
111773,110662
111714,110615
111666,110569
111541,110534
111645,110569
111739,110637
111660,110579
111619,110582
111528,110497
111671,110584
111710,110621
111682,110601
111653,110577
111609,110550
111699,110626
111781,110618
111779,110633
111744,110586
111669,110578
111755,110637
111878,110684
111814,110687
111779,110615
111739,110602
111886,110663
111948,110736
111915,110695
111902,110687
111849,110665
111988,110702
112029,110732
112034,110731
111982,110723
111949,110681
112088,110741
112131,110794
112127,110783
112091,110753
112022,110755
112136,110769
112238,110852
112195,110793
112144,110762
112117,110760
112218,110839
112294,110852
112243,110831
112190,110778
112161,110797
112246,110820
112342,110860
112260,110830
112179,110784
112201,110806
112269,110856
112317,110882
112270,110852
112225,110794
112232,110801
112299,110864
112382,110887
112323,110837
112273,110825
112220,110830
112345,110853
112410,110887
112324,110866
112254,110806
112260,110825
112369,110893
112399,110870
112377,110869
112263,110816
112282,110821
112413,110867
112463,110908
112376,110881
112293,110814
112340,110842
112460,110914
112443,110898
112409,110860
112366,110861
112360,110829
112479,110922
112459,110893
112449,110860
112330,110834
112411,110854
112496,110897
112495,110915
112502,110900
112372,110808
112476,110871
112509,110938
112537,110908
112499,110895
112392,110815
112437,110873
112549,110942
112523,110903
112551,110921
112413,110867
112509,110910
112578,110969
112576,110904
112561,110929
112434,110849
112521,110902
112633,110962
112571,110953
112521,110906
112487,110866
112550,110917
112621,110967
112586,110925
112612,110928
112469,110886
112569,110902
112658,110975
112652,110925
112584,110919
112513,110875
112616,110935
112657,110983
112616,110923
112632,110942
112504,110865
112604,110927
112700,110998
112634,110959
112605,110947
112534,110882
112607,110967
112730,110978
112647,110976
112592,110921
112503,110919
112612,110948
112703,110987
112638,110934
112662,110941
112550,110887
112682,110969
112756,110976
112673,110950
112689,110935
112563,110954
112672,110939
112777,110995
112710,110975
112666,110951
112594,110921
112729,110956
112769,111017
112771,110997
112698,110956
112664,110951
112720,111020
112769,110991
112773,111004
112694,110957
112675,110934
112728,110976
112814,111028
112738,110999
112681,110918
112578,110927
112698,110964
112715,110985
112620,110937
112462,110871
112404,110802
112387,110824
112398,110820
112213,110760
112039,110651
111930,110575
111900,110591
111823,110523
111647,110457
111441,110341
111318,110298
111336,110346
111317,110303
111218,110265
111099,110207
111030,110193
111146,110234
111150,110265
111118,110211
111107,110198
111049,110242
111214,110299
111311,110333
111309,110295
111264,110300
111337,110345
111458,110407
111591,110451
111557,110459
111541,110417
111581,110473
111732,110553
111802,110536
111787,110505
111709,110502
111750,110560
111880,110575
111939,110627
111894,110586
111800,110547
111840,110565
111946,110625
111955,110627
111927,110617
111796,110548
111856,110591
111961,110613
111963,110663
111932,110598
111803,110540
111852,110587
111932,110654
111935,110645
111873,110593
111799,110564
111860,110604
111987,110665
111974,110629
111942,110627
111875,110571
111971,110624
112073,110686
112056,110692
112031,110662
111938,110614
112032,110634
112110,110729
112097,110688
112086,110690
111976,110637
112073,110700
112133,110706
112137,110717
112070,110699
111982,110634
112076,110670
112181,110730
112116,110708
112076,110670
112001,110635
112064,110685
112148,110697
112135,110714
112084,110686
112006,110632
112085,110712
112129,110728
112159,110742
112079,110682
111998,110643
112104,110679
112196,110778
112169,110707
112129,110719
112008,110645
112161,110686
112208,110763
112183,110712
112158,110710
112070,110667
112224,110747
112285,110783
112245,110752
112236,110718
112130,110713
112203,110722
112349,110781
112274,110793
112253,110750
112237,110722
112298,110792
112378,110819
112377,110784
112301,110751
112255,110734
112344,110814
112417,110805
112405,110826
112358,110758
112292,110753
112391,110812
112465,110822
112397,110829
112349,110778
112329,110766
112427,110831
112495,110851
112430,110807
112387,110778
112379,110743
112475,110845
112519,110878
112509,110839
112430,110786
112413,110756
112507,110856
112529,110886
112506,110832
112421,110779
112432,110791
112522,110856
112560,110871
112545,110857
112447,110804
112435,110815
112516,110833
112587,110895
112536,110825
112481,110797
112453,110824
112550,110862
112607,110888
112541,110847
112510,110792
112478,110858
112570,110867
112611,110890
112585,110856
112479,110820
112517,110820
112633,110895
112615,110920
112572,110848
112526,110803
112541,110836
112583,110921
112638,110879
112619,110900
112520,110829
112534,110847
112631,110889
112668,110893
112599,110867
112531,110812
112558,110881
112653,110909
112657,110897
112654,110885
112536,110843
112579,110846
112674,110910
112662,110886
112637,110894
112559,110809
112593,110873
112672,110915
112681,110924
112647,110885
112560,110823
112620,110848
112711,110931
112699,110906
112666,110908
112566,110817
112637,110862
112765,110931
112714,110935
112688,110910
112584,110846
112671,110894
112734,110916
112766,110939
112720,110895
112602,110853
112694,110905
112747,110931
112718,110930
112696,110883
112663,110857
112694,110912
112799,110951
112773,110917
112718,110868
112689,110862
112730,110927
112846,110952
112797,110924
112800,110923
112678,110855
112809,110930
112851,110981
112838,110919
112785,110915
112698,110881
112785,110917
112893,110979
112844,110972
112800,110937
112710,110890
112793,110968
112866,110997
112845,110942
112777,110935
112681,110855
112782,110923
112834,110957
112763,110905
112669,110837
112570,110833
112571,110804
112576,110844
112480,110771
112356,110719
112216,110648
112240,110688
112237,110663
112129,110606
111998,110519
111846,110489
111884,110491
111875,110534
111796,110438
111676,110399
111623,110402
111704,110434
111791,110464
111729,110447
111712,110438
111693,110423
111819,110493
111885,110527
111908,110521
111867,110540
111859,110486
111990,110558
112106,110644
112079,110617
112010,110608
112022,110562
112150,110657
112230,110689
112147,110667
112135,110627
112080,110647
112242,110691
112289,110741
112250,110728
112176,110650
112133,110659
112258,110720
112278,110733
112249,110670
112169,110650
112198,110662
112255,110740
112302,110730
112258,110680
112186,110661
112179,110655
112259,110735
112326,110733
112288,110725
112170,110662
112240,110656
112359,110742
112379,110763
112337,110744
112241,110666
112301,110717
112394,110761
112422,110756
112393,110767
112294,110686
112302,110737
112418,110778
112454,110782
112407,110741
112307,110720
112345,110722
112404,110740
112435,110765
112353,110758
112260,110681
112321,110747
112388,110745
112388,110776
112312,110723
112266,110680
112307,110730
112404,110769
112361,110734
112288,110757
112179,110636
112305,110724
112376,110781
112346,110771
112299,110731
112237,110706
112320,110695
112404,110788
112376,110735
112354,110780
112249,110695
112351,110737
112460,110818
112410,110790
112401,110774
112293,110695
112432,110760
112498,110830
112442,110785
112451,110759
112369,110715
112446,110768
112521,110829
112533,110814
112493,110809
112369,110734
112484,110804
112557,110839
112547,110842
112528,110799
112420,110764
112509,110825
112583,110836
112548,110853
112493,110766
112446,110780
112484,110808
112580,110848
112560,110811
112541,110832
112429,110773
112549,110814
112639,110868
112563,110853
112541,110800
112467,110773
112563,110859
112611,110838
112587,110821
112534,110818
112448,110797
112586,110844
112607,110860
112588,110812
112522,110828
112460,110789
112588,110862
112629,110871
112584,110819
112513,110818
112457,110784
112587,110849
112652,110911
112582,110886
112567,110811
112503,110826
112552,110824
112662,110916
112576,110856
112539,110810
112512,110805
112580,110855
112704,110874
112588,110887
112541,110821
112500,110833
112596,110885
112638,110874
112632,110889
112544,110821
112513,110831
112603,110872
112661,110894
112620,110841
112559,110855
112516,110835
112652,110890
112683,110889
112676,110894
112535,110804
112562,110815
112653,110914
112678,110904
112654,110871
112571,110860
112534,110819
112688,110889
112728,110947
112641,110896
112572,110827
112595,110846
112692,110934
112729,110899
112700,110895
112568,110825
112619,110869
112685,110911
112755,110916
112699,110908
112612,110862
112613,110892
112721,110928
112764,110954
112666,110906
112633,110876
112653,110912
112744,110940
112737,110940
112727,110894
112605,110857
112641,110877
112762,110921
112788,110935
112725,110920
112671,110840
112705,110907
112783,110922
112794,110942
112767,110933
112635,110861
112758,110911
112817,110937
112810,110934
112794,110946
112630,110839
112736,110914
112753,110915
112721,110897
112690,110903
112512,110805
112530,110849
112560,110851
112451,110796
112319,110713
112114,110607
112031,110581
111984,110546
111784,110461
111588,110374
111346,110270
111345,110256
111266,110229
111124,110173
111056,110110
110881,110021
110900,110046
110928,110083
110883,110029
110836,110018
110782,109992
110866,110043
110943,110087
111004,110108
110970,110093
110945,110073
111030,110152
111184,110219
111246,110219
111189,110211
111142,110193
111319,110267
111438,110331
111437,110348
111404,110310
111386,110297
111549,110398
111603,110435
111591,110405
111586,110401
111534,110385
111646,110429
111703,110482
111693,110463
111655,110417
111584,110412
111682,110469
111735,110493
111699,110476
111631,110412
111560,110397
111667,110459
111701,110435
111657,110449
111617,110405
111555,110420
111632,110461
111765,110497
111695,110470
111639,110435
111664,110462
111724,110481
111838,110571
111798,110530
111727,110500
111702,110508
111834,110542
111910,110589
111862,110538
111786,110504
111759,110508
111868,110551
111910,110582
111857,110548
111761,110528
111775,110514
111789,110548
111879,110568
111832,110547
111721,110472
111694,110492
111790,110524
111811,110532
111724,110482
111649,110429
111642,110430
111729,110512
111774,110521
111702,110480
111610,110439
111659,110495
111737,110501
111816,110524
111753,110496
111643,110489
111708,110504
111810,110561
111852,110548
111863,110549
111738,110516
111776,110557
111919,110584
111952,110592
111922,110592
111831,110521
111897,110556
111997,110644
112034,110656
112002,110629
111931,110606
111979,110637
112089,110663
112138,110685
112104,110685
111995,110631
112068,110669
112191,110746
112225,110745
112166,110709
112082,110639
112177,110694
112203,110776
112261,110745
112197,110722
112155,110696
112203,110738
112311,110739
112284,110775
112274,110744
112180,110677
112259,110757
112335,110769
112316,110764
112313,110753
112211,110694
112287,110782
112393,110780
112352,110810
112371,110753
112268,110689
112302,110756
112439,110829
112394,110785
112374,110755
112269,110692
112391,110777
112446,110830
112442,110793
112453,110782
112323,110729
112412,110819
112495,110837
112442,110801
112425,110764
112313,110725
112439,110807
112520,110825
112469,110804
112435,110791
112343,110748
112448,110803
112544,110842
112485,110818
112450,110793
112355,110762
112467,110844
112568,110862
112488,110827
112468,110802
112375,110765
112501,110829
112578,110867
112550,110844
112488,110819
112429,110805
112555,110840
112603,110882
112545,110852
112466,110808
112458,110821
112558,110844
112605,110862
112560,110838
112514,110810
112494,110810
112584,110840
112637,110866
112600,110842
112525,110813
112478,110803
112601,110852
112686,110895
112621,110882
112534,110814
112538,110803
112644,110849
112672,110884
112651,110882
112570,110829
112548,110815
112643,110865
112747,110913
112684,110855
112599,110818
112574,110830
112699,110895
112742,110909
112689,110874
112606,110835
112605,110859
112714,110894
112746,110911
112685,110893
112613,110839
112623,110861
112745,110903
112747,110919
112716,110901
112661,110846
112648,110844
112750,110909
112783,110926
112762,110892
112629,110859
112678,110873
112768,110929
112819,110951
112778,110893
112680,110863
112702,110876
112814,110948
112867,110946
112830,110937
112724,110883
112730,110911
112853,110967
112837,110937
112816,110926
112720,110874
112750,110881
112798,110946
112820,110928
112708,110900
112580,110823
112530,110814
112559,110835
112483,110786
112340,110724
112092,110594
112011,110558
111983,110542
111721,110430
111551,110305
111216,110177
111183,110185
111187,110159
111012,110067
110918,110034
110696,109935
110741,109950
110818,109987
110767,109969
110747,109946
110603,109865
110699,109951
110812,109984
110800,109978
110840,110010
110785,109988
110856,110019
110985,110102
111017,110137
111030,110107
110974,110114
111092,110155
111221,110215
111237,110227
111255,110198
111219,110205
111360,110247
111456,110338
111479,110356
111442,110297
111411,110281
111495,110341
111606,110401
111586,110373
111528,110334
111459,110341
111569,110375
111613,110428
111576,110386
111549,110391
111465,110342
111508,110387
111608,110392
111555,110391
111498,110367
111423,110340
111561,110390
111624,110415
111622,110421
111603,110377
111510,110358
111662,110432
111767,110468
111785,110494
111746,110460
111687,110425
111856,110497
111935,110581
111878,110556
111852,110502
111838,110522
111885,110537
111950,110630
111941,110557
111887,110520
111833,110492
111947,110562
112011,110605
111929,110535
111904,110505
111847,110508
111956,110553
112002,110611
111949,110558
111902,110519
111885,110486
111980,110563
112050,110614
111972,110547
111942,110533
111902,110557
112013,110593
112070,110600
112081,110606
111978,110565
111974,110549
112097,110620
112154,110617
112110,110626
112084,110580
112039,110603
112170,110654
112217,110669
112163,110649
112110,110590
112133,110598
112234,110699
112294,110704
112225,110675
112171,110642
112206,110630
112272,110705
112356,110738
112313,110679
112184,110647
112263,110693
112377,110735
112356,110745
112345,110731
112252,110670
112282,110696
112417,110771
112433,110767
112421,110725
112315,110691
112370,110738
112467,110774
112498,110789
112409,110753
112338,110691
112394,110700
112490,110810
112472,110779
112467,110761
112362,110711
112422,110757
112496,110797
112534,110774
112467,110788
112351,110713
112436,110741
112529,110776
112568,110778
112489,110733
112382,110733
112447,110739
112547,110782
112549,110782
112487,110740
112412,110702
112473,110757
112560,110798
112551,110770
112504,110771
112398,110723
112503,110772
112595,110829
112555,110797
112540,110776
112406,110738
112518,110786
112604,110812
112597,110813
112505,110766
112433,110726
112530,110782
112590,110844
112576,110804
112547,110798
112474,110727
112522,110777
112627,110827
112577,110808
112574,110788
112480,110746
112561,110794
112673,110851
112604,110799
112578,110792
112468,110735
112589,110798
112650,110847
112624,110823
112572,110785
112525,110742
112603,110815
112683,110858
112624,110839
112608,110788
112515,110762
112632,110829
112717,110843
112667,110840
112608,110792
112534,110783
112664,110864
112741,110862
112673,110839
112648,110800
112553,110767
112670,110827
112735,110866
112701,110834
112651,110828
112594,110777
112682,110842
112771,110888
112717,110839
112627,110795
112591,110803
112709,110830
112774,110862
112733,110846
112678,110807
112642,110793
112757,110828
112824,110866
112781,110861
112697,110801
112652,110804
112791,110879
112865,110893
112757,110840
112736,110811
112709,110808
112791,110864
112881,110905
112826,110858
112780,110829
112755,110820
112805,110874
112887,110898
112833,110867
112789,110819
112759,110810
112837,110868
112909,110865
112821,110856
112759,110825
112764,110843
112867,110871
112900,110883
112779,110819
112659,110770
112643,110752
112690,110804
112663,110770
112499,110700
112346,110638
112279,110612
112286,110633
112191,110568
112006,110481
111814,110384
111743,110356
111764,110344
111692,110309
111605,110280
111458,110217
111447,110242
111562,110296
111530,110256
111530,110263
111462,110238
111539,110299
111649,110352
111729,110349
111716,110368
111692,110338
111779,110396
111924,110456
111929,110460
111973,110486
111909,110406
111996,110508
112139,110580
112130,110536
112130,110555
112054,110490
112175,110562
112272,110633
112227,110626
112258,110576
112149,110538
112236,110599
112290,110642
112305,110622
112287,110623
112183,110553
112230,110585
112325,110625
112336,110667
112285,110580
112179,110537
112263,110634
112318,110635
112367,110629
112268,110613
112164,110563
112300,110639
112368,110675
112379,110640
112363,110657
112271,110596
112358,110647
112451,110702
112347,110671
112371,110634
112274,110602
112405,110652
112443,110693
112409,110641
112387,110650
112278,110612
112368,110674
112427,110659
112403,110663
112325,110642
112254,110618
112333,110635
112382,110691
112377,110682
112286,110602
112215,110593
112283,110637
112361,110655
112277,110621
112251,110600
112166,110571
112264,110643
112313,110667
112264,110652
112233,110602
112174,110593
112296,110642
112362,110690
112311,110652
112262,110603
112217,110605
112354,110695
112431,110695
112350,110686
112288,110639
112263,110625
112397,110681
112474,110718
112418,110699
112372,110660
112353,110633
112460,110701
112512,110724
112484,110706
112433,110664
112394,110673
112520,110722
112548,110747
112556,110706
112471,110683
112465,110700
112573,110729
112599,110766
112567,110738
112507,110707
112499,110743
112606,110763
112624,110787
112583,110770
112511,110696
112511,110711
112577,110773
112669,110772
112602,110769
112551,110719
112527,110739
112648,110777
112654,110782
112634,110750
112504,110726
112537,110731
112639,110791
112672,110800
112592,110794
112537,110705
112558,110752
112657,110797
112650,110772
112669,110779
112524,110710
112557,110749
112683,110773
112678,110809
112637,110786
112517,110688
112584,110752
112690,110818
112664,110803
112619,110754
112547,110724
112572,110787
112665,110794
112670,110800
112641,110734
112544,110749
112569,110763
112717,110816
112697,110772
112607,110786
112537,110709
112615,110766
112701,110821
112676,110769
112648,110752
112512,110718
112607,110749
112681,110818
112698,110802
112662,110758
112578,110719
112623,110794
112707,110777
112717,110798
112662,110782
112547,110704
112650,110786
112719,110797
112715,110784
112708,110792
112575,110742
112664,110765
112730,110799
112751,110822
112680,110804
112603,110731
112698,110789
112789,110836
112746,110831
112677,110758
112643,110783
112723,110809
112805,110879
112732,110807
112730,110780
112610,110786
112709,110816
112809,110833
112781,110841
112759,110806
112681,110754
112780,110834
112858,110880
112811,110857
112771,110804
112678,110779
112795,110844
112847,110838
112839,110843
112792,110836
112717,110789
112772,110846
112837,110871
112786,110798
112743,110815
112619,110740
112707,110797
112731,110800
112590,110772
112457,110650
112319,110626
112331,110623
112250,110602
112120,110496
111851,110409
111666,110292
111590,110277
111568,110259
111383,110206
111235,110083
111110,110062
111153,110071
111145,110082
111060,110033
110956,109982
110932,109974
111016,110029
111126,110081
111069,110058
111053,110015
111050,110044
111206,110150
111309,110140
111302,110128
111262,110171
111330,110184
111463,110249
111560,110305
111543,110283
111552,110256
111567,110310
111719,110390
111782,110411
111802,110399
111710,110366
111779,110391
111842,110455
111929,110459
111888,110459
111774,110377
111791,110437
111935,110466
111959,110477
111928,110465
111806,110416
111852,110439
111949,110469
112005,110507
111921,110473
111841,110420
111867,110459
112006,110523
112039,110516
111996,110524
111919,110451
112001,110497
112055,110563
112115,110551
112104,110571
112024,110483
112079,110544
112172,110594
112177,110583
112152,110556
112045,110520
112098,110572
112145,110597
112169,110611
112112,110595
112010,110518
112060,110541
112181,110618
112114,110532
112084,110575
111940,110465
112036,110520
112119,110591
112059,110518
112047,110494
111926,110472
112001,110529
112040,110534
112047,110529
111996,110538
111912,110419
111998,110513
112061,110550
112044,110565
112032,110522
111955,110486
112075,110504
112137,110602
112116,110589
112106,110534
112041,110547
112124,110549
112245,110623
112197,110609
112184,110572
112106,110564
112202,110607
112299,110674
112260,110627
112224,110615
112165,110586
112267,110628
112378,110670
112353,110680
112262,110639
112220,110597
112327,110686
112382,110673
112405,110713
112329,110657
112267,110637
112373,110669
112469,110714
112406,110689
112418,110668
112330,110651
112406,110713
112494,110745
112476,110711
112408,110693
112343,110676
112435,110696
112562,110757
112476,110742
112452,110691
112384,110675
112497,110728
112530,110734
112497,110719
112463,110697
112422,110657
112504,110724
112569,110746
112536,110753
112419,110702
112405,110663
112521,110737
112571,110761
112550,110734
112463,110718
112432,110677
112531,110745
112611,110779
112539,110748
112470,110681
112455,110718
112567,110770
112615,110765
112533,110741
112476,110671
112479,110715
112582,110774
112612,110772
112553,110753
112477,110697
112499,110707
112599,110802
112585,110769
112601,110777
112529,110698
112488,110717
112636,110783
112612,110789
112614,110768
112519,110715
112557,110730
112632,110787
112637,110770
112616,110792
112505,110724
112542,110763
112645,110816
112649,110771
112634,110791
112562,110729
112582,110734
112675,110785
112694,110816
112660,110795
112565,110756
112554,110731
112653,110799
112737,110824
112666,110813
112551,110754
112632,110773
112714,110830
112700,110847
112678,110796
112548,110756
112634,110764
112733,110828
112713,110828
112685,110821
112569,110747
112650,110808
112751,110847
112728,110821
112687,110831
112577,110752
112702,110821
112747,110861
112753,110846
112722,110799
112628,110766
112718,110813
112733,110837
112774,110882
112740,110827
112618,110777
112684,110813
112789,110861
112767,110845
112721,110826
112644,110779
112712,110809
112828,110846
112766,110842
112762,110852
112685,110796
112783,110841
112811,110885
112809,110869
112797,110837
112679,110799
112790,110854
112834,110865
112813,110876
112771,110812
112686,110789
112739,110837
112794,110848
112737,110861
112637,110776
112500,110712
112497,110711
112486,110719
112299,110628
112092,110504
111842,110394
111686,110331
111589,110260
111372,110191
111163,110057
110861,109927
110867,109918
110827,109914
110725,109813
110587,109769
110455,109720
110521,109777
110561,109801
110505,109743
110415,109726
110333,109699
110464,109727
110551,109820
110518,109796
110511,109768
110503,109765
110617,109865
110757,109879
110720,109915
110696,109876
110729,109862
110878,109954
111013,110033
111021,110007
110977,109974
111014,110054
111130,110069
111266,110146
111221,110150
111219,110113
111217,110125
111335,110209
111427,110223
111355,110209
111334,110183
111289,110196
111382,110219
111454,110256
111404,110249
111302,110191
111284,110164
111387,110227
111395,110246
111348,110188
111307,110117
111249,110172
111366,110215
111407,110223
111427,110194
111359,110162
111397,110211
111519,110316
111522,110288
111514,110246
111471,110228
111476,110265
111673,110370
111653,110344
111655,110342
111562,110302
111584,110324
111690,110348
111718,110365
111647,110339
111535,110293
111611,110314
111682,110379
111657,110335
111625,110333
111510,110275
111552,110326
111602,110309
111631,110320
111564,110321
111477,110236
111528,110297
111587,110317
111621,110339
111580,110276
111490,110223
111543,110288
111629,110369
111633,110340
111616,110300
111540,110274
111577,110337
111708,110341
111748,110385
111694,110350
111598,110301
111655,110371
111756,110381
111849,110407
111763,110414
111687,110337
111808,110396
111894,110474
111915,110439
111920,110481
111810,110396
111942,110462
112029,110489
112048,110503
111994,110490
111894,110459
112042,110520
112110,110568
112125,110525
112059,110536
112009,110485
112102,110547
112185,110565
112157,110566
112124,110552
112070,110498
112153,110560
112251,110619
112213,110574
112191,110592
112095,110518
112167,110591
112275,110617
112288,110620
112219,110567
112146,110565
112230,110607
112331,110618
112304,110620
112228,110562
112185,110555
112249,110640
112360,110650
112333,110632
112254,110602
112173,110578
112291,110604
112362,110669
112325,110636
112265,110614
112184,110586
112311,110624
112416,110689
112333,110633
112305,110625
112223,110610
112325,110640
112399,110690
112346,110665
112309,110617
112258,110609
112346,110674
112405,110684
112398,110647
112304,110610
112300,110635
112378,110695
112409,110693
112412,110689
112321,110633
112310,110617
112392,110698
112455,110692
112421,110669
112337,110624
112307,110618
112454,110693
112488,110694
112464,110709
112391,110623
112366,110648
112475,110706
112525,110722
112464,110712
112430,110652
112404,110674
112521,110705
112552,110747
112506,110698
112430,110658
112445,110677
112517,110722
112579,110754
112547,110746
112460,110640
112485,110672
112540,110730
112632,110757
112553,110731
112503,110661
112507,110706
112621,110742
112646,110755
112588,110749
112500,110696
112556,110718
112644,110785
112680,110774
112573,110732
112532,110671
112565,110740
112645,110753
112713,110775
112660,110738
112527,110704
112573,110710
112681,110783
112715,110785
112622,110773
112557,110683
112622,110711
112709,110785
112714,110781
112705,110757
112601,110703
112658,110754
112744,110770
112768,110806
112672,110780
112606,110729
112660,110757
112771,110799
112755,110801
112740,110755
112609,110694
112716,110754
112802,110796
112766,110797
112756,110768
112660,110723
112760,110791
112838,110801
112818,110823
112787,110770
112676,110715
112781,110773
112842,110820
112843,110821
112770,110813
112725,110750
112810,110800
112861,110828
112837,110784
112822,110822
112719,110724
112753,110774
112822,110819
112781,110777
112663,110724
112497,110652
112516,110667
112518,110678
112395,110605
112171,110482
111947,110378
111881,110363
111782,110340
111543,110215
111373,110108
111162,109992
111125,110028
111088,109994
110992,109928
110854,109846
110727,109815
110819,109860
110851,109892
110841,109855
110817,109878
110743,109827
110878,109926
110964,109954
110962,109951
110947,109973
110965,109946
111089,110028
111207,110093
111196,110078
111205,110055
111211,110062
111327,110149
111465,110235
111414,110217
111439,110193
111433,110169
111531,110240
111634,110284
111617,110284
111588,110262
111559,110250
111635,110317
111777,110364
111691,110316
111625,110291
111572,110271
111709,110320
111759,110365
111719,110327
111639,110280
111589,110268
111652,110324
111717,110351
111633,110305
111598,110267
111554,110244
111687,110321
111754,110369
111704,110323
111660,110266
111627,110325
111736,110384
111834,110368
111822,110370
111706,110330
111679,110348
111862,110403
111874,110437
111823,110400
111763,110323
111770,110333
111889,110423
111845,110407
111835,110390
111711,110348
111746,110372
111833,110388
111883,110400
111799,110393
111696,110306
111728,110339
111768,110400
111817,110374
111794,110375
111663,110285
111701,110347
111817,110353
111808,110381
111774,110365
111707,110324
111784,110350
111851,110398
111891,110391
111864,110412
111748,110321
111824,110374
111938,110439
111979,110427
111931,110411
111876,110380
111929,110424
112027,110471
112055,110476
112023,110447
111953,110408
112025,110466
112136,110530
112158,110503
