11111,11111
0,0
82423,82458
133770,108464
137141,108423
137101,108408
137069,108393
136959,108380
136853,108320
136832,108288
136845,108276
136805,108247
136804,108279
136673,108259
136680,108230
136718,108257
136733,108214
136674,108217
136616,108236
136623,108182
136666,108231
136649,108240
136638,108188
136613,108193
136627,108216
136694,108206
136673,108212
136651,108200
136663,108253
136693,108261
136743,108231
136788,108249
136787,108262
136768,108279
136816,108231
136910,108290
136893,108314
136910,108298
136885,108300
136991,108365
137021,108358
137071,108363
137030,108374
136994,108323
137081,108363
137130,108371
137102,108361
137120,108357
137098,108404
137152,108378
137184,108375
137211,108381
137192,108388
137147,108383
137207,108432
137206,108423
137247,108424
137208,108403
137165,108372
137198,108443
137215,108405
137215,108373
137176,108393
137151,108368
137199,108417
137202,108402
137213,108397
137210,108390
137129,108420
137219,108379
137228,108397
137176,108360
137157,108376
137159,108394
137216,108396
137201,108406
137198,108372
137200,108393
137180,108362
137267,108401
137281,108422
137310,108426
137209,108406
137229,108387
137327,108433
137327,108452
137303,108425
137290,108422
137309,108460
137347,108438
137433,108436
137396,108482
137369,108477
137378,108434
137450,108464
137488,108473
137514,108498
137450,108509
137435,108517
137526,108503
137581,108502
137575,108529
137530,108517
137556,108510
137626,108523
137654,108545
137664,108545
137647,108578
137592,108508
137702,108556
137717,108567
137680,108559
137707,108557
137657,108554
137759,108571
137784,108596
137756,108611
137770,108592
137744,108623
137820,108585
137904,108638
137830,108620
137821,108627
137847,108602
137907,108646
137926,108668
137891,108630
136684,108139
136670,108113
136931,108257
136983,108267
137068,108264
137060,108282
137225,108362
137231,108316
137300,108360
137279,108330
137296,108365
137376,108373
137318,108363
137303,108340
137266,108345
137326,108367
137375,108388
137343,108386
137339,108355
137329,108394
137410,108391
137423,108395
137431,108384
137376,108421
137392,108374
137485,108439
137478,108423
137504,108413
137431,108410
137494,108420
137550,108446
137563,108422
137545,108477
137482,108417
137579,108433
137626,108464
137606,108481
137616,108476
137567,108446
137632,108481
137707,108481
137739,108508
137701,108492
137670,108514
137735,108498
137805,108540
137825,108539
137782,108556
137780,108514
137819,108568
137872,108549
137871,108587
137867,108555
137861,108530
137848,108563
137950,108567
137922,108598
137919,108556
137939,108566
137931,108595
137974,108621
138008,108620
138011,108592
138025,108600
138006,108642
138062,108628
138153,108631
138142,108627
138092,108658
138083,108602
138122,108654
138144,108621
138078,108617
138021,108613
137987,108549
138002,108592
137935,108572
137874,108523
137810,108505
137739,108502
137745,108513
137721,108474
137600,108419
137488,108378
137507,108383
137485,108382
137406,108372
137320,108300
137227,108266
137230,108309
137230,108287
137190,108288
137104,108245
137044,108205
137058,108262
137070,108194
137088,108232
136994,108201
136950,108155
136963,108222
137021,108202
137004,108202
136970,108158
136940,108216
136963,108169
137011,108195
137040,108230
137003,108249
136937,108175
137023,108180
137049,108239
137059,108213
137046,108221
136982,108209
137062,108214
137123,108275
137158,108241
137149,108272
137095,108277
137192,108262
137237,108266
137257,108313
137230,108274
137255,108268
137303,108298
137379,108335
137353,108340
137383,108321
137332,108337
137431,108379
137433,108364
137485,108383
137482,108362
137431,108401
137525,108395
137531,108399
137546,108400
137500,108381
137517,108401
137557,108398
137587,108407
137581,108386
137555,108410
137467,108363
137569,108380
137572,108415
137550,108375
137558,108388
137469,108422
137538,108394
137552,108404
137583,108390
137509,108392
137499,108359
137539,108367
137587,108383
137577,108386
137553,108407
137487,108372
137524,108397
137584,108368
137589,108412
137570,108413
137552,108359
137629,108396
137673,108413
137603,108392
137592,108393
137596,108393
137650,108413
137709,108462
137670,108429
137630,108396
137652,108445
137707,108387
137756,108454
137725,108451
137708,108452
137712,108427
137785,108466
137836,108468
137812,108475
137775,108477
137794,108509
137842,108506
137885,108497
137861,108543
137863,108497
137882,108512
137946,108514
138004,108568
137967,108527
137974,108521
137928,108567
137989,108534
138064,108565
138029,108584
137991,108526
137995,108581
138060,108586
138136,108600
138101,108607
138044,108554
138062,108597
138142,108587
138162,108610
138164,108594
138156,108600
138134,108647
138227,108610
138283,108630
138231,108650
138202,108603
138244,108666
138284,108653
138363,108647
138302,108644
138267,108647
138312,108665
138371,108673
138418,108700
138378,108658
138319,108688
138364,108674
138323,108640
138343,108646
138277,108653
138172,108587
138146,108578
138168,108561
138111,108566
138037,108558
137913,108503
137888,108498
137909,108473
137862,108430
137795,108437
137626,108404
137651,108366
137652,108386
137564,108343
137491,108308
137389,108265
137396,108308
137397,108280
137346,108253
137301,108232
137184,108213
137208,108217
137219,108199
137206,108217
137130,108205
137073,108173
137065,108181
137110,108133
137125,108195
137073,108178
137006,108182
137089,108180
137093,108183
137128,108193
137104,108196
137024,108150
137091,108177
137153,108192
137140,108207
137143,108190
137126,108182
137180,108221
137217,108213
137266,108213
137207,108227
137235,108229
137263,108268
137318,108251
137351,108255
137362,108268
137317,108282
137400,108307
137460,108312
137489,108296
137480,108309
137433,108349
137510,108360
137549,108359
137582,108374
137543,108353
137559,108342
137613,108365
137644,108384
137671,108355
137643,108377
137570,108370
137635,108398
137680,108396
137656,108378
137613,108356
137625,108391
137624,108384
137647,108405
137653,108366
137640,108360
137582,108359
137643,108357
137693,108388
137671,108356
137611,108361
137594,108393
137617,108364
137649,108344
137652,108381
137585,108327
137584,108348
137648,108383
137641,108358
137669,108348
137619,108363
137569,108359
137678,108377
137661,108368
137708,108377
137615,108417
137609,108349
137698,108367
137697,108403
137688,108376
137646,108413
137675,108361
137764,108423
137778,108382
137737,108433
137710,108378
137740,108424
137810,108445
137834,108414
137841,108448
137818,108401
137810,108431
137886,108437
137915,108459
137918,108474
137867,108444
137917,108449
137977,108502
137967,108458
138009,108493
137959,108489
137941,108463
138043,108515
138099,108530
138070,108530
138034,108469
138083,108523
138140,108544
138154,108528
138171,108581
138162,108539
138169,108565
138252,108564
138274,108557
138244,108582
138242,108535
138298,108614
138359,108618
138381,108612
138377,108632
138367,108599
138362,108620
138446,108642
138458,108640
138482,108633
138448,108660
138471,108668
138486,108667
138530,108667
138513,108678
138392,108613
138456,108661
138457,108617
138399,108591
138346,108612
138245,108561
138200,108533
138229,108531
138153,108496
138089,108494
137953,108437
137913,108436
137894,108415
137861,108375
137756,108356
137620,108297
137601,108282
137602,108260
137515,108277
137433,108261
137354,108199
137313,108177
137316,108195
137283,108191
137236,108160
137099,108142
137178,108155
137159,108124
137164,108124
137101,108105
137054,108082
137070,108115
137132,108116
137128,108109
137073,108104
137033,108108
137089,108120
137180,108117
137113,108114
137142,108126
137097,108097
137124,108145
137185,108135
137170,108133
137217,108138
137182,108148
137271,108188
137277,108211
137330,108179
137316,108175
137293,108177
137404,108226
137428,108215
137463,108226
137487,108244
137443,108225
137542,108285
137573,108300
137571,108259
137599,108294
137571,108298
137612,108301
137660,108289
137714,108337
137680,108321
137605,108338
137683,108323
137736,108309
137739,108341
137672,108319
137608,108301
137722,108311
137696,108339
137700,108296
137671,108314
137581,108296
137661,108303
137680,108302
137653,108304
137586,108288
137582,108284
137616,108283
137680,108277
137613,108290
137600,108297
137549,108249
137615,108280
137624,108309
137640,108267
137575,108267
137523,108268
137592,108269
137616,108265
137596,108273
137580,108253
137527,108230
137618,108281
137620,108264
137641,108286
137548,108267
137575,108298
137637,108283
137671,108262
137682,108293
137612,108312
137613,108250
137687,108280
137722,108304
137660,108287
137654,108269
137697,108326
137780,108337
137769,108352
137745,108313
137730,108275
137719,108350
137786,108337
137811,108365
137825,108328
137795,108347
137813,108337
137899,108347
137900,108403
137919,108377
137841,108353
137905,108359
137976,108367
138000,108442
137998,108394
137963,108418
137956,108372
138021,108417
138077,108434
138070,108422
137986,108433
138011,108408
138108,108427
138118,108438
138133,108444
138100,108449
138099,108454
138175,108438
138247,108504
138217,108461
138169,108472
138211,108465
138290,108516
138278,108492
138268,108489
138229,108508
138287,108491
138326,108520
138297,108501
138297,108499
138211,108499
138195,108457
138222,108439
138177,108432
138096,108410
137925,108377
137969,108380
137930,108332
137876,108334
137783,108253
137692,108259
137641,108221
137622,108239
137545,108209
137435,108161
137330,108101
137301,108113
137320,108109
137211,108055
137160,108021
137024,108021
137009,108021
137039,107997
137008,108007
136945,107997
136815,107957
136856,107958
136895,107949
136900,107931
136834,107937
136726,107926
136795,107914
136823,107928
136805,107897
136808,107906
136725,107913
136797,107924
136816,107908
136849,107944
136769,107931
136758,107891
136839,107942
136906,107937
136889,107981
136876,107973
136815,107933
136950,107996
136996,108003
136969,107991
136980,108003
136913,107965
137049,108025
137095,108015
137149,108035
137100,108051
137052,108004
137132,108063
137218,108064
137203,108061
137184,108040
137177,108085
137235,108068
137297,108079
137273,108085
137282,108065
137232,108126
137276,108116
137351,108128
137282,108095
137276,108086
137268,108095
137341,108140
137326,108123
137301,108101
137286,108095
137224,108091
137314,108077
137320,108106
137297,108086
137205,108051
137242,108083
137244,108086
137263,108066
137307,108098
137211,108082
137181,108085
137252,108075
137244,108082
137257,108062
137220,108073
137179,108035
137240,108054
137260,108047
137281,108064
137211,108067
137204,108082
137269,108060
137290,108085
137300,108027
137252,108045
137212,108099
137278,108073
137362,108112
137309,108090
137304,108100
137303,108070
137414,108130
137390,108089
137402,108136
137360,108134
137335,108140
137413,108115
137519,108143
137480,108159
137411,108117
137435,108151
137528,108173
137588,108172
137554,108192
137531,108161
137516,108183
137637,108188
137649,108186
137628,108206
137546,108184
137622,108187
137693,108226
137694,108230
137686,108237
137649,108181
137689,108238
137735,108238
137791,108220
137739,108255
137728,108214
137738,108251
137797,108249
137839,108260
137807,108270
137737,108240
137806,108302
137842,108250
137941,108323
137869,108278
137847,108281
137852,108271
137970,108300
137975,108319
137892,108300
137893,108280
137905,108332
137947,108309
137966,108309
137926,108265
137850,108280
137819,108279
137833,108270
137790,108223
137733,108219
137562,108173
137594,108142
137552,108146
137473,108081
137378,108062
137191,108022
137178,107987
137182,108008
137051,107944
136957,107907
136831,107888
136829,107853
136777,107832
136685,107790
136633,107768
136495,107733
136464,107717
136509,107742
136414,107685
136335,107670
136283,107688
136261,107672
136265,107632
136267,107655
136184,107656
136107,107586
136171,107637
136140,107617
136184,107613
136114,107594
136094,107575
136133,107631
136140,107602
136190,107601
136145,107587
136114,107608
136128,107626
136204,107659
136192,107620
136146,107612
136168,107616
136225,107635
136235,107651
136285,107647
136266,107651
136223,107637
136305,107667
136394,107687
136418,107700
136385,107723
136352,107688
136426,107701
136519,107744
136501,107732
136502,107709
136463,107772
136526,107733
136573,107763
136610,107754
136552,107776
136540,107717
136612,107783
136657,107773
136645,107789
136586,107803
136538,107734
136610,107764
136634,107808
136629,107745
136581,107748
136531,107783
136592,107752
136644,107784
136592,107762
136531,107738
136536,107769
136581,107766
136608,107767
136606,107745
136526,107751
136506,107733
136563,107738
136574,107769
136546,107721
136532,107737
136463,107767
136548,107746
136588,107763
136554,107748
136487,107743
136503,107715
136597,107757
136625,107754
136555,107756
136570,107743
136522,107743
136628,107752
136682,107798
136647,107771
136588,107762
136599,107776
136687,107771
136769,107837
136723,107799
136708,107803
136737,107847
136830,107837
136860,107847
136861,107878
136764,107830
136837,107875
136921,107879
136943,107878
136973,107880
136921,107857
136933,107925
137038,107899
137080,107899
137085,107890
137048,107932
137046,107955
137135,107933
137185,107982
137166,107965
137168,107980
137138,107989
137232,107978
137319,108008
137291,108011
137211,108002
137301,108028
137361,108026
137396,108051
137377,108045
137343,108043
137347,108049
137443,108093
137470,108085
137428,108082
137401,108078
137450,108097
137512,108106
137554,108100
137490,108097
137495,108111
137524,108117
137560,108114
137642,108142
137596,108122
137541,108112
137596,108137
137636,108138
137659,108127
137630,108112
137500,108103
137524,108132
137516,108083
137528,108060
137422,108026
137279,108009
137282,107984
137225,107958
137180,107928
137094,107919
136946,107861
136887,107843
136897,107827
136825,107791
136714,107791
136526,107704
136556,107710
136527,107706
136472,107634
136365,107643
136195,107603
136239,107595
136200,107598
136126,107556
136080,107507
135997,107518
135998,107474
136024,107483
135983,107516
135927,107450
135891,107491
135933,107470
135924,107490
135933,107475
135898,107441
135832,107481
135916,107478
135916,107465
135950,107467
135933,107472
135876,107480
135959,107483
135964,107497
136005,107470
135961,107467
135906,107496
136021,107511
136002,107513
136026,107505
136040,107480
135980,107541
136085,107554
136148,107522
136195,107547
136133,107555
136128,107525
136222,107564
136293,107601
136268,107599
136244,107585
136274,107630
136298,107626
136366,107615
136371,107651
136344,107610
136279,107623
136379,107632
136470,107648
136411,107654
136358,107624
136331,107669
136396,107673
136437,107650
136460,107633
136425,107663
136350,107624
136465,107686
136471,107673
136456,107630
136414,107627
136347,107627
136481,107651
136444,107664
136454,107640
136391,107667
136408,107609
136471,107647
136474,107672
136451,107614
136384,107650
136344,107651
136477,107629
136518,107665
136468,107627
136458,107637
136425,107629
136523,107670
136515,107667
136527,107643
136485,107658
136465,107667
136560,107693
136583,107688
136601,107679
136537,107700
136536,107705
136630,107700
136661,107729
136635,107727
136578,107735
136622,107685
136713,107733
136708,107765
136721,107769
136654,107751
136677,107723
136822,107744
136804,107791
136792,107780
136808,107781
136804,107809
136869,107771
136935,107822
136933,107825
136851,107793
136870,107801
136983,107798
136988,107867
136957,107826
136942,107838
136974,107831
137061,107884
137070,107860
137080,107834
137042,107871
137088,107886
137160,107921
137192,107872
137172,107902
137100,107927
137158,107882
137232,107935
137231,107926
137238,107940
137198,107912
137220,107958
137266,107973
137317,107948
137319,107952
137237,107946
137267,107970
137337,107937
137395,108012
137363,107975
137300,107969
137391,107976
137405,107978
137480,108011
137438,108020
137370,107997
137446,107996
137499,108017
137503,107990
137530,108006
137422,108034
137438,107981
137515,107993
137461,107994
137401,107964
137335,107963
137302,107946
137319,107936
137246,107904
137189,107873
137040,107863
137029,107806
137038,107813
136934,107754
136850,107721
136714,107692
136688,107703
136648,107643
136593,107646
136463,107614
136319,107561
136356,107567
136322,107557
136253,107485
136171,107481
136057,107451
136058,107462
136059,107446
136021,107440
135910,107417
135862,107386
135855,107382
135942,107420
135869,107385
135801,107327
135801,107390
135816,107385
135900,107389
135870,107402
135801,107380
135774,107347
135844,107415
135895,107383
135908,107417
135847,107380
135852,107376
135872,107427
135955,107415
135954,107446
135912,107417
135896,107416
135991,107466
136032,107425
136054,107457
136013,107487
135973,107417
136101,107485
136154,107471
136192,107509
136119,107529
136123,107491
136225,107513
136269,107549
136224,107525
136178,107500
136249,107538
136303,107550
136363,107572
136347,107563
136301,107557
136261,107546
136392,107542
136397,107573
136366,107573
136374,107585
136328,107561
136417,107568
136448,107618
136428,107557
136377,107595
136384,107605
136389,107621
136448,107573
136466,107621
136366,107602
136383,107558
136444,107595
136466,107597
136400,107601
136367,107557
136370,107595
136419,107603
136476,107609
136428,107604
136355,107593
136425,107546
136438,107597
136504,107597
136465,107580
136425,107587
136411,107592
136538,107618
136541,107633
136553,107640
136463,107629
136513,107614
136592,107657
136584,107644
136571,107639
136552,107626
136552,107633
136674,107651
136651,107698
136620,107658
136609,107657
136618,107678
136703,107706
136732,107701
136760,107680
136646,107661
136733,107744
136776,107728
136840,107759
136820,107718
136804,107707
136845,107785
136938,107773
136925,107797
136934,107754
136912,107781
136918,107798
136990,107781
137026,107797
137065,107817
136987,107816
137031,107854
137117,107834
137146,107870
137100,107865
137034,107818
137164,107876
137184,107847
137227,107898
137147,107864
137118,107848
137204,107887
137311,107928
137256,107913
137264,107855
137236,107915
137245,107905
137369,107905
137326,107956
137310,107921
137246,107898
137329,107901
137354,107941
137419,107921
137365,107926
137299,107942
137350,107926
137441,107913
137469,107951
137436,107963
137367,107961
137423,107935
137508,107940
137492,107974
137471,107935
137448,107974
137486,107993
137591,107985
137556,108018
137532,107978
137472,107993
137574,108005
137624,107996
137629,107996
137553,107996
137495,107928
137503,107971
137525,107946
137507,107954
137398,107929
137289,107857
137323,107888
137298,107846
137226,107849
137099,107786
137000,107757
136972,107752
136969,107720
136886,107692
136778,107667
136635,107610
136647,107597
136646,107605
136540,107570
136489,107529
136333,107557
136378,107525
136330,107530
136266,107473
136195,107443
136176,107466
136189,107440
136182,107426
136138,107437
136041,107400
136024,107385
136121,107397
136121,107404
136082,107420
135991,107389
136020,107393
136055,107428
136111,107425
136090,107406
136082,107422
136086,107401
136151,107446
136187,107445
136205,107449
136139,107437
136134,107449
136234,107478
136250,107469
136254,107483
136191,107475
136211,107471
136311,107493
136319,107503
136309,107487
136295,107498
136337,107512
136385,107518
136422,107542
136440,107550
136385,107533
136429,107547
136544,107568
136535,107587
136514,107580
136508,107560
136514,107598
136612,107582
136632,107610
136629,107602
136567,107570
136587,107609
136637,107619
136646,107577
136617,107585
136564,107582
136550,107599
136586,107580
136639,107555
136567,107572
136515,107559
136521,107608
136537,107570
136618,107573
136586,107577
136481,107533
136532,107563
136561,107588
136578,107531
136555,107554
136501,107555
136528,107564
136590,107573
136559,107578
136541,107540
136527,107570
136554,107576
136569,107579
136620,107583
136568,107562
136505,107551
136550,107551
136630,107587
136634,107582
136646,107596
136533,107586
136631,107608
136663,107615
136726,107641
136698,107608
136678,107632
136731,107633
136783,107664
136807,107672
136821,107640
136744,107626
136784,107668
136885,107669
136870,107694
136864,107641
136807,107676
136888,107673
136933,107699
136976,107704
136970,107731
136892,107675
136992,107712
137066,107751
137016,107748
137061,107714
137010,107753
137059,107755
137128,107742
137186,107787
137125,107774
137085,107772
137168,107766
137232,107784
137217,107816
137191,107793
137174,107789
137223,107810
137278,107803
137344,107810
137284,107843
137222,107819
137286,107832
137371,107860
137372,107874
137324,107873
137316,107846
137368,107876
137403,107864
137447,107877
137428,107880
137331,107840
137438,107879
137493,107891
137474,107866
137480,107893
137372,107887
137463,107877
137539,107900
137507,107912
137502,107870
137466,107880
137517,107911
137535,107895
137553,107903
137501,107928
137480,107889
137601,107922
137635,107925
137627,107959
137585,107941
137566,107898
137667,107956
137683,107961
137627,107941
137586,107887
137582,107924
137644,107928
137660,107955
137590,107924
137473,107857
137435,107859
137455,107856
137442,107843
137344,107804
137260,107744
137185,107707
137222,107755
137148,107720
137034,107684
136975,107675
136861,107625
136868,107604
136861,107634
136771,107579
136654,107550
136607,107557
136604,107526
136608,107516
136546,107505
136456,107450
136394,107484
136477,107479
136452,107468
136399,107426
136381,107447
136308,107418
136411,107421
136386,107433
136395,107462
136294,107442
136345,107451
136355,107447
136395,107439
136389,107452
136332,107430
136370,107455
136449,107485
136497,107472
136467,107464
136410,107470
136440,107478
136538,107502
136552,107545
136568,107523
136478,107507
136584,107548
136607,107551
136679,107519
136679,107563
136645,107534
136672,107587
136744,107577
136767,107599
136762,107586
136743,107589
136762,107615
136825,107619
136904,107645
136854,107624
136846,107617
136825,107640
136919,107641
136968,107646
136925,107615
136858,107619
136851,107633
136950,107623
136945,107635
136916,107609
136842,107596
136890,107638
136911,107665
136932,107601
136909,107648
136787,107615
136874,107611
136886,107660
136872,107586
136869,107627
136771,107613
136831,107617
136862,107595
136855,107587
136842,107587
136705,107582
136815,107591
136854,107619
136862,107577
136821,107594
136732,107604
136784,107579
136825,107577
136866,107621
136805,107594
136781,107594
136832,107634
136864,107592
136867,107614
136837,107627
136780,107641
136846,107595
136940,107619
136930,107649
136926,107630
136847,107640
136966,107641
137005,107632
136991,107686
136954,107653
136946,107620
137019,107661
137118,107694
137099,107706
137039,107687
137050,107674
137128,107715
137153,107728
137179,107705
137159,107704
137088,107729
137183,107732
137237,107752
137252,107721
137260,107745
137163,107768
137267,107753
137372,107787
137344,107755
137348,107783
137261,107805
137355,107801
137413,107824
137413,107803
137378,107792
137377,107800
137431,107829
137438,107849
137442,107787
137463,107808
137400,107816
137487,107835
137548,107828
137549,107832
137472,107845
137473,107839
137533,107840
137573,107881
137581,107840
137590,107859
137519,107848
137630,107893
137676,107897
137641,107884
137635,107855
137567,107898
137681,107902
137711,107880
137713,107890
137650,107876
137626,107903
137691,107897
137739,107884
137759,107908
137669,107873
137679,107917
137747,107939
137784,107877
137775,107935
137733,107931
137740,107871
137806,107953
137830,107952
137825,107909
137810,107942
137753,107919
137845,107936
137841,107935
137820,107946
137714,107867
137675,107919
137728,107894
137677,107855
137618,107828
137513,107787
137451,107805
137427,107767
137443,107728
137310,107702
137180,107706
137153,107656
137147,107644
137069,107653
136987,107606
136896,107577
136853,107528
136888,107536
136772,107548
136714,107481
136669,107481
136628,107452
136631,107476
136628,107419
136557,107419
136462,107419
136426,107411
136502,107410
136507,107409
136429,107423
136396,107378
136378,107404
136442,107396
136449,107383
136448,107369
136360,107385
136371,107380
136465,107372
136510,107409
136489,107420
136381,107409
136449,107401
136536,107412
136542,107436
136566,107414
136502,107433
136533,107458
136611,107429
136623,107464
136594,107467
136578,107472
136655,107494
136702,107489
136757,107497
136694,107476
136697,107506
136761,107510
136835,107554
136896,107523
136868,107551
136769,107539
136894,107543
136904,107570
136956,107568
136933,107617
136882,107536
136973,107604
136991,107619
137034,107570
136950,107595
136936,107547
136986,107598
136985,107620
137031,107581
136958,107577
136941,107585
136987,107596
137011,107626
136980,107582
136936,107549
136882,107534
136968,107558
136988,107573
137021,107590
136957,107599
136891,107538
136958,107571
137001,107620
136973,107582
137001,107550
136897,107607
136984,107586
137006,107587
137030,107591
137013,107567
136947,107601
137026,107584
137069,107634
137060,107627
137043,107608
137007,107613
137070,107619
137140,107619
137126,107643
137092,107605
137072,107652
137173,107640
137177,107647
137207,107665
137149,107646
137158,107660
137224,107669
137223,107670
137257,107692
137246,107664
137211,107673
137283,107683
137353,107725
137362,107715
137259,107704
137291,107696
137380,107697
137414,107730
137418,107711
137341,107718
137327,107714
137424,107745
137480,107764
137465,107772
137404,107743
137419,107720
137539,107746
137549,107810
137506,107745
137508,107761
137512,107802
137559,107802
137612,107775
137613,107790
137588,107787
137546,107820
137650,107802
137711,107835
137706,107844
137616,107826
137632,107804
137748,107860
137741,107823
137757,107835
137711,107824
137668,107829
137803,107887
137785,107864
137805,107855
137739,107833
137754,107857
137837,107899
137825,107869
137838,107861
137793,107825
137814,107874
137844,107917
137883,107845
137876,107857
137789,107895
137782,107871
137902,107862
137922,107893
137852,107884
137830,107874
137894,107881
137940,107891
137976,107908
137969,107897
137881,107867
137943,107911
137997,107921
138010,107911
138005,107922
137920,107877
137957,107910
137962,107907
137952,107891
137914,107888
137785,107851
137770,107866
137749,107804
137707,107814
137638,107763
137505,107734
137498,107701
137522,107742
137415,107683
137343,107658
137210,107607
137226,107590
137228,107623
137133,107543
137081,107541
136926,107510
136966,107514
136920,107530
136954,107499
136888,107484
136754,107441
136804,107440
136834,107453
136771,107419
136755,107423
136679,107409
136710,107442
136731,107433
136765,107413
136701,107396
136647,107405
136697,107454
136711,107405
136736,107412
136665,107411
136645,107435
136706,107417
136806,107431
136787,107474
136771,107459
136733,107464
136766,107479
136853,107444
136827,107484
136847,107462
136810,107480
136869,107521
136909,107467
136950,107515
136913,107520
136884,107493
136999,107502
137036,107569
137025,107530
137029,107554
137008,107545
137092,107591
137167,107603
137146,107568
137130,107589
137115,107576
137181,107607
137208,107583
137195,107601
137194,107617
137102,107604
137197,107585
137280,107629
137260,107600
137180,107621
137129,107589
137217,107628
137231,107597
137224,107593
137167,107606
137104,107562
137209,107594
137170,107602
137148,107589
137106,107539
137069,107540
137140,107551
137163,107543
137140,107565
137036,107556
137023,107524
137125,107583
137149,107578
137148,107573
137049,107574
137055,107511
137167,107558
137156,107577
137124,107566
137088,107535
137064,107556
137119,107583
137167,107541
137169,107583
137070,107555
137108,107573
137155,107582
137202,107571
137214,107580
137148,107563
137144,107598
137225,107588
137290,107590
137266,107624
137201,107610
137231,107613
137291,107636
137353,107646
137301,107646
137287,107592
137302,107651
137409,107663
137389,107666
137433,107648
137374,107640
137407,107685
137451,107695
137482,107712
137467,107690
137407,107700
137429,107666
137551,107674
137558,107743
137541,107697
137507,107673
137486,107703
137606,107684
137602,107753
137580,107715
137549,107724
137592,107748
137680,107755
137701,107765
137690,107742
137629,107753
137703,107762
137766,107789
137780,107760
137740,107780
137706,107767
137745,107800
137801,107802
137797,107778
137791,107793
137725,107790
137757,107782
137849,107787
137863,107796
137875,107801
137809,107827
137844,107827
137899,107810
137960,107849
137953,107862
137810,107828
137916,107850
137961,107871
137952,107829
137922,107804
137830,107780
137808,107786
137848,107770
137790,107737
137694,107751
137536,107683
137513,107682
137548,107653
137472,107678
137351,107609
137284,107561
137275,107595
137274,107564
137192,107533
137121,107493
136987,107479
136979,107459
137008,107459
136915,107461
136856,107404
136774,107415
136783,107376
136837,107391
136756,107375
136709,107382
136647,107340
136678,107330
136726,107370
136713,107332
136664,107351
136594,107330
136693,107323
136683,107346
136739,107354
136690,107370
136634,107340
136694,107379
136787,107398
136801,107408
136750,107379
136724,107367
136839,107426
136885,107402
136874,107429
136866,107396
136875,107456
136918,107447
137009,107463
137044,107485
137033,107485
136998,107491
137060,107499
137195,107543
137185,107536
137160,107537
137144,107537
137247,107592
137312,107608
137318,107607
137309,107578
137277,107603
137411,107634
137462,107602
137467,107656
137394,107653
137402,107625
137485,107650
137493,107662
137495,107661
137420,107608
137426,107639
137503,107669
137489,107659
137484,107646
137403,107645
137424,107605
137470,107648
137453,107623
137465,107607
137364,107627
137348,107609
137414,107614
137438,107634
137389,107596
137304,107570
137311,107598
137366,107605
137402,107596
137363,107589
137317,107602
137304,107557
137374,107597
137441,107610
137393,107598
137287,107594
137335,107597
137394,107635
137454,107619
137408,107637
137334,107563
137385,107597
137425,107617
137433,107616
137445,107594
137398,107594
137448,107622
137506,107647
137502,107654
137463,107618
137445,107588
137488,107619
137568,107676
137563,107644
137538,107657
137528,107641
137513,107638
137594,107638
137665,107693
137587,107696
137554,107688
137604,107701
137661,107696
137739,107713
137677,107719
137650,107672
137674,107707
137786,107736
137791,107718
137784,107751
137746,107713
137820,107788
137844,107776
137876,107801
137862,107762
137876,107784
137864,107787
137931,107766
137956,107809
138011,107812
137952,107830
137994,107869
138044,107823
138087,107866
138048,107810
138015,107830
138057,107847
138170,107848
138151,107885
138122,107855
138092,107845
138148,107876
138226,107912
138223,107890
138228,107909
138182,107872
138224,107912
138320,107935
138284,107922
138279,107905
138230,107912
138254,107912
138275,107911
138238,107902
138174,107860
138072,107843
138071,107814
138035,107821
137973,107779
137873,107739
137723,107696
137745,107717
137700,107685
137604,107645
137509,107603
137389,107575
137404,107562
137345,107519
137281,107488
137152,107476
137094,107438
137069,107446
137036,107408
137012,107421
136887,107397
136844,107344
136837,107370
136828,107349
136807,107305
136758,107351
136658,107286
136707,107310
136751,107324
136700,107311
136625,107293
136616,107267
136679,107302
136699,107292
136661,107300
136642,107252
136595,107295
136630,107297
136695,107290
136686,107278
136643,107305
136645,107287
136721,107319
136735,107312
136744,107281
136729,107307
136719,107331
136796,107342
136843,107378
136830,107343
136816,107322
136819,107351
136923,107375
136951,107382
136970,107392
136956,107419
136945,107390
137023,107448
137063,107455
137059,107431
137064,107412
137054,107468
137153,107468
137183,107461
137155,107459
137125,107456
137156,107475
137164,107494
137215,107462
137211,107459
137185,107482
137154,107440
137223,107464
137213,107467
137211,107453
137174,107459
137120,107447
137196,107463
137211,107476
137174,107462
137095,107420
137125,107455
137162,107460
137182,107477
137112,107453
137061,107396
137063,107432
137132,107450
137153,107412
137112,107428
137016,107396
137066,107429
137081,107438
137106,107407
137098,107413
137009,107385
137065,107446
137122,107434
137106,107451
137113,107419
137081,107401
137086,107424
137174,107436
137150,107435
137140,107435
137107,107426
137126,107438
137194,107431
137182,107455
137162,107438
137144,107433
137190,107488
137216,107467
137291,107489
137244,107501
137207,107426
137240,107490
137323,107524
137283,107494
137330,107480
137293,107490
137330,107525
137392,107505
137416,107509
137394,107535
137366,107530
137438,107526
137510,107586
137489,107558
137504,107538
137458,107572
137487,107571
137585,107581
137573,107623
137547,107584
137538,107587
137609,107612
137622,107605
137674,107607
137634,107665
137592,107613
137707,107637
137740,107654
137747,107647
137751,107634
137668,107663
137767,107658
137815,107694
137821,107680
137853,107670
137727,107688
137796,107662
137867,107685
137860,107710
137833,107661
137808,107686
137844,107722
137852,107659
137909,107723
137811,107699
137822,107669
137859,107694
137852,107692
137853,107638
137769,107655
137682,107615
137708,107631
137697,107621
137599,107556
137517,107537
137389,107504
137379,107494
137345,107460
137263,107457
137116,107405
137039,107336
137009,107362
136964,107326
136881,107296
136758,107229
136686,107236
136623,107196
136609,107192
136542,107187
136465,107123
136353,107117
136339,107102
136350,107062
136296,107099
136200,107030
136152,107037
136205,107039
136179,107028
136160,107002
136090,107022
136103,106984
136143,107017
136149,107012
136125,107027
136052,107015
136087,107015
136188,107036
136189,107008
136194,107018
136180,107050
136131,107027
136208,107053
136266,107048
136249,107068
136224,107056
136233,107081
136297,107061
136369,107102
136383,107110
136324,107106
136321,107092
136458,107120
136455,107154
136469,107135
136437,107138
136469,107171
136521,107189
136605,107160
136634,107206
136586,107193
136606,107198
136680,107215
136747,107228
136723,107256
136661,107217
136692,107240
136753,107240
136780,107240
136748,107267
136695,107219
136696,107234
136726,107240
136723,107249
136771,107252
136670,107222
136697,107239
136771,107227
136763,107230
136755,107227
136665,107185
136694,107216
136765,107248
136708,107216
136712,107185
136671,107198
136657,107217
136736,107188
136724,107250
136679,107211
136626,107176
136646,107198
136738,107210
136693,107204
136716,107193
136639,107224
136670,107195
136729,107239
136741,107212
136752,107228
136642,107217
136709,107216
136757,107228
136789,107252
136777,107248
136717,107244
136729,107227
136799,107236
136842,107263
136831,107263
136771,107263
136788,107268
136867,107244
136917,107314
136903,107281
136837,107266
136899,107289
136969,107321
136954,107294
136986,107309
136913,107288
136997,107319
137043,107349
137043,107326
137046,107318
137004,107352
137054,107357
137168,107375
137142,107391
137118,107403
137102,107337
137176,107396
137210,107433
137263,107395
137213,107420
137210,107431
137266,107452
137308,107429
137333,107414
137337,107445
137271,107407
137367,107455
137408,107504
137388,107463
137389,107451
137383,107448
137423,107527
137455,107462
137529,107513
137462,107515
137443,107480
137532,107535
137549,107541
137574,107522
137552,107504
137511,107542
137610,107524
137607,107555
137615,107522
137604,107527
137540,107546
137566,107513
137584,107523
137524,107499
137464,107440
137391,107493
137379,107445
137351,107422
137262,107398
137205,107356
137058,107335
137054,107304
137043,107288
136949,107267
136807,107213
136703,107207
136716,107180
136647,107135
136575,107099
136434,107090
136365,107039
136328,107055
136323,107035
136232,107019
136119,106933
136074,106943
136149,106970
136112,106951
136041,106940
135934,106886
135936,106903
135982,106905
135968,106897
135936,106893
135843,106844
135863,106866
135936,106910
135932,106883
135925,106881
135851,106882
135856,106861
135942,106886
135971,106870
135968,106876
135892,106904
135879,106908
135994,106887
135997,106943
135987,106907
135994,106903
135970,106930
136097,106952
136121,106957
136123,106952
136139,106988
136165,106998
136213,106990
136283,107038
136278,107024
136262,106998
136295,107046
136368,107065
136368,107060
136410,107077
136317,107072
136404,107068
136465,107113
136463,107106
136419,107092
136405,107109
136428,107103
136498,107078
136487,107078
136498,107094
136428,107063
136468,107110
136480,107117
136500,107074
136500,107112
136427,107087
136431,107083
136468,107093
136441,107091
136443,107083
136368,107065
136376,107054
136434,107066
136416,107036
136367,107047
136319,107030
136317,107032
136378,107053
136393,107051
136328,107043
136270,107028
136336,107043
136366,107037
136338,107031
136352,107038
136297,107034
136298,107038
136358,107045
136401,107047
136333,107087
136285,107016
136390,107059
136393,107069
136419,107044
136412,107056
136344,107079
136425,107079
136448,107076
136510,107063
136509,107115
136418,107052
136527,107084
136533,107125
136585,107124
136542,107115
136512,107098
136573,107149
136669,107125
136656,107146
136678,107161
136602,107141
136665,107163
136742,107190
136759,107164
136723,107182
136732,107195
136759,107236
136783,107195
136823,107221
136812,107214
136748,107204
136822,107204
136918,107253
136915,107224
136865,107223
136876,107226
136914,107255
136934,107243
136956,107254
136954,107249
136898,107247
136996,107268
136993,107322
137022,107310
136974,107295
136984,107255
137083,107314
137065,107298
137065,107313
137077,107293
137019,107322
137075,107304
137116,107311
137083,107312
137061,107295
136927,107251
137001,107258
136970,107276
136884,107209
136795,107188
136719,107142
136727,107167
136645,107138
136540,107079
136499,107068
136382,107025
136335,107050
136302,106967
136208,106950
136119,106937
136021,106896
136003,106887
136004,106881
135905,106817
135808,106790
135767,106797
135748,106820
135748,106764
135711,106751
135639,106743
135562,106761
135606,106720
135624,106736
135555,106728
135542,106708
135495,106739
135539,106732
135578,106739
135563,106718
135500,106722
135514,106704
135574,106756
135573,106698
135569,106723
135554,106718
135539,106750
135640,106764
135653,106746
135691,106757
135637,106783
135685,106767
135737,106810
135821,106813
135748,106820
135763,106788
135819,106837
135891,106834
135892,106850
135872,106826
135889,106887
135878,106857
135987,106875
136014,106904
135987,106899
135996,106913
136009,106917
136112,106961
136097,106916
136104,106924
136041,106947
136074,106942
136103,106969
136128,106931
136147,106923
136070,106918
136076,106932
136173,106937
136121,106947
136086,106907
136071,106932
136060,106916
136115,106914
136098,106923
136066,106888
136003,106893
135978,106887
136072,106890
136007,106900
135993,106893
135903,106876
135932,106865
136012,106885
135985,106850
135973,106858
135915,106867
135943,106895
135933,106861
135961,106869
135937,106849
135868,106847
135881,106861
135923,106836
135956,106861
135884,106854
135846,106821
135908,106864
135981,106837
136001,106886
135939,106900
135889,106846
135922,106873
135992,106884
135959,106903
135984,106881
135962,106898
136009,106896
136054,106911
136040,106905
136071,106885
135993,106908
136060,106916
136122,106922
136141,106949
136119,106906
136098,106958
136126,106973
136220,106946
136210,106975
136219,106961
136173,106959
136276,106966
136301,107019
136301,106987
136288,106996
136297,107043
136324,107059
136358,107057
136396,107034
136337,107005
136343,107009
136416,107037
136444,107034
136495,107041
136451,107063
136392,107054
136504,107086
136498,107083
136525,107082
136529,107080
136470,107110
136565,107096
136591,107127
136621,107132
136626,107114
136618,107122
136661,107155
136652,107083
136673,107113
136604,107109
136541,107133
136536,107089
136579,107076
136470,107085
136362,107011
136282,106956
136281,106989
136187,106975
136094,106906
135973,106886
135877,106836
135808,106803
135774,106792
135678,106718
135526,106698
135404,106642
135421,106652
135328,106606
135261,106608
135101,106536
135095,106503
135059,106517
134991,106462
134943,106439
134881,106426
134770,106436
134761,106416
134799,106379
134690,106380
134634,106348
134595,106370
134652,106380
134658,106337
134654,106350
134567,106343
134553,106375
134633,106352
134633,106362
134619,106356
134601,106331
134612,106358
134687,106356
134670,106361
134655,106337
134630,106384
134643,106368
134750,106366
134755,106383
134750,106367
134715,106410
134719,106400
134837,106405
134863,106422
134873,106446
134834,106471
134889,106452
134957,106447
135028,106517
135019,106514
134970,106492
135014,106513
135124,106541
135097,106550
135097,106527
135102,106532
135129,106548
135158,106582
135213,106556
135236,106576
135139,106580
135231,106595
135229,106602
135291,106571
135243,106589
135142,106556
135210,106577
135243,106580
135202,106559
135186,106554
135154,106571
135174,106548
135210,106571
135179,106571
135180,106554
135135,106524
135143,106571
135153,106568
135188,106549
135159,106542
135088,106542
135084,106559
135167,106522
135189,106571
135139,106536
135083,106551
135140,106588
135192,106566
135188,106560
135196,106584
135140,106572
135183,106576
135261,106601
135266,106600
135241,106582
135189,106589
135288,106609
135337,106613
135351,106623
135347,106618
135311,106639
135387,106669
135414,106654
135472,106677
135436,106683
135437,106696
135500,106690
135513,106717
135571,106727
135516,106692
135534,106706
135543,106731
135641,106734
135647,106728
135618,106737
135626,106741
135698,106786
135707,106771
135716,106798
135754,106761
135702,106764
135806,106796
135834,106831
135844,106820
135852,106803
135784,106844
135915,106846
135936,106876
135892,106862
135902,106832
135904,106864
135966,106902
136022,106913
135992,106889
135991,106853
135968,106902
136053,106900
136102,106924
136106,106926
136087,106933
136083,106924
136143,106971
136170,106947
136182,106936
136173,106947
136164,106935
136212,106963
136216,106954
136227,106939
136189,106955
136150,106922
136162,106952
136164,106936
136084,106920
135983,106848
135920,106860
135933,106848
135852,106819
135769,106749
135692,106753
135585,106711
135585,106710
135496,106682
135403,106630
135299,106617
135198,106577
135176,106581
135139,106506
135014,106479
134920,106483
134847,106422
134814,106436
134835,106414
134725,106391
134645,106348
134585,106350
134613,106346
134598,106329
134551,106313
134505,106298
134468,106306
134528,106313
134484,106307
134509,106304
134461,106293
134428,106298
134511,106299
134492,106304
134517,106290
134477,106299
134483,106297
134549,106325
134563,106324
134597,106317
134519,106292
134559,106328
134592,106336
134618,106351
134645,106348
134614,106329
134664,106359
134720,106382
134781,106363
134767,106397
134719,106363
134778,106394
134855,106446
134854,106433
134888,106432
134847,106451
134902,106488
134975,106459
135035,106505
134959,106516
134941,106434
134985,106486
135005,106497
135063,106497
135058,106525
134969,106450
135018,106480
135093,106512
135093,106512
135090,106543
134975,106499
135026,106518
135141,106528
135119,106535
135111,106534
135003,106470
135079,106514
135109,106497
135082,106531
135074,106496
134997,106465
135026,106500
135076,106523
135079,106467
135105,106523
135003,106496
135078,106522
135092,106550
135123,106499
135114,106499
135020,106529
135141,106552
135172,106530
135145,106558
135170,106591
135113,106519
135192,106564
135217,106590
135260,106573
135270,106617
135180,106565
135300,106611
135327,106574
135315,106595
135275,106619
135299,106607
135341,106634
135403,106661
135413,106624
135417,106656
135406,106612
135471,106667
135531,106690
135541,106713
135518,106681
135488,106698
135594,106723
135661,106724
135626,106734
135654,106721
135619,106737
135681,106778
135733,106753
135733,106753
135736,106781
135696,106763
135778,106786
135808,106807
135797,106813
135783,106770
135764,106804
135860,106834
135879,106798
135887,106824
135883,106846
135854,106826
135938,106837
135979,106889
135971,106858
135947,106856
135923,106880
136011,106871
136072,106910
136041,106906
136032,106870
136028,106895
136070,106907
136102,106945
136079,106897
136139,106892
136096,106938
136182,106918
136222,106961
136202,106915
136177,106950
136159,106944
136246,106931
136304,106975
136267,106975
136235,106972
136236,106959
136304,106959
136361,106997
136342,106998
136286,106971
136276,106977
136370,106996
136336,106955
136306,106953
136201,106928
136212,106953
136196,106908
136227,106893
136129,106894
135987,106844
135958,106853
135933,106816
135926,106809
135847,106769
135676,106700
135656,106712
135666,106709
135617,106690
135477,106635
135420,106591
135383,106634
135373,106591
135368,106564
135308,106577
135211,106572
135218,106530
135218,106557
135199,106513
135162,106542
135067,106515
135090,106493
135165,106510
135121,106537
135110,106488
135043,106535
135069,106516
135154,106512
135177,106538
135121,106556
135126,106505
135167,106513
135216,106561
135245,106586
135189,106573
135185,106542
135258,106579
135298,106580
135294,106614
135277,106561
135312,106608
135325,106642
135371,106621
135401,106644
135371,106641
135373,106623
135410,106667
135502,106633
135486,106677
135519,106668
135456,106672
135536,106688
135573,106685
135636,106699
135622,106728
135569,106729
135614,106747
135666,106766
135712,106740
135732,106743
135637,106739
135688,106781
135766,106757
135753,106786
135705,106778
135716,106751
135728,106776
135779,106778
135764,106786
135748,106762
135678,106724
135770,106743
135777,106761
135763,106777
135768,106771
135671,106734
135762,106751
135791,106794
135765,106776
135761,106750
135706,106770
135762,106768
135857,106786
135798,106801
135789,106768
135745,106741
135827,106816
135870,106828
135823,106791
135832,106781
135815,106804
135848,106782
135927,106809
135917,106822
135876,106832
135847,106788
135927,106843
135983,106818
135971,106822
135899,106861
135908,106808
136023,106837
136022,106880
136034,106879
136006,106881
135961,106851
136042,106866
136126,106915
136098,106889
136096,106896
136060,106869
136151,106891
136179,106943
136165,106915
136136,106932
136144,106935
136236,106938
136264,106976
136257,106940
136265,106971
136229,106948
136336,106951
136349,107004
136312,106993
136311,106965
136326,106962
136392,106978
136402,107029
136405,107024
136403,107012
136382,107037
136432,107003
136488,107035
136454,107046
136426,107034
136440,107007
136541,107036
136520,107061
136536,107050
136510,107024
136477,107028
136572,107072
136604,107074
136582,107061
136554,107041
136584,107110
136641,107076
136690,107106
136628,107099
136599,107047
136621,107074
136722,107125
136700,107105
136700,107072
136689,107131
136695,107107
136777,107135
136771,107169
136768,107120
136716,107114
136739,107146
136807,107134
136792,107146
136809,107128
136754,107107
136822,107171
136824,107175
136870,107168
136837,107157
136822,107147
136810,107184
136857,107123
136871,107159
136787,107148
136706,107083
136687,107108
136733,107077
136718,107074
136621,107069
136515,106996
136495,107019
136485,106963
136464,106980
136366,106959
136240,106881
136253,106906
136256,106901
136208,106900
136151,106893
136059,106812
136107,106863
136114,106838
136055,106841
136045,106821
135965,106818
135978,106847
136011,106789
135998,106823
135979,106793
135897,106803
135957,106816
135999,106750
136008,106790
135969,106773
135892,106801
135957,106816
135969,106831
135993,106793
136017,106786
135937,106793
136017,106796
136088,106838
136064,106833
136022,106805
136004,106818
136072,106857
136092,106838
136155,106864
136093,106858
136102,106834
136169,106885
136180,106887
136176,106917
136187,106866
136166,106883
136215,106928
136271,106889
136272,106925
136271,106903
136243,106895
136311,106899
136339,106935
136359,106914
136327,106947
136291,106878
136384,106953
136396,106940
136416,106954
136361,106968
136312,106957
136353,106962
136402,106950
136413,106933
136351,106959
136330,106916
136375,106934
136435,106945
136389,106958
136335,106935
136282,106903
136347,106921
136384,106925
136373,106939
136307,106914
136312,106924
136393,106933
136380,106904
136393,106908
136311,106905
136307,106914
136377,106921
136411,106942
136355,106913
136342,106917
136311,106920
136386,106935
136423,106940
136401,106917
136330,106921
136331,106911
136439,106945
136452,106947
136406,106930
136400,106948
136400,106931
136448,106970
136486,106949
136508,106942
136449,106926
136479,106963
136532,107004
136530,106982
136538,106974
136532,106954
136522,106985
136581,107022
136622,106975
136602,106996
136581,106998
136598,107014
136619,107041
136663,107035
136651,107023
136626,107009
136603,107035
136694,107063
136711,107006
136738,107066
136667,107039
136653,107004
136776,107082
136751,107035
136755,107060
136732,107039
136737,107064
136801,107060
136785,107084
136804,107075
136737,107037
136804,107070
136827,107096
136828,107098
136852,107083
136770,107067
136836,107072
136908,107126
136913,107082
136913,107102
136844,107099
136919,107107
136904,107141
136945,107112
136886,107115
136904,107100
136912,107150
136944,107123
137010,107126
136963,107122
136903,107092
136938,107103
136976,107153
137042,107134
136980,107140
136953,107127
136971,107149
137023,107159
137061,107146
137012,107170
136976,107103
137027,107146
137070,107174
137095,107137
137014,107165
136923,107128
137024,107150
136998,107129
137002,107093
136915,107092
136795,107060
136820,107053
136815,107024
136752,106998
136709,106968
136575,106957
136596,106937
136592,106926
136529,106919
136485,106881
136363,106856
136410,106875
136386,106849
136368,106860
136313,106844
136232,106792
136262,106832
136265,106814
136297,106804
136235,106814
136189,106806
136214,106794
136257,106825
136250,106794
136186,106790
136153,106785
136203,106798
136229,106794
136214,106812
136202,106769
136128,106781
136250,106820
136269,106819
136254,106808
136254,106806
136183,106809
136280,106839
136317,106831
136301,106837
136291,106814
136244,106802
136332,106846
136363,106863
136346,106851
136330,106829
136321,106838
136384,106867
136421,106864
136441,106871
136387,106858
136365,106872
136444,106898
136490,106882
136485,106881
136464,106895
136430,106890
136498,106907
136567,106921
136523,106905
136495,106891
136480,106915
136521,106918
136544,106889
136536,106893
136500,106889
136441,106880
136543,106904
136544,106901
136481,106878
136465,106894
136436,106846
136491,106887
136538,106910
136475,106869
136412,106868
136440,106873
136466,106885
136523,106868
136464,106869
136428,106849
136426,106878
136478,106870
136496,106845
136478,106875
136456,106861
136432,106870
136480,106887
136515,106863
136485,106876
136446,106841
136447,106864
136496,106870
136499,106886
136516,106878
136450,106863
136477,106888
136530,106883
136551,106887
136550,106897
136489,106894
136491,106904
136612,106920
136615,106925
136610,106908
136556,106896
136588,106916
136657,106925
136669,106915
136636,106937
136610,106928
136609,106944
136701,106970
136720,106942
136672,106948
136672,106938
136690,106952
136748,106960
136741,106969
136754,106976
136664,106940
136720,106949
136751,106963
136798,106953
136771,106981
136713,106949
136777,106964
136798,106961
136843,106984
136791,106981
136752,106964
136807,106983
136845,107000
136861,106981
136872,106997
136770,107009
136827,106987
136898,106987
136849,107006
136884,106994
136779,106999
136890,106974
136930,107007
136938,106987
136893,107005
136871,106987
136925,107011
136912,107024
136944,107028
136915,107004
136887,106995
136936,107032
136960,107016
137004,107021
136945,107036
136941,107047
136980,107044
137039,107080
136999,107039
136992,107018
136987,107023
137015,107047
137058,107076
137040,107058
137017,107024
136984,107050
137063,107066
137113,107055
137119,107088
137078,107065
137025,107066
137077,107088
137141,107095
137149,107076
137110,107113
137072,107007
137142,107097
137158,107050
137080,107049
137025,107027
136928,106983
137007,107003
136970,106985
136931,106972
136811,106943
136744,106914
136748,106924
136729,106863
136679,106842
136573,106888
136495,106825
136502,106830
136497,106797
136438,106771
136383,106802
136309,106722
136369,106758
136316,106732
136323,106724
136231,106732
136196,106695
136236,106719
136203,106721
136205,106701
136140,106681
136170,106701
136165,106717
136172,106680
136203,106704
136151,106655
136125,106702
136179,106701
136232,106687
136214,106695
136152,106690
136136,106694
136207,106699
136234,106730
136214,106712
136173,106696
136202,106722
136235,106727
136256,106719
136234,106690
136212,106726
136217,106714
136264,106708
136305,106707
136324,106731
136236,106737
136221,106718
136326,106737
136339,106771
136314,106741
136337,106726
136331,106721
136425,106764
136397,106772
136397,106758
136311,106735
136330,106769
136442,106800
136411,106776
136417,106770
136344,106739
136376,106739
136439,106774
136420,106794
136409,106755
136356,106742
136424,106764
136449,106754
136441,106808
136373,106772
136373,106715
136366,106748
136399,106736
136398,106764
136355,106718
136327,106753
136334,106749
136358,106756
136405,106731
136364,106756
136304,106705
136343,106740
136400,106756
136387,106737
136369,106770
136339,106697
136371,106737
136389,106752
136385,106758
136375,106733
136300,106755
136341,106754
136399,106779
136417,106747
136421,106731
136358,106722
136415,106752
136483,106783
136445,106772
136425,106750
136420,106778
136473,106785
136511,106827
136471,106778
136504,106772
136440,106776
136519,106765
136539,106805
136547,106773
136572,106794
136475,106810
136566,106809
136621,106827
136635,106834
136597,106775
136553,106829
136609,106827
136651,106832
136715,106839
136630,106859
136604,106826
136658,106858
136719,106874
136719,106844
136703,106856
136654,106852
136692,106857
136739,106874
136749,106866
136772,106887
136712,106830
136793,106879
136769,106889
136810,106887
136796,106874
136749,106858
136819,106905
136862,106934
136836,106894
136869,106921
136796,106863
136901,106939
136921,106922
136921,106920
136869,106948
136842,106926
136884,106940
136945,106956
136899,106929
136900,106913
136871,106898
136965,106921
136976,106962
136959,106952
136949,106909
136931,106946
136984,106959
137037,106966
137001,106983
136945,106919
136945,106944
137027,106966
137067,106950
137057,106981
137000,106928
136989,106962
137083,106958
137091,106973
137123,106978
137022,107005
137024,106980
137123,106991
137130,107024
137154,106992
137132,107014
137107,106986
137154,107045
137199,107002
137166,107017
137085,106952
137045,106968
137106,106959
137033,106966
136984,106924
136901,106916
136817,106901
136858,106858
136851,106857
136765,106835
136678,106777
136641,106795
136594,106779
136593,106785
136487,106741
136437,106687
136376,106713
136381,106675
136354,106711
136278,106671
136225,106639
136192,106634
136247,106617
136212,106644
136175,106610
136126,106602
136117,106635
136118,106573
136157,106627
136106,106585
136014,106554
136061,106603
136119,106568
136133,106599
136061,106601
136031,106561
136057,106559
136143,106622
136154,106593
136106,106590
136088,106604
136100,106627
136149,106584
136162,106641
136145,106618
136136,106607
136164,106625
136222,106616
136237,106630
136219,106625
136171,106608
136205,106665
136245,106616
136286,106655
136294,106671
136234,106602
136261,106664
136341,106698
136333,106673
136341,106654
136291,106657
136365,106702
136369,106727
136367,106723
136360,106701
136296,106708
136352,106664
136456,106748
136445,106708
136384,106716
136361,106681
136385,106701
136414,106735
136439,106723
136340,106689
136303,106665
136394,106682
136385,106685
136347,106670
136361,106690
136254,106665
136318,106682
136284,106668
136310,106651
136266,106621
136229,106648
136274,106646
136293,106660
136285,106629
136278,106634
136163,106614
136271,106650
136304,106630
136250,106645
136261,106649
136220,106624
136240,106629
136309,106661
136282,106644
136254,106625
136197,106633
136273,106663
136331,106648
136264,106636
136292,106653
136252,106636
136299,106642
136360,106658
136374,106658
136297,106654
136305,106671
136338,106681
136388,106687
136400,106682
136364,106702
136373,106696
136425,106704
136497,106709
136459,106718
136433,106681
136378,106698
136476,106748
136527,106706
136521,106729
136471,106731
136473,106706
136559,106736
136532,106737
136569,106738
136564,106747
136542,106729
136617,106748
136652,106767
136607,106785
136595,106777
136599,106734
136692,106794
136733,106798
136683,106772
136645,106774
136670,106754
136740,106828
136741,106822
136732,106805
136718,106762
136716,106802
136745,106849
136813,106851
136804,106836
136724,106838
136738,106818
136853,106826
136838,106837
136845,106818
136804,106816
136844,106846
136875,106875
136897,106853
136875,106860
136836,106823
136864,106871
136897,106834
136954,106885
136952,106855
136921,106882
136888,106895
136962,106878
136981,106882
136965,106902
136932,106874
136947,106919
136995,106898
137020,106901
137045,106923
136987,106897
137039,106940
137055,106900
137072,106941
137075,106921
137005,106890
137087,106917
137112,106973
137115,106952
137073,106949
137015,106927
137071,106913
137051,106924
137004,106899
136985,106872
136863,106853
136846,106809
136880,106860
136823,106802
136736,106785
136656,106730
136608,106749
136588,106697
136528,106715
136467,106672
136332,106658
136328,106619
136376,106606
136305,106616
136245,106579
136115,106537
136114,106552
136134,106570
136135,106527
136035,106523
135969,106492
135981,106485
136043,106528
136001,106498
135946,106477
135879,106450
135954,106491
135958,106491
135946,106498
135962,106454
135927,106471
135962,106488
135973,106474
135949,106486
136001,106475
135919,106489
135961,106518
136002,106517
136018,106522
136020,106478
135969,106503
136003,106558
136082,106493
136064,106532
136076,106528
135986,106516
136068,106520
136127,106534
136157,106550
136134,106538
136067,106567
136183,106601
136200,106570
136208,106569
136231,106631
136162,106566
136247,106596
136271,106615
136268,106594
136274,106595
136177,106567
136308,106627
136290,106603
136301,106610
136294,106634
136236,106598
136278,106638
136301,106624
136310,106609
136252,106593
136196,106600
136261,106586
136302,106639
136256,106603
136190,106629
136172,106565
136276,106579
136257,106624
136250,106608
136216,106599
136202,106578
136197,106633
136255,106567
136232,106587
136170,106575
136179,106566
136224,106602
136227,106564
136263,106560
136162,106584
136135,106594
136224,106576
136223,106583
136244,106588
136181,106592
136195,106559
136241,106594
136252,106579
136263,106577
136213,106572
136240,106589
136259,106645
136280,106612
136271,106599
136264,106587
136262,106608
136313,106664
136361,106642
136338,106648
136280,106626
136307,106612
136372,106644
136376,106618
136415,106655
136346,106620
136346,106672
136418,106648
136438,106680
136444,106685
136422,106684
136405,106686
136510,106659
136470,106698
136505,106678
136448,106682
136468,106677
136563,106713
136592,106720
136529,106721
136538,106708
136544,106741
136585,106710
136650,106744
136642,106732
136563,106750
136563,106724
136692,106747
136683,106740
136683,106760
136586,106722
136664,106734
136709,106792
136732,106781
136685,106760
136684,106773
136690,106769
136777,106761
136764,106767
136797,106794
136691,106785
136763,106796
136812,106790
136820,106812
136805,106818
136781,106767
136808,106799
136875,106842
136890,106832
136857,106853
136802,106787
136873,106837
136878,106848
136943,106845
136853,106836
136823,106788
136862,106827
136851,106815
136825,106800
136805,106805
136731,106777
136688,106776
136726,106742
136642,106706
136632,106702
136478,106674
136426,106660
136437,106627
136386,106619
136243,106606
136166,106554
136146,106548
136137,106519
136116,106502
135961,106510
135878,106453
135837,106433
135874,106420
135789,106404
135729,106342
135625,106354
135640,106345
135599,106325
135579,106322
135545,106295
135488,106281
135493,106302
135469,106307
135439,106256
135412,106246
135353,106237
135396,106259
135390,106244
135423,106243
135396,106270
135337,106237
135421,106282
135443,106270
135461,106274
135400,106297
135397,106272
135416,106291
135449,106268
135473,106267
135425,106304
135427,106285
135450,106310
135554,106300
135497,106315
135514,106320
135474,106334
135570,106372
135615,106322
135634,106343
135600,106374
135588,106343
135668,106356
135687,106416
135707,106383
135710,106370
135643,106371
135763,106426
135768,106393
135767,106390
135745,106422
135727,106369
135805,106435
135794,106412
135791,106400
135749,106443
135727,106381
135803,106455
135795,106447
135794,106434
135741,106397
135709,106417
135734,106394
135818,106411
135769,106413
135713,106404
135679,106386
135765,106375
135782,106420
135763,106412
135695,106402
135674,106365
135773,106403
135755,106424
135742,106399
135730,106356
135730,106396
135767,106439
135772,106418
135770,106385
135721,106407
135730,106413
135811,106425
135865,106421
135807,106419
135765,106414
135808,106422
135882,106480
135900,106443
135866,106453
135857,106465
135858,106474
135891,106478
135982,106487
135916,106474
135931,106492
135941,106486
136000,106506
136051,106525
136047,106516
135983,106494
135997,106532
136104,106552
136079,106541
136103,106552
136047,106519
136105,106549
136171,106580
136174,106615
136197,106588
136122,106592
136154,106606
136238,106634
136273,106609
136292,106599
136184,106630
136287,106626
136299,106626
136355,106625
136371,106628
136283,106606
136359,106650
136403,106668
136426,106645
136444,106703
136355,106644
136431,106700
136490,106705
136530,106715
136440,106708
136445,106665
136437,106703
136509,106728
136517,106702
136516,106717
136479,106716
136539,106718
136587,106730
136563,106733
136597,106731
136518,106725
136590,106737
136620,106795
136614,106747
136643,106723
136561,106735
136684,106769
136685,106765
136714,106789
136631,106744
136571,106765
136623,106753
136669,106761
136642,106726
136639,106747
136515,106677
136530,106716
136493,106671
136429,106668
136360,106609
136215,106578
136235,106579
136168,106564
136086,106552
135991,106502
135846,106428
135812,106444
135774,106404
135746,106389
135585,106343
135498,106297
135496,106315
135473,106264
135409,106268
135282,106209
135240,106217
135224,106215
135202,106185
135157,106162
135108,106200
135066,106149
135081,106163
135099,106158
135060,106176
134997,106093
134959,106108
135037,106117
135054,106126
135039,106104
134961,106148
134913,106131
135009,106137
135033,106156
135026,106131
134984,106146
134978,106127
135069,106138
135136,106179
135124,106164
135054,106140
135045,106165
135172,106214
135161,106222
135160,106162
135181,106223
135136,106201
135226,106216
135306,106250
135267,106271
135242,106196
135272,106230
135342,106269
135374,106288
135365,106309
135334,106237
135383,106293
135437,106310
135452,106313
135455,106303
135407,106321
135395,106338
135461,106309
135510,106288
135459,106301
135436,106290
135427,106294
135463,106324
135478,106296
135432,106272
135394,106292
135380,106290
135457,106303
135453,106317
135430,106270
135392,106306
135383,106290
135454,106306
135442,106313
135409,106304
135377,106236
135385,106296
135409,106290
135401,106318
135431,106265
135331,106307
135345,106280
135400,106282
135435,106279
135395,106278
135318,106232
135371,106272
135396,106296
135403,106276
135416,106305
135352,106239
135380,106298
135455,106307
135474,106311
135426,106271
135395,106280
135448,106307
135508,106299
135526,106337
135512,106294
135480,106342
135527,106341
135576,106356
135612,106333
135577,106322
135575,106363
135582,106387
135642,106393
135665,106408
135633,106418
135607,106368
135714,106409
135737,106449
135769,106417
135761,106438
135739,106419
135788,106450
135855,106426
135862,106451
135857,106446
135801,106460
135890,106475
135923,106500
135910,106500
135944,106479
135892,106500
135961,106522
136023,106510
136050,106519
136041,106530
135981,106544
136069,106512
136073,106590
136101,106560
136074,106585
136032,106521
136164,106590
136181,106625
136210,106594
136173,106591
136157,106564
136255,106599
136251,106626
136305,106621
136268,106632
136219,106625
136329,106671
136351,106666
136364,106639
136383,106638
136334,106651
136408,106675
136405,106673
136428,106653
136379,106684
136283,106658
136355,106634
136362,106652
136303,106647
136208,106577
136111,106565
136111,106552
136068,106552
135964,106481
135903,106469
135787,106445
135753,106409
135704,106397
135601,106351
135465,106307
135368,106298
135368,106256
135318,106262
135264,106220
135154,106202
135029,106139
135058,106181
134982,106123
134956,106091
134913,106113
134834,106074
134838,106084
134842,106100
134786,106056
134773,106050
134706,106036
134811,106050
134806,106083
134754,106059
134755,106031
134706,106076
134776,106082
134825,106040
134822,106100
134743,106040
134778,106060
134850,106098
134891,106085
134875,106109
134835,106074
134832,106138
134950,106097
134990,106159
134993,106169
134920,106122
134957,106151
135067,106162
135103,106197
135093,106160
135044,106193
135075,106196
135173,106202
135274,106240
135233,106265
135206,106234
135206,106216
135298,106292
135340,106269
135374,106284
135300,106305
135331,106314
135419,106345
135427,106308
135454,106340
135425,106309
135431,106322
135496,106335
135500,106333
135438,106334
135461,106314
135484,106344
135497,106356
135496,106313
135499,106364
135431,106320
135448,106316
135516,106364
135493,106335
135453,106354
135429,106333
135432,106330
135522,106346
135539,106331
135474,106362
135418,106317
135430,106330
135532,106361
135514,106340
135492,106371
135454,106308
135471,106332
135584,106376
135577,106369
135563,106389
135484,106340
135532,106348
135621,106368
135644,106431
135566,106393
135566,106352
135638,106396
135668,106428
135688,106443
135718,106403
135620,106377
135734,106413
135753,106480
135763,106437
135788,106468
135741,106426
135801,106470
135842,106482
135901,106502
135837,106507
135811,106471
135920,106526
135921,106527
135923,106516
135992,106534
135914,106536
135995,106563
136018,106573
136075,106561
136030,106590
135991,106531
136098,106597
136121,106608
136158,106573
136142,106572
136121,106598
136145,106639
136216,106600
136214,106618
136227,106647
136182,106624
136219,106667
136282,106649
136289,106658
136290,106635
136255,106648
136313,106682
136372,106665
136409,106684
136326,106707
136335,106688
136406,106723
136418,106719
136412,106697
136442,106704
136396,106723
136491,106769
136508,106742
136535,106730
136455,106755
136407,106697
136506,106750
136462,106727
136465,106682
136366,106682
136307,106644
136301,106692
136276,106602
136172,106601
136087,106558
135984,106534
135952,106540
135899,106464
135836,106466
135688,106390
135606,106389
135617,106358
135577,106364
135442,106348
135374,106289
135251,106259
135316,106286
135255,106249
135183,106217
135121,106215
135039,106198
135095,106199
135067,106180
135041,106173
134969,106148
134944,106144
134984,106169
134976,106156
134953,106128
134889,106133
134879,106127
134919,106140
134982,106166
134948,106142
134917,106162
134921,106140
134972,106167
135044,106171
135052,106164
134967,106170
134968,106144
135086,106204
135116,106186
135135,106227
135088,106185
135118,106197
135197,106247
135248,106283
135191,106273
135228,106222
135225,106276
135307,106305
135374,106290
135336,106312
135299,106309
135321,106293
135472,106335
135495,106332
135491,106362
135434,106382
135476,106329
135548,106407
135552,106360
135571,106381
135458,106365
135476,106365
135596,106379
135604,106393
135556,106369
135531,106361
135512,106388
135533,106350
135562,106346
135518,106326
135467,106322
135495,106337
135493,106348
135514,106343
135498,106339
135378,106311
135462,106330
135485,106377
135468,106329
135445,106349
135353,106290
135426,106307
135476,106325
135484,106344
135447,106362
135355,106312
135405,106308
135484,106369
135505,106358
135458,106319
135404,106321
135441,106324
135502,106368
135501,106360
135475,106376
135417,106326
135507,106354
135513,106380
135553,106368
135581,106393
135496,106352
135589,106431
135581,106379
135642,106394
135658,106406
135595,106424
135667,106411
135692,106415
135769,106432
135697,106430
135666,106420
135739,106457
135791,106457
135805,106450
135821,106451
135768,106457
135797,106500
135860,106458
135879,106506
135835,106479
135832,106507
