11111,11111
0,0
82487,79194
108475,93572
108603,93635
108715,93691
108868,93744
108947,93818
109060,93868
109168,93887
109317,93947
109362,94012
109500,94061
109575,94097
109616,94131
109706,94142
109693,94177
109736,94161
109803,94215
109785,94267
109797,94247
109849,94244
109884,94277
109896,94300
109950,94273
109985,94315
110012,94329
110037,94348
110029,94373
110138,94381
110202,94422
110274,94462
110331,94480
110425,94521
110498,94607
110611,94592
110721,94703
110768,94689
110883,94742
111001,94828
111048,94857
111105,94838
111134,94893
111158,94897
111244,94894
111299,94960
111310,94952
111365,94965
111486,95045
111536,95066
111663,95122
111812,95162
111935,95239
112153,95353
112373,95464
112552,95590
112753,95649
112968,95731
113186,95863
113428,95955
113642,96076
113771,96165
113963,96234
114104,96344
114265,96382
114396,96450
114502,96485
114652,96548
114696,96648
114754,96645
114890,96719
114909,96777
114950,96779
115084,96806
115153,96844
115256,96881
115256,96920
115347,96955
115432,96992
115503,97040
115551,97031
115629,97102
115667,97112
115825,97143
115899,97241
115956,97252
116023,97267
116100,97307
116191,97378
116272,97396
116357,97451
116380,97453
116436,97489
116498,97484
116539,97556
116607,97568
116619,97597
116604,97600
116614,97567
116623,97598
116608,97622
116652,97590
116601,97616
116627,97597
116679,97642
116706,97654
116808,97691
116820,97726
116902,97717
117047,97794
117128,97842
117173,97846
117289,97905
117341,97962
117428,97988
117530,98013
117557,98063
117553,98069
117654,98094
117659,98118
117638,98081
117660,98105
117658,98079
117648,98127
117676,98126
117655,98129
117927,98204
118645,98398
118682,98409
119642,98831
119669,98852
119759,98880
119780,98895
121551,99647
121568,99630
121684,99691
121747,99717
121772,99734
122420,99993
122429,100029
122457,99998
122465,100064
122527,100061
122578,100047
122658,100101
122694,100141
122791,100164
122876,100215
122961,100223
123035,100256
123089,100282
123178,100301
123260,100361
123358,100393
123414,100398
123458,100449
123536,100438
123601,100481
123681,100527
123696,100559
123677,100529
123755,100543
123793,100566
123785,100562
123724,100581
123699,100498
123726,100536
123659,100501
123645,100490
123563,100452
123451,100426
123470,100425
123433,100424
123388,100406
123331,100391
123249,100331
123263,100358
123211,100323
123132,100303
123119,100269
123043,100281
123039,100249
123004,100267
122995,100246
122993,100229
123010,100263
122986,100266
123033,100290
123081,100293
123101,100312
123100,100294
123178,100326
123228,100356
123273,100383
123374,100407
123337,100435
123433,100433
123486,100470
123542,100502
123599,100501
123622,100505
123728,100578
123790,100604
123857,100605
123921,100634
123965,100641
124012,100651
124148,100726
124205,100759
124290,100807
124351,100794
124461,100851
124598,100901
124685,100938
124767,100995
124787,101005
124905,101027
124966,101042
125018,101073
125077,101080
125110,101121
125143,101106
125218,101124
125217,101189
125259,101149
125300,101180
125324,101173
125349,101222
125336,101220
125372,101231
125393,101177
125414,101259
125402,101234
125444,101254
125409,101226
125425,101218
125461,101268
125481,101246
125501,101275
125473,101228
125517,101246
125519,101284
125538,101264
125553,101289
125531,101277
125607,101273
125595,101308
125632,101278
125650,101334
125648,101280
125681,101318
125726,101325
125722,101360
125752,101346
125764,101361
125777,101356
125842,101375
125835,101420
125842,101349
125839,101364
125862,101391
125934,101401
125963,101419
125956,101440
125980,101422
126006,101425
126028,101474
126039,101473
126065,101454
126096,101474
126085,101479
126135,101481
126194,101509
126184,101485
126220,101529
126252,101499
126237,101538
126271,101553
126306,101558
126322,101533
126327,101590
126396,101583
126412,101602
126426,101592
126457,101587
126430,101629
126506,101618
126530,101625
126550,101636
126569,101637
126560,101633
126596,101648
126656,101687
126631,101667
126661,101651
126697,101676
126728,101679
126752,101717
126780,101699
126781,101698
126795,101734
126856,101744
126853,101749
126889,101738
126895,101764
126871,101745
126942,101762
126959,101753
126951,101809
126968,101776
126960,101793
127008,101776
127052,101787
127034,101809
127023,101801
127034,101795
127066,101792
127139,101809
127114,101834
127107,101827
127085,101833
127133,101798
127184,101840
127169,101838
127181,101831
127223,101851
127248,101857
127261,101886
127249,101903
127241,101841
127280,101879
127317,101885
127324,101898
127319,101883
127324,101860
127362,101917
127382,101902
127395,101924
127412,101915
127392,101947
127423,101885
127443,101905
127446,101910
127407,101909
127407,101897
127416,101914
127362,101911
127328,101860
127326,101843
127261,101816
127197,101842
127196,101812
127103,101811
127058,101736
127023,101735
126943,101692
126935,101706
126875,101665
126772,101625
126763,101613
126695,101605
126699,101606
126638,101548
126589,101544
126512,101542
126479,101502
126453,101499
126460,101489
126434,101469
126324,101479
126313,101425
126353,101437
126297,101451
126290,101440
126248,101409
126254,101397
126273,101411
126255,101377
126271,101406
126207,101392
126224,101377
126284,101398
126224,101434
126219,101398
126240,101376
126224,101398
126257,101380
126233,101390
126249,101386
126284,101409
126314,101391
126306,101429
126339,101414
126356,101446
126340,101446
126380,101424
126450,101448
126513,101467
126504,101479
126498,101429
126573,101488
126586,101522
126663,101545
126650,101518
126649,101494
126704,101534
126685,101525
126770,101534
126736,101520
126768,101532
126776,101562
126805,101568
126813,101570
126820,101556
126804,101546
126811,101538
126838,101563
126812,101532
126817,101543
126797,101558
126816,101542
126836,101546
126816,101595
126774,101549
126792,101519
126813,101562
126779,101519
126826,101550
126795,101526
126750,101541
126777,101531
126805,101536
126833,101565
126801,101536
126824,101560
126802,101547
126845,101530
126859,101563
126853,101554
126859,101551
126893,101562
126943,101567
126946,101587
126968,101557
126965,101613
126997,101588
127088,101634
127034,101639
127037,101594
127103,101631
127119,101615
127154,101636
127136,101657
127188,101643
127150,101666
127241,101664
127238,101648
127249,101673
127255,101673
127282,101709
127334,101723
127356,101699
127355,101709
127392,101737
127401,101696
127458,101721
127467,101772
127478,101746
127489,101760
127494,101744
127560,101785
127532,101795
127557,101773
127567,101776
127608,101789
127610,101803
127627,101785
127635,101798
127678,101802
127680,101833
127693,101820
127760,101815
127757,101826
127771,101836
127761,101847
127817,101842
127849,101887
127876,101880
127848,101901
127865,101867
127950,101899
127949,101907
127964,101880
127975,101913
127931,101899
128022,101908
128045,101972
128046,101920
128079,101948
128069,101927
128133,101967
128116,101966
128088,101974
128115,101938
128174,101944
128167,101966
128210,101993
128159,101998
128176,101967
128213,102004
128265,102021
128233,102026
128212,102012
128242,102022
128235,102017
128269,102018
128290,102006
128296,102047
128309,102038
128291,102028
128336,102058
128338,102048
128348,102026
128296,102033
128343,102044
128344,102028
128301,102030
128276,102001
128266,101989
128228,101962
128175,101968
128151,101945
128081,101908
128006,101867
127976,101887
127906,101845
127877,101828
127778,101807
127683,101773
127635,101733
127613,101724
127512,101732
127480,101665
127425,101625
127365,101635
127294,101613
127275,101572
127204,101576
127137,101534
127075,101511
127069,101490
127051,101518
126960,101489
126940,101458
126941,101439
126943,101467
126870,101416
126872,101433
126846,101401
126846,101423
126816,101408
126851,101413
126803,101408
126802,101381
126793,101406
126784,101381
126830,101383
126766,101383
126751,101370
126780,101354
126807,101399
126809,101364
126804,101385
126746,101353
126807,101361
126814,101364
126848,101422
126812,101402
126826,101394
126852,101385
126851,101410
126889,101411
126865,101407
126864,101399
126908,101421
126897,101418
126919,101396
126896,101410
126890,101408
126912,101427
126907,101417
126910,101431
126893,101387
126876,101396
126893,101383
126858,101409
126869,101399
126862,101357
126800,101355
126802,101377
126793,101353
126786,101324
126761,101334
126680,101308
126727,101323
126657,101311
126654,101270
126667,101273
126603,101292
126584,101291
126595,101270
126591,101255
126570,101259
126513,101211
126527,101247
126505,101228
126493,101207
126462,101165
126461,101227
126460,101206
126443,101201
126414,101176
126402,101154
126401,101179
126387,101158
126391,101187
126401,101155
126330,101150
126323,101152
126362,101181
126342,101164
126331,101129
126343,101142
126302,101140
126333,101135
126320,101133
126311,101128
126306,101116
126293,101088
126324,101129
126330,101125
126354,101110
126277,101120
126326,101091
126341,101142
126325,101112
126341,101124
126301,101143
126317,101106
126385,101141
126346,101142
126334,101137
126372,101134
126333,101120
126381,101129
126371,101142
126395,101144
126360,101160
126380,101141
126388,101148
126428,101169
126413,101172
126371,101101
126396,101166
126417,101126
126428,101153
126410,101146
126408,101102
126418,101168
126454,101137
126455,101162
126425,101150
126437,101127
126414,101128
126489,101151
126433,101156
126446,101168
126419,101162
126424,101132
126493,101138
126460,101154
126445,101120
126424,101122
126458,101135
126489,101140
126445,101150
126425,101127
126430,101110
126412,101125
126386,101105
126406,101099
126381,101091
126277,101024
126234,101037
126225,101051
126138,101008
126055,100979
126012,100904
125921,100906
125865,100869
125780,100829
125693,100785
125590,100736
125464,100701
125369,100658
125285,100583
125144,100570
125028,100523
124940,100470
124827,100428
124686,100381
124564,100307
124442,100295
124309,100229
124263,100180
124205,100163
124079,100131
123962,100047
123911,100049
123832,100000
123801,99977
123718,99971
123623,99904
123594,99910
123536,99894
123491,99849
123466,99867
123431,99830
123375,99836
123378,99813
123370,99809
123338,99792
123282,99751
123299,99776
123280,99796
123245,99757
123231,99725
123222,99751
123165,99750
123197,99715
123196,99710
123213,99747
123161,99683
123182,99725
123191,99732
123181,99748
123144,99710
123172,99711
123199,99730
123181,99741
123202,99721
123177,99744
123197,99717
123216,99737
123231,99741
123237,99728
123206,99751
123165,99707
123194,99711
123217,99739
123207,99717
123140,99721
123123,99686
123154,99712
123088,99723
123082,99644
123080,99672
122986,99649
122957,99617
122999,99612
122930,99635
122888,99573
122824,99567
122807,99579
122803,99529
122796,99550
122681,99534
122627,99503
122626,99492
122629,99487
122612,99448
122566,99470
122486,99404
122527,99457
122513,99422
122477,99421
122496,99419
122432,99413
122436,99384
122479,99396
122461,99412
122413,99400
122358,99382
122382,99379
122413,99379
122390,99365
122383,99343
122326,99320
122368,99370
122323,99346
122331,99326
122320,99319
122260,99335
122283,99318
122298,99341
122283,99308
122339,99348
122257,99310
122311,99336
122332,99374
122302,99323
122325,99292
122328,99350
122333,99336
122357,99347
122335,99347
122355,99321
122343,99358
122320,99353
122350,99328
122358,99329
122364,99340
122306,99355
122296,99316
122347,99346
122348,99336
122279,99331
122291,99319
122304,99329
122319,99307
122320,99296
122317,99321
122309,99305
122339,99321
122295,99304
122308,99267
122314,99300
122289,99292
122274,99301
122285,99291
122306,99269
122271,99300
122246,99271
122282,99289
122281,99300
122249,99279
122290,99265
122250,99297
122247,99250
122253,99273
122282,99264
122248,99260
122241,99257
122227,99237
122289,99292
122237,99272
122168,99215
122156,99221
122152,99218
122092,99205
121997,99168
121918,99086
121844,99068
121741,99041
121601,98962
121474,98888
121335,98841
121137,98777
120998,98707
120831,98588
120672,98533
120433,98461
120231,98357
120071,98263
119908,98207
119706,98129
119475,98002
119290,97936
119148,97869
118994,97795
118791,97693
118660,97645
118512,97614
118363,97556
118261,97493
118135,97433
118041,97361
117962,97356
117874,97343
117815,97296
117777,97274
117663,97270
117667,97242
117659,97242
117655,97263
117601,97282
117608,97249
117599,97262
117639,97264
117678,97269
117717,97290
117669,97280
117715,97345
117733,97322
117788,97335
117807,97376
117797,97366
117836,97379
117881,97404
117947,97449
117937,97413
117974,97429
118025,97489
118036,97482
118121,97494
118149,97526
118174,97527
118194,97560
118247,97553
118320,97582
118345,97589
118328,97603
118368,97595
118410,97632
118452,97642
118456,97664
118462,97642
118489,97660
118480,97677
118512,97670
118505,97677
118468,97642
118481,97663
118507,97670
118485,97648
118469,97633
118443,97664
118413,97644
118489,97643
118450,97644
118397,97622
118368,97594
118383,97611
118357,97589
118370,97583
118309,97598
118309,97556
118307,97560
118284,97586
118273,97547
118300,97563
118237,97525
118228,97545
118261,97533
118254,97547
118215,97505
118218,97539
118192,97527
118235,97544
118229,97568
118235,97529
118229,97548
118206,97567
118269,97548
118297,97576
118320,97568
118265,97575
118369,97593
118341,97617
118418,97621
118399,97633
118417,97631
118446,97653
118473,97659
118508,97657
118519,97678
118520,97691
118545,97686
118565,97713
118599,97705
118633,97732
118641,97722
118653,97728
118709,97786
118769,97754
118782,97791
118774,97819
118828,97810
118858,97813
118902,97849
118862,97840
118890,97854
118966,97850
118999,97902
118982,97881
119030,97884
119057,97875
119029,97906
119091,97947
119107,97904
119142,97958
119130,97941
119197,97943
119204,97951
119253,98006
119279,98005
119296,98010
119268,98035
119356,98007
119328,98027
119392,98032
119330,98024
119352,98013
119405,98046
119386,98049
119426,98034
119393,98059
119422,98034
119454,98070
119480,98060
119452,98055
119448,98038
119461,98050
119428,98024
119392,98024
119319,97971
119257,97951
119195,97901
119099,97884
118987,97831
118864,97784
118702,97724
118556,97666
118428,97565
118266,97512
118135,97452
117897,97378
117782,97306
117625,97226
117466,97147
117267,97110
117102,97034
116993,96974
116848,96925
116689,96820
116605,96821
116471,96731
116379,96717
116314,96713
116212,96633
116190,96623
116113,96601
116111,96598
116076,96621
116076,96595
116028,96585
116010,96596
116062,96607
116124,96606
116142,96645
116137,96670
116136,96653
116249,96675
116289,96706
116348,96709
116355,96721
116430,96760
116457,96817
116521,96790
116555,96862
116623,96871
116635,96881
116706,96919
116737,96924
116792,96938
116823,96953
116868,96950
116951,97005
116979,97020
116989,97066
117024,97020
117071,97075
117103,97081
117186,97123
117236,97128
117279,97163
117281,97182
117357,97209
117408,97239
117478,97235
117510,97262
117556,97297
117619,97280
117678,97332
117679,97360
117698,97320
117748,97344
117779,97416
117802,97392
117811,97399
117794,97399
117844,97397
117845,97410
117871,97395
117891,97431
117865,97420
117870,97413
117842,97403
117852,97405
117841,97400
117821,97383
117804,97392
117800,97372
117799,97368
117760,97360
117752,97338
117727,97343
117740,97357
117713,97330
117702,97333
117625,97311
117643,97290
117695,97342
117656,97336
117707,97307
117645,97321
117685,97319
117663,97346
117701,97310
117674,97340
117678,97330
117659,97332
117714,97334
117752,97358
117717,97321
117761,97347
117797,97363
117815,97399
117808,97391
117854,97368
117855,97411
117868,97428
117903,97446
117941,97419
117986,97461
117964,97442
117994,97450
118045,97491
118038,97476
118061,97488
118072,97459
118121,97535
118164,97492
118146,97520
118217,97572
118161,97568
118235,97521
118276,97592
118295,97583
118311,97624
118311,97593
118354,97600
118405,97614
118429,97655
118421,97630
118457,97640
118427,97654
118480,97661
118561,97657
118522,97705
118536,97698
118565,97711
118626,97712
118660,97743
118640,97743
118696,97729
118727,97795
118738,97780
118781,97774
118834,97795
118832,97826
118824,97858
118860,97812
118877,97844
118855,97780
118804,97776
118801,97795
118776,97785
118666,97731
118590,97696
118456,97646
118363,97588
118248,97525
118145,97466
117963,97408
117809,97342
117672,97258
117514,97186
117378,97168
117177,97053
117046,96991
116875,96955
116793,96874
116654,96840
116547,96762
116413,96729
116326,96697
116247,96679
116171,96650
116117,96600
116051,96572
116060,96593
116036,96570
116008,96588
116038,96580
115979,96593
116014,96578
116090,96602
116064,96589
116115,96620
116125,96622
116129,96650
116210,96639
116273,96694
116275,96725
116316,96741
116386,96737
116462,96786
116448,96806
116509,96798
116540,96830
116635,96852
116642,96876
116703,96882
116725,96943
116768,96942
116860,96989
116897,96981
116942,97001
116992,97018
117027,97063
117063,97043
117142,97085
117204,97146
117193,97109
117216,97114
117329,97188
117326,97151
117380,97186
117416,97197
117409,97214
117426,97228
117461,97230
117510,97262
117463,97240
117483,97193
117515,97230
117530,97234
117473,97223
117480,97216
117446,97178
117480,97178
117493,97227
117413,97223
117388,97167
117401,97165
117374,97180
117367,97194
117344,97173
117296,97146
117255,97102
117288,97147
117244,97101
117275,97127
117226,97111
117198,97088
117211,97100
117205,97125
117223,97115
117202,97109
117181,97074
117249,97094
117224,97133
117226,97093
117236,97085
117238,97128
117268,97095
117286,97137
117300,97120
117315,97149
117321,97134
117372,97186
117401,97180
117410,97198
117415,97199
117470,97190
117506,97213
117543,97236
117530,97247
117561,97227
117594,97250
117619,97278
117675,97322
117682,97279
117717,97310
117728,97312
117807,97332
117826,97361
117840,97357
117867,97366
117908,97399
117948,97423
118020,97440
117994,97438
118052,97426
118073,97455
118144,97497
118176,97532
118158,97486
118189,97531
118231,97515
118252,97564
118305,97580
118327,97553
118348,97588
118377,97582
118406,97607
118385,97623
118423,97616
118409,97586
118441,97621
118474,97619
118464,97634
118422,97594
118425,97597
118396,97606
118412,97577
118345,97551
118278,97566
118194,97519
118120,97469
118024,97419
117916,97340
117797,97287
117635,97261
117496,97187
117357,97111
117176,97050
117010,96945
116790,96874
116651,96790
116520,96723
116376,96673
116189,96587
116061,96527
115918,96496
115808,96411
115717,96348
115583,96340
115458,96302
115392,96245
115354,96244
115283,96196
115193,96190
115140,96142
115148,96129
115147,96151
115125,96126
115088,96137
115070,96123
115110,96145
115086,96150
115139,96150
115177,96199
115151,96182
115228,96198
115231,96190
115255,96225
115303,96208
115247,96217
115331,96246
115394,96290
115398,96245
115433,96294
115470,96317
115529,96329
115567,96353
115638,96395
115664,96420
115667,96398
115804,96451
115856,96496
115900,96529
115929,96537
115985,96528
116077,96612
116134,96649
116189,96660
116252,96674
116248,96688
116337,96685
116394,96725
116434,96734
116439,96751
116442,96767
116487,96772
116498,96771
116527,96778
116517,96776
116473,96747
116516,96797
116517,96780
116482,96761
116494,96757
116413,96730
116447,96743
116418,96734
116415,96736
116390,96710
116329,96698
116335,96689
116337,96682
116302,96659
116258,96669
116247,96632
116237,96674
116226,96662
116199,96632
116184,96624
116142,96633
116118,96615
116103,96586
116137,96591
116091,96587
116096,96555
116105,96575
116115,96598
116069,96550
116112,96588
116072,96561
116122,96616
116163,96632
116124,96578
116164,96613
116171,96627
116184,96652
116193,96615
116259,96656
116236,96645
116235,96635
116314,96671
116338,96693
116373,96716
116347,96727
116383,96722
116445,96733
116534,96755
116513,96761
116539,96776
116569,96825
116605,96829
116653,96827
116687,96855
116670,96840
116711,96862
116736,96864
116815,96884
116777,96901
116810,96925
116800,96900
116819,96896
116897,96906
116859,96955
116870,96918
116938,96944
116932,96974
116967,96968
116936,96976
116926,96947
116963,96965
116982,96980
117019,96954
117033,96993
117007,96963
117018,96979
117049,96968
117023,96978
117030,96989
116980,96953
116932,96946
116887,96914
116846,96893
116747,96840
116637,96782
116530,96777
116420,96711
116273,96622
116131,96568
115963,96507
115821,96414
115683,96386
115501,96281
115388,96267
115199,96168
115073,96110
114905,96073
114835,95988
114680,95934
114621,95869
114474,95854
114445,95862
114391,95779
114291,95785
114250,95721
114201,95722
114213,95710
114203,95697
114170,95745
114193,95704
114181,95734
114190,95736
114238,95739
114280,95755
114253,95769
114274,95765
114314,95768
114374,95821
114374,95805
114373,95810
114411,95867
114464,95873
114490,95867
114561,95902
114571,95913
114620,95955
114686,95971
114732,96011
114785,95992
114850,96034
114908,96099
114945,96118
115042,96126
115101,96155
115130,96196
115192,96183
115248,96225
115295,96224
115301,96234
115293,96259
115309,96243
115382,96272
115339,96313
115357,96269
115361,96280
115349,96271
115352,96252
115391,96286
115325,96264
115279,96249
115310,96225
115284,96231
115270,96221
115224,96193
115169,96167
115179,96183
115140,96179
115126,96140
115124,96147
115041,96156
115034,96106
115057,96110
114986,96134
114925,96077
114914,96039
114899,96064
114879,96034
114831,96041
114792,96010
114769,95972
114734,96007
114744,96002
114702,95958
114740,95971
114701,95964
114732,96005
114701,96003
114728,95961
114742,95994
114725,95979
114758,95954
114821,96028
114815,96028
114821,96011
114835,96051
114855,96062
114921,96070
114902,96075
114937,96060
114925,96111
114995,96077
115004,96110
114986,96101
115074,96136
115011,96122
115058,96132
115097,96158
115121,96147
115131,96164
115144,96170
115172,96195
115207,96190
115239,96201
115278,96239
115260,96255
115287,96248
115346,96243
115397,96273
115359,96270
115365,96249
115411,96269
115461,96294
115450,96335
115456,96286
115468,96307
115557,96331
115553,96332
115575,96348
115604,96370
115592,96383
115664,96403
115679,96417
115718,96429
115719,96446
115742,96396
115826,96480
115834,96458
115863,96512
115850,96480
115814,96467
115862,96464
115863,96478
115837,96487
115742,96451
115710,96429
115635,96393
115520,96302
115448,96293
115281,96222
115146,96152
115073,96117
114894,96090
114790,96003
114596,95922
114447,95868
114384,95808
114242,95766
114134,95704
113991,95645
113914,95622
113814,95584
113718,95536
113673,95507
113531,95476
113445,95394
113475,95425
113421,95407
113380,95397
113346,95376
113293,95377
113289,95351
113350,95363
113324,95357
113319,95394
113342,95387
113405,95416
113447,95468
113484,95450
113518,95458
113600,95486
113663,95532
113703,95571
113743,95607
113759,95597
113802,95645
113882,95646
113929,95659
113966,95687
114027,95726
114025,95733
114135,95766
114189,95808
114201,95811
114253,95814
114329,95878
114412,95882
114464,95942
114526,95952
114601,95966
114630,96014
114685,96029
114793,96067
114803,96102
114835,96065
114862,96085
114888,96127
114910,96107
114966,96139
114941,96162
114982,96133
114993,96169
115059,96168
115071,96205
115052,96190
115093,96205
115105,96228
115129,96228
115129,96237
115154,96221
115161,96235
115164,96245
115194,96241
115194,96253
115149,96238
115208,96226
115193,96243
115165,96236
115147,96253
115192,96218
115194,96243
115191,96254
115238,96257
115268,96279
115242,96283
115253,96292
115328,96278
115376,96331
115360,96346
115394,96352
115460,96352
115506,96414
115531,96396
115584,96424
115569,96428
115606,96453
115650,96461
115696,96457
115696,96466
115692,96498
115719,96473
115782,96499
115779,96504
115792,96516
115818,96525
115817,96522
115870,96569
115880,96548
115887,96566
115892,96572
115903,96549
115960,96572
115994,96608
115957,96595
115998,96601
116009,96633
116006,96638
116059,96615
116101,96641
116082,96649
116122,96675
116183,96675
116153,96719
116145,96676
116169,96676
116237,96684
116260,96734
116241,96712
116249,96708
116223,96710
116234,96730
116253,96717
116222,96705
116241,96687
116222,96724
116233,96727
116269,96678
116274,96756
116299,96742
116327,96752
116377,96791
116394,96766
116488,96800
116497,96822
116548,96811
116589,96872
116604,96849
116671,96885
116675,96892
116650,96883
116676,96877
116655,96914
116588,96865
116580,96829
116502,96826
116435,96789
116393,96776
116268,96734
116202,96657
116040,96635
115944,96585
115845,96497
115726,96480
115625,96417
115463,96363
115390,96314
115282,96269
115187,96257
115108,96213
115040,96171
114997,96166
114934,96111
114874,96116
114847,96072
114842,96099
114851,96121
114825,96074
114841,96098
114793,96099
114853,96087
114881,96135
114901,96138
114943,96127
114937,96151
114960,96156
115011,96177
115007,96179
115060,96190
115078,96212
115074,96194
115122,96244
115190,96276
115196,96260
115183,96255
115214,96270
115256,96298
115258,96308
115290,96327
115289,96304
115303,96323
115364,96357
115377,96352
115391,96341
115432,96388
115446,96365
115496,96394
115545,96435
115559,96439
115622,96418
115606,96438
115667,96488
115720,96484
115690,96492
115728,96502
115746,96499
115768,96535
115781,96523
115822,96531
115782,96569
115794,96524
115795,96534
115831,96570
115841,96540
115815,96512
115798,96557
115869,96590
115841,96564
115859,96541
115903,96570
115889,96543
115922,96593
115911,96591
115927,96618
115948,96588
115951,96597
116042,96629
116036,96618
116080,96659
116062,96673
116077,96680
116186,96710
116250,96749
116260,96755
116280,96760
116330,96816
116412,96791
116458,96841
116462,96867
116474,96811
116535,96872
116528,96860
116592,96887
116607,96902
116595,96859
116564,96870
116652,96912
116668,96907
116640,96905
116693,96898
116673,96913
116713,96908
116692,96917
116732,96927
116714,96945
116696,96920
116741,96908
116781,96937
116762,96929
116708,96954
116701,96930
116758,96965
116789,96935
116822,96951
116767,96936
116793,96950
116852,96945
116900,96969
116849,96999
116861,96937
116896,96987
116912,97021
116958,97003
116953,97045
116960,96999
116997,97030
117037,97037
117080,97039
117119,97071
117073,97068
117180,97091
117190,97100
117214,97117
117264,97131
117232,97151
117285,97148
117343,97165
117369,97176
117348,97178
117390,97185
117360,97209
117427,97233
117437,97210
117494,97196
117476,97216
117475,97230
117501,97224
117525,97240
117476,97202
117444,97227
117412,97177
117420,97182
117369,97177
117270,97131
117232,97100
117179,97089
117103,97021
117011,96965
116883,96972
116783,96869
116718,96841
116614,96819
116498,96778
116443,96769
116306,96686
116228,96651
116213,96662
116079,96591
116049,96592
115955,96537
115935,96508
115910,96489
115905,96487
115824,96481
115807,96438
115824,96480
115807,96494
115826,96482
115854,96489
115842,96492
115901,96490
115939,96519
115990,96552
115983,96579
116028,96566
116095,96622
116143,96640
116175,96644
116193,96676
116236,96653
116318,96713
116358,96730
116393,96741
116397,96725
116410,96764
116451,96780
116536,96775
116565,96820
116626,96821
116600,96826
116668,96853
116751,96906
116779,96930
116816,96918
116828,96946
116916,96977
116949,96972
117010,96998
117061,97047
117073,97040
117184,97078
117215,97094
117271,97143
117265,97095
117300,97138
117344,97185
117421,97173
117425,97198
117417,97163
117381,97182
117474,97200
117462,97206
117465,97206
117404,97181
117413,97172
117440,97178
117459,97217
117430,97163
117420,97174
117400,97152
117443,97162
117428,97196
117415,97166
117429,97159
117403,97173
117410,97159
117428,97140
117418,97143
117410,97189
117411,97176
117433,97183
117461,97176
117443,97209
117454,97141
117470,97196
117495,97200
117533,97217
117510,97216
117555,97204
117559,97228
117643,97224
117659,97248
117672,97276
117649,97252
117709,97262
117772,97338
117772,97317
117800,97335
117831,97315
117848,97380
117885,97356
117972,97372
117939,97412
117967,97399
117994,97420
118025,97435
118037,97423
118090,97438
118057,97472
118084,97433
118160,97485
118156,97478
118117,97482
118178,97452
118188,97490
118239,97509
118260,97501
118223,97523
118249,97481
118291,97509
118282,97547
118330,97500
118318,97527
118272,97501
118307,97493
118344,97543
118323,97525
118344,97516
118342,97524
118309,97514
118374,97546
118366,97556
118333,97517
118352,97556
118361,97530
118422,97535
118368,97581
118391,97531
118432,97566
118441,97573
118427,97535
118428,97539
118457,97559
118446,97563
118446,97565
118480,97586
118471,97575
118532,97559
118503,97591
118493,97578
118562,97583
118525,97596
118481,97593
118459,97562
118501,97543
118464,97564
118407,97518
118373,97496
118288,97413
118213,97444
118189,97398
118043,97348
117962,97310
117879,97304
117792,97251
117760,97229
117678,97205
117565,97124
117498,97092
117435,97068
117361,97050
117305,96991
117226,97007
117133,96964
117102,96919
117098,96934
117035,96901
117032,96886
116997,96895
116957,96909
116989,96866
116990,96892
116963,96912
116952,96861
117034,96914
117053,96935
117050,96940
117060,96923
117054,96920
117124,96919
117156,96988
117165,96990
117226,96962
117210,96976
117191,97018
117265,97017
117299,97030
117257,97053
117278,97021
117316,97043
117365,97070
117376,97068
117417,97044
117452,97082
117511,97106
117531,97142
117585,97167
117604,97166
117660,97155
117745,97231
117816,97254
117877,97267
117949,97278
117982,97328
118049,97393
118106,97354
118164,97398
118215,97433
118229,97435
118270,97476
118336,97459
118342,97466
118361,97477
118340,97456
118371,97510
118362,97489
118401,97454
118377,97500
118322,97469
118360,97451
118349,97486
118309,97456
118343,97428
118303,97450
118320,97423
118319,97466
118327,97441
118299,97439
118258,97417
118331,97436
118331,97437
118315,97466
118337,97435
118348,97433
118342,97482
118365,97435
118384,97456
118397,97449
118344,97451
118395,97441
118428,97463
118428,97501
118401,97452
118395,97465
118430,97494
118435,97499
118444,97474
118474,97501
118483,97504
118471,97494
118558,97541
118577,97549
118561,97557
118598,97536
118677,97586
118712,97563
118754,97604
118741,97640
118746,97622
118832,97617
118880,97676
118876,97665
118954,97680
118947,97701
118965,97690
119049,97721
119045,97732
119049,97726
119074,97724
119102,97782
119114,97756
119174,97781
119153,97772
119175,97792
119210,97812
119257,97806
119235,97803
119277,97802
119289,97815
119285,97849
119294,97830
119311,97811
119317,97855
119294,97820
119295,97850
119336,97846
119344,97826
119349,97830
119326,97837
119325,97824
119353,97842
119360,97831
119300,97835
119305,97818
119367,97820
119325,97853
119307,97819
119306,97811
119324,97799
119342,97857
119387,97848
119392,97828
119395,97837
119405,97869
119476,97861
119525,97890
119513,97901
119587,97920
119606,97931
119658,97968
119728,97962
119742,97975
119789,97991
119804,98021
119868,98023
119896,98071
119952,98081
119975,98056
119971,98074
120027,98127
120052,98089
120008,98089
120030,98095
120014,98079
120043,98089
119995,98059
119980,98060
119921,98043
119850,98023
119900,98001
119796,97983
119720,97959
119623,97916
119592,97869
119555,97843
119481,97845
119366,97760
119304,97725
119246,97740
119187,97689
119131,97656
119056,97671
118978,97604
118935,97599
118857,97554
118845,97522
118780,97532
118740,97488
118678,97486
118656,97460
118635,97424
118601,97430
118517,97421
118541,97390
118531,97399
118517,97376
118515,97382
118449,97372
118420,97353
118470,97395
118465,97348
118440,97359
118421,97331
118450,97389
118466,97358
118447,97391
118486,97373
118424,97350
118426,97388
118475,97392
118442,97370
118444,97350
118481,97358
118479,97358
118468,97381
118521,97394
118506,97404
118472,97344
118547,97402
118569,97411
118576,97406
118531,97403
118545,97400
118589,97423
118631,97410
118625,97429
118626,97447
118627,97452
118650,97413
118644,97468
118690,97449
118698,97454
118699,97450
118744,97519
118755,97476
118711,97476
118739,97469
118716,97487
118713,97439
118727,97475
118733,97473
118705,97452
118668,97446
118697,97420
118674,97425
118700,97452
118679,97449
118624,97454
118672,97419
118686,97460
118702,97427
118700,97447
118690,97449
118700,97439
118750,97462
118720,97450
118738,97457
118681,97450
118756,97461
118755,97494
118757,97451
118747,97446
118734,97464
118782,97467
118761,97469
118798,97484
118753,97463
118750,97490
118788,97497
118799,97480
118811,97471
118845,97507
118820,97451
118863,97510
118908,97507
118933,97527
118953,97560
118925,97536
118992,97558
119015,97560
119024,97569
119019,97596
119052,97547
119117,97619
119097,97591
119123,97607
119083,97618
119143,97598
119181,97649
119191,97622
119202,97622
119200,97637
119253,97638
119266,97662
119272,97678
119267,97650
119298,97688
119298,97656
119351,97722
119364,97692
119363,97662
119375,97680
119374,97676
119429,97746
119439,97746
119453,97716
119477,97704
119507,97746
119563,97751
119589,97767
119589,97767
119606,97776
119604,97812
119659,97798
119664,97819
119680,97826
119718,97817
119751,97855
119775,97827
119805,97861
119821,97863
119793,97876
119858,97874
119890,97900
119877,97910
119940,97883
119909,97928
119915,97897
119978,97942
119989,97961
120010,97912
120015,97949
120036,97972
120096,97962
120104,98002
120141,97991
120104,98020
120133,97981
120152,98015
120220,98019
120236,98043
120220,98069
120252,98026
120341,98073
120350,98095
120340,98075
120374,98069
120424,98132
120449,98124
120478,98128
120502,98152
120500,98148
120534,98158
120592,98161
120653,98203
120632,98200
120636,98177
120668,98197
120674,98179
120691,98183
120624,98175
120619,98157
120637,98185
120607,98163
120568,98136
120520,98129
120452,98101
120463,98092
120453,98107
120403,98053
120389,98052
120298,98042
120239,98015
120255,97992
120223,97983
120147,97985
120089,97920
120086,97925
120040,97916
119999,97872
119989,97879
119922,97865
119924,97867
119912,97830
119912,97846
119873,97855
119862,97818
119820,97845
119828,97808
119882,97839
119824,97822
119838,97834
119817,97813
119842,97818
119838,97793
119879,97837
119810,97807
119871,97799
119895,97844
119873,97810
119884,97843
119844,97803
119877,97810
119860,97812
119851,97778
119828,97809
119783,97767
119810,97764
119808,97770
119765,97777
119742,97768
119743,97756
119748,97785
119723,97744
119786,97755
119751,97757
119728,97768
119740,97759
119732,97766
119785,97748
119735,97771
119741,97716
119743,97718
119804,97750
119788,97738
119807,97766
119787,97786
119800,97769
119846,97785
119844,97766
119860,97778
119780,97796
119839,97752
119853,97772
119859,97778
119848,97760
119829,97782
119874,97777
119882,97803
119871,97777
119850,97788
119832,97792
119870,97800
119929,97801
119877,97782
119876,97827
119883,97781
119923,97832
119959,97829
119958,97822
119990,97818
119970,97835
120045,97893
120019,97873
120029,97883
120008,97847
120057,97846
120099,97896
120117,97900
120103,97871
120143,97874
120139,97925
120150,97879
120184,97906
120220,97925
120186,97914
120231,97919
120241,97930
120237,97927
120274,97969
120261,97956
120248,97932
120321,97973
120315,97981
120295,97945
120329,97956
120321,97996
120381,97988
120363,98009
120354,97956
120366,97968
120348,97997
120403,97990
120429,98008
120401,97996
120434,97998
120432,98062
120452,98020
120523,98043
120497,98056
120482,98049
120549,98036
120546,98092
120587,98050
120599,98094
120594,98083
120619,98108
120631,98111
120668,98093
120689,98091
120676,98115
120698,98127
120731,98115
120784,98131
120750,98153
120750,98126
120778,98159
120795,98170
120788,98128
120819,98162
120757,98138
120761,98159
120778,98156
120818,98174
120795,98120
120768,98145
120776,98115
120773,98102
120804,98137
120778,98145
120737,98116
120777,98090
120797,98156
120774,98141
120826,98162
120740,98124
120795,98114
120822,98181
120833,98159
120837,98158
120824,98131
120841,98147
120848,98149
120870,98181
120828,98152
120793,98156
120857,98134
120843,98160
120830,98137
120835,98156
120812,98149
120830,98162
120838,98156
120891,98143
120859,98175
120822,98153
120862,98157
120910,98152
120893,98203
120908,98162
120870,98146
120921,98148
120946,98176
120928,98205
120923,98150
120868,98138
120865,98135
120841,98126
120839,98134
120758,98108
120745,98059
120715,98053
120645,98043
120631,98024
120564,97977
120475,97943
120434,97931
120357,97913
120321,97907
120228,97862
120152,97815
120096,97782
120043,97775
120006,97753
119910,97722
119850,97692
119825,97656
119765,97652
119756,97626
119682,97607
119613,97575
119616,97586
119569,97519
119595,97564
119533,97534
119474,97533
119464,97523
119440,97476
119422,97513
119349,97480
119364,97474
119338,97476
119345,97433
119309,97433
119281,97444
119213,97439
119259,97427
119207,97439
119211,97439
119199,97411
119169,97376
119142,97390
119159,97392
119097,97367
119076,97340
119082,97350
119064,97348
119050,97349
119052,97341
119000,97323
118954,97300
118956,97331
118959,97311
118956,97345
118968,97290
118887,97301
118906,97289
118926,97293
118929,97305
118905,97296
118884,97282
118871,97283
118831,97272
118838,97249
118818,97222
118816,97230
118803,97262
118799,97240
118797,97205
118777,97233
118746,97219
118768,97204
118780,97202
118759,97238
118758,97211
118763,97192
118777,97213
118814,97240
118782,97200
118805,97214
118756,97210
118807,97227
118826,97209
118823,97240
118854,97249
118826,97231
118927,97258
118946,97293
118937,97272
118982,97284
118988,97323
119038,97326
119135,97324
119119,97378
119156,97351
119234,97400
119227,97414
119282,97406
119312,97443
119314,97443
119320,97454
119368,97477
119405,97466
119447,97488
119417,97475
119428,97487
119450,97482
119476,97503
119458,97512
119443,97487
119469,97494
119485,97534
119506,97538
119519,97507
119504,97530
119493,97498
119540,97516
119520,97532
119525,97534
119539,97503
119506,97490
119559,97521
119577,97550
119542,97523
119564,97532
119551,97524
119589,97521
119641,97579
119590,97544
119633,97531
119637,97577
119682,97600
119740,97597
119742,97621
119745,97583
119781,97621
119824,97649
119850,97660
119844,97639
119840,97626
119877,97639
119882,97660
119887,97671
119873,97646
119858,97608
119845,97654
119874,97635
119861,97639
119823,97632
119806,97588
119820,97625
119812,97654
119785,97580
119764,97596
119773,97595
119714,97581
119774,97596
119725,97607
119704,97576
119709,97560
119673,97569
119710,97571
119694,97544
119668,97539
119700,97583
119648,97537
119707,97545
119681,97556
119707,97537
119645,97551
119672,97538
119691,97572
119713,97566
119705,97568
119728,97560
119748,97596
119749,97579
119774,97596
119759,97592
119777,97576
119698,97557
119737,97559
119728,97560
119680,97537
119606,97542
119574,97496
119527,97451
119472,97453
119387,97403
119285,97388
119283,97330
119165,97309
119128,97292
119009,97245
118895,97162
118851,97175
118764,97134
118723,97111
118579,97086
118490,96988
118485,97009
118406,96986
118319,96969
118252,96901
118174,96905
118157,96864
118092,96858
118056,96827
118018,96809
117945,96773
117940,96771
117973,96783
117920,96791
117869,96741
117870,96726
117856,96773
117865,96734
117889,96741
117859,96751
117800,96715
117798,96742
117831,96729
117849,96762
117853,96749
117793,96711
117820,96712
117861,96713
117860,96736
117821,96759
117800,96689
117800,96721
117773,96700
117789,96710
117790,96681
117726,96716
117695,96671
117715,96691
117695,96656
117669,96660
117631,96649
117654,96661
117648,96617
117659,96665
117657,96647
117609,96668
117642,96633
117714,96659
117682,96679
117682,96618
117696,96680
117705,96679
117721,96649
117729,96674
117672,96681
117653,96615
117643,96644
117641,96638
117631,96640
117554,96612
117582,96561
117557,96602
117504,96576
117496,96587
117437,96559
117451,96523
117441,96560
117401,96512
117354,96515
117327,96485
117257,96438
117283,96457
117255,96471
117216,96440
117201,96424
117194,96415
117263,96472
117213,96413
117261,96452
117253,96445
117244,96455
117311,96477
117329,96484
117302,96494
117329,96463
117311,96454
117355,96468
117329,96488
117304,96498
117255,96468
117268,96449
117284,96450
117268,96462
117242,96471
117217,96427
117260,96437
117239,96476
117240,96451
117241,96449
117179,96440
117186,96407
117231,96413
117212,96459
117202,96433
117173,96407
117149,96419
117185,96422
117204,96454
117200,96442
117194,96429
117242,96424
117317,96467
117357,96480
117413,96504
117431,96553
117519,96540
117631,96577
117683,96629
117758,96676
117757,96675
117833,96683
117901,96736
117937,96716
117977,96747
117948,96772
117961,96745
118038,96775
117980,96767
117973,96764
117962,96732
117882,96743
117923,96762
117903,96713
117871,96704
117792,96693
117793,96674
117768,96681
117796,96704
117755,96679
117748,96680
117753,96654
117739,96658
117773,96664
117734,96661
117707,96627
117708,96643
117741,96643
117690,96633
117693,96641
117662,96606
117645,96638
117640,96595
117608,96584
117576,96585
117548,96576
117540,96539
117510,96568
117508,96545
117451,96549
117433,96503
117383,96489
117406,96493
117384,96491
117346,96462
117358,96488
117342,96467
117319,96485
117325,96439
117289,96460
117260,96409
117266,96405
117271,96435
117222,96417
117214,96366
117154,96399
117134,96371
117198,96370
117167,96378
117139,96397
117115,96316
117121,96351
117149,96346
117088,96329
117007,96309
116954,96273
116932,96247
116885,96211
116777,96166
116701,96124
116550,96062
116503,96046
116373,96042
116289,95959
116181,95925
116088,95874
116000,95874
115920,95818
115866,95811
115817,95770
115752,95735
115762,95760
115694,95749
115685,95730
115654,95705
115622,95692
115664,95703
115653,95721
115615,95697
115570,95704
115611,95670
115629,95711
115648,95728
115633,95745
115634,95706
115663,95721
115696,95772
115716,95759
115784,95779
115784,95754
115785,95797
115803,95803
115846,95793
115855,95824
115862,95818
115861,95817
115896,95865
115882,95818
115916,95835
115885,95862
115922,95865
115938,95853
115966,95860
115987,95888
115972,95881
115979,95891
116000,95895
115994,95890
116027,95908
115992,95902
115963,95875
115979,95886
116003,95887
115983,95864
115988,95880
115996,95882
115970,95867
115968,95886
115997,95866
115949,95866
115943,95861
115970,95853
115958,95860
115966,95857
115943,95836
115878,95834
115930,95853
115928,95845
115880,95825
115869,95807
115804,95820
115791,95791
115799,95771
115785,95760
115746,95780
115706,95750
115729,95753
115721,95774
115712,95733
115788,95782
115797,95761
115907,95814
115924,95808
115965,95838
115984,95881
116067,95883
116105,95933
116166,95962
116200,95941
116266,95967
116283,95973
116306,96016
116389,96036
116464,96061
116476,96068
116492,96077
116582,96127
116577,96165
116608,96138
116628,96147
116651,96138
116715,96200
116691,96172
116727,96188
116743,96192
116729,96221
116756,96201
116797,96218
116780,96232
116772,96202
116816,96223
116819,96227
116876,96295
116925,96277
116904,96297
116982,96304
117060,96366
117142,96375
117153,96383
117241,96408
117250,96472
117306,96424
117359,96462
117371,96477
117353,96477
117366,96481
117381,96449
117410,96503
117391,96487
117345,96484
117360,96453
117447,96494
117402,96497
117400,96497
117415,96516
117437,96532
117457,96501
117494,96547
117500,96521
117460,96513
117507,96504
117527,96570
117490,96520
117461,96521
117424,96500
117406,96473
117379,96521
117359,96463
117290,96466
117246,96409
117263,96421
117242,96455
117213,96398
117189,96409
117183,96393
117230,96434
117209,96408
117291,96412
117278,96465
117328,96436
117368,96473
117417,96523
117488,96516
117584,96555
117593,96604
117730,96617
117792,96666
117866,96705
117983,96764
118059,96768
118223,96830
118339,96905
118499,96954
118567,97005
118641,97014
118717,97052
118851,97115
118871,97136
118951,97130
118911,97155
118943,97103
118989,97146
118900,97130
118882,97103
118781,97063
118706,97060
118624,96987
118562,96961
118409,96924
118289,96839
118169,96807
118096,96752
117965,96741
117848,96640
117719,96611
117624,96610
117536,96504
117435,96484
117384,96457
117252,96411
117194,96410
117216,96381
117125,96381
117104,96353
117048,96327
117085,96355
117057,96339
117043,96333
117065,96355
117013,96354
117070,96334
117158,96413
117143,96397
117200,96404
117213,96417
117302,96459
117312,96465
117358,96503
117384,96480
117428,96511
117440,96532
117541,96578
117548,96621
117560,96590
117561,96594
117642,96618
117667,96683
117670,96650
117705,96668
117705,96656
117776,96693
117794,96729
117846,96722
117888,96727
117931,96775
117954,96819
118001,96834
118032,96843
118100,96833
118133,96889
118118,96891
118236,96898
118222,96922
118211,96901
118269,96937
118304,96940
118344,96988
118321,96962
118348,96980
118361,96988
118343,96980
118376,96960
118411,96981
118356,96978
118361,96993
118351,96964
118363,96964
118319,96955
118260,96944
118258,96917
118273,96950
118235,96913
118228,96906
118160,96921
118126,96859
118159,96899
118102,96833
118079,96841
118044,96851
117987,96824
118029,96819
118029,96825
118036,96839
117935,96799
117938,96800
117989,96805
118024,96820
117981,96812
117996,96839
117978,96813
118041,96802
118083,96845
118045,96879
118055,96826
118109,96851
118141,96868
118197,96919
118188,96951
118205,96902
118256,96942
118324,96967
118290,96982
118315,96961
118356,97001
118357,97013
118393,96970
118393,97005
118402,97034
118392,96982
118415,97016
118410,97028
118458,97043
118427,97048
118440,97043
118427,97041
118511,97034
118540,97085
118553,97062
118544,97110
118576,97094
118676,97107
118702,97136
118719,97172
118748,97166
118736,97175
118814,97167
118822,97187
118851,97207
118814,97197
118857,97230
118885,97224
118913,97253
118888,97253
118949,97237
118966,97292
119029,97255
119061,97301
119063,97317
119079,97290
119152,97314
119195,97373
119195,97385
119232,97384
119277,97391
119310,97389
119385,97457
119381,97442
119436,97469
119480,97475
119519,97500
119600,97535
119637,97527
119680,97552
119676,97572
119737,97601
119789,97606
119848,97631
119871,97667
119855,97647
119907,97703
119943,97692
119981,97710
119966,97678
119981,97706
119998,97726
120018,97715
119982,97720
119961,97671
119945,97659
119938,97684
119867,97645
119867,97625
119764,97613
119716,97553
119652,97541
119546,97490
119491,97445
119339,97421
119232,97374
119123,97297
119055,97270
118904,97195
118801,97163
118643,97115
118525,97022
118414,97035
118295,96959
118140,96891
118038,96839
117946,96786
117862,96790
117767,96726
117715,96709
117628,96686
117570,96659
117541,96634
117493,96603
117460,96575
117434,96599
117386,96603
117411,96567
117421,96610
117351,96582
117365,96561
117428,96598
117457,96623
117460,96631
117442,96638
117462,96641
117522,96619
117558,96703
117520,96679
117541,96649
117566,96657
117616,96686
117630,96709
117646,96733
117630,96689
117682,96741
117698,96759
117767,96753
117833,96810
117801,96774
117864,96811
117958,96865
118021,96879
118004,96875
118098,96915
118130,96923
118148,96967
118188,96977
118200,96962
118273,96987
118266,96992
118288,96988
118336,97033
118321,97044
118330,96997
118324,97034
118333,97054
118325,97015
118316,97001
118314,97043
118288,97008
118318,97009
118349,97023
118281,97039
118267,96977
118229,96998
118216,96979
118234,96966
118190,96988
118185,96960
118160,96969
118190,96966
118157,96985
118156,96998
118156,96952
118193,96940
118209,97003
118218,96968
118204,96980
118185,96998
118180,96957
118255,96991
118242,97007
118213,96979
118209,96971
118160,96976
118185,97010
118151,96966
118184,96948
118134,96945
118133,96954
118134,96929
118156,96980
118151,96952
118102,96954
118118,96943
118133,96964
118147,96951
118137,96946
118161,96956
118129,96953
118162,96969
118186,96966
118171,96979
118170,96972
118183,96963
118190,96990
118221,97002
118239,96987
118213,97013
118287,97022
118297,97033
118361,97033
118354,97044
118384,97037
118401,97072
118459,97058
118492,97132
118468,97084
118487,97090
118534,97113
118540,97158
118558,97137
118582,97136
118573,97130
118596,97146
118642,97185
118642,97177
118668,97160
118614,97166
118697,97184
118715,97191
118743,97218
118696,97204
118708,97204
118674,97201
118693,97189
118727,97193
118767,97231
118735,97209
118735,97196
118767,97251
118760,97229
118796,97231
118793,97237
118854,97256
118877,97273
118922,97253
118965,97298
118965,97279
119001,97313
119040,97343
119056,97343
119079,97343
119040,97338
119059,97352
119059,97343
119001,97318
118952,97312
118875,97239
118799,97220
118712,97182
118653,97148
118525,97083
118356,97026
118286,97001
118197,96937
118043,96886
117909,96837
117797,96768
117640,96690
117535,96683
117418,96603
117255,96545
117158,96517
117066,96473
116970,96447
116897,96392
116814,96355
116732,96294
116706,96289
116686,96321
116633,96310
116613,96248
116587,96251
116597,96282
116605,96277
116618,96284
116619,96294
116653,96327
116696,96321
116748,96373
116788,96373
116811,96372
116835,96389
116851,96409
116932,96442
116970,96446
116993,96465
117004,96455
117020,96497
117086,96512
117092,96520
117080,96504
117069,96515
117112,96522
117124,96543
117143,96543
117130,96555
117086,96501
117147,96548
117184,96569
117164,96554
117202,96592
117221,96566
117233,96588
117333,96639
117358,96639
117356,96646
117391,96645
117430,96686
117454,96686
117460,96675
117484,96682
117475,96656
117460,96683
117492,96705
117467,96689
117423,96666
117397,96640
117380,96641
117339,96646
117331,96638
117262,96589
117273,96568
117218,96612
117228,96583
117218,96563
117209,96562
117159,96555
117191,96522
117199,96538
117216,96540
117174,96526
117207,96553
117189,96576
117241,96587
117245,96567
117243,96585
117253,96557
117290,96619
117310,96610
117361,96618
117329,96646
117403,96612
117440,96675
117464,96708
117449,96665
117480,96693
117476,96665
117500,96731
117494,96712
117492,96705
117485,96695
117456,96667
117453,96675
117458,96667
117469,96695
117422,96626
117418,96657
117389,96665
117425,96686
117404,96685
117436,96660
117422,96641
117440,96719
117466,96685
117544,96716
117545,96713
117536,96745
117617,96756
117633,96774
117668,96758
117695,96793
117649,96797
117748,96803
117752,96809
117735,96820
117734,96816
117820,96788
117829,96879
117845,96842
117908,96908
117918,96848
117954,96899
118014,96945
118064,96958
118141,96965
118156,97005
118204,96995
118242,97042
118295,97081
118309,97064
118311,97053
118361,97034
118389,97098
118459,97134
118439,97131
118440,97117
118490,97135
118537,97151
118577,97190
118618,97173
118623,97177
118678,97208
118730,97225
118756,97263
118796,97281
118765,97257
118842,97298
118880,97304
118903,97328
118891,97307
118881,97289
118871,97278
118847,97271
118823,97273
118754,97241
118694,97188
118568,97165
118528,97141
118414,97105
118248,97013
118077,96928
117965,96857
117785,96795
117635,96744
117437,96651
117218,96563
117059,96477
116906,96427
116712,96333
116583,96271
116395,96199
116217,96116
116139,96089
116070,96061
115927,95994
115886,95967
115836,95946
115817,95961
115842,95976
115825,95974
115846,95966
115884,95970
115940,96014
116019,96054
116036,96060
116110,96090
116140,96131
116245,96158
116319,96188
116315,96203
116391,96219
116425,96257
116509,96294
116530,96297
116553,96320
116576,96325
116632,96330
116690,96377
116732,96381
116699,96396
116765,96404
116784,96404
116824,96430
116874,96475
116925,96463
116891,96470
117004,96500
117067,96549
117085,96560
117147,96601
117142,96601
117210,96619
117280,96640
117320,96673
117335,96637
117347,96666
117324,96672
117425,96710
117418,96685
117439,96688
117417,96671
117461,96728
117437,96722
117463,96706
117420,96704
117391,96675
117386,96680
117427,96670
117393,96711
117370,96655
117308,96656
117362,96646
117313,96674
117315,96639
117254,96657
117261,96601
117257,96642
117250,96627
117248,96631
117223,96632
117234,96596
117251,96629
117240,96641
117278,96633
117295,96627
117239,96613
117334,96643
117315,96695
117353,96674
117358,96648
117378,96675
117388,96690
117458,96691
117440,96729
117441,96709
117485,96720
117513,96744
117569,96764
117577,96771
117641,96782
117612,96817
117672,96817
117715,96826
117774,96858
117781,96864
117771,96883
117858,96904
117864,96926
117893,96922
117905,96929
117949,96913
117965,96945
118018,96971
118029,96995
118026,96963
118095,96963
118113,97051
118132,97055
118217,97102
118243,97062
118294,97082
118322,97084
118374,97108
118386,97111
118455,97163
118439,97168
118490,97215
118539,97213
118547,97244
118534,97219
118618,97218
118665,97266
118710,97273
118719,97271
118740,97284
118804,97323
118855,97307
118874,97358
118854,97369
118906,97339
118894,97373
118944,97379
118920,97411
118935,97390
118952,97352
118990,97388
119000,97407
119028,97403
119042,97404
119053,97414
119008,97457
119083,97436
119100,97428
119124,97496
119100,97450
119154,97474
119182,97455
119177,97478
119207,97469
119135,97470
119116,97394
119109,97442
119026,97421
118964,97378
118884,97297
118761,97312
118682,97243
118537,97183
118439,97137
118303,97063
118124,96976
118018,96953
117850,96889
117716,96801
117575,96755
117361,96684
117235,96639
117126,96551
116963,96521
116836,96443
116707,96354
116605,96356
116575,96329
116438,96261
116383,96209
116361,96233
116321,96237
116325,96208
116322,96202
116300,96199
116290,96196
116358,96227
116354,96249
116436,96268
116410,96291
116434,96269
116506,96316
116535,96335
116572,96348
116619,96324
116689,96416
116724,96418
116797,96426
116817,96447
116889,96488
116901,96466
116988,96553
117037,96569
117039,96594
117045,96582
117105,96542
117159,96590
117212,96639
117180,96641
117249,96675
117267,96650
117340,96683
117375,96709
117390,96752
117382,96697
117479,96762
117516,96770
117575,96789
117623,96803
117614,96843
117681,96808
117742,96879
117727,96896
117766,96871
117788,96864
117809,96928
117857,96906
117869,96937
117847,96905
117845,96893
117842,96927
117868,96926
117866,96916
117803,96918
117820,96887
117777,96893
117811,96884
117792,96868
117781,96878
117704,96876
117701,96882
117691,96866
117698,96893
117653,96839
117661,96796
117671,96861
117673,96830
117670,96814
117651,96825
117627,96840
117670,96815
117669,96869
117655,96799
117672,96839
117626,96835
117664,96843
117668,96843
117701,96860
117683,96819
117675,96833
117694,96821
117675,96865
117710,96887
117706,96845
117660,96844
117718,96885
117759,96870
117731,96865
117778,96861
117757,96883
117829,96892
117820,96954
117866,96927
117932,96959
117905,96977
117975,96968
117988,96987
118023,97039
118016,97011
118055,96979
118072,97023
118107,97049
118127,97053
118142,97036
118134,97050
118196,97053
118246,97112
118245,97106
118271,97107
118253,97094
118310,97106
118401,97147
118351,97153
118382,97176
118424,97162
118454,97178
118476,97177
118492,97205
118526,97209
118480,97197
118517,97193
118564,97244
118523,97194
118550,97243
118570,97218
118570,97255
118546,97234
118601,97261
118619,97222
118590,97212
118619,97277
118707,97284
118700,97316
118672,97263
118733,97268
118763,97323
118802,97323
118803,97324
118820,97305
118751,97329
118732,97297
118746,97282
118667,97273
118583,97228
118460,97159
118395,97123
118305,97102
118154,97046
118002,96945
117875,96862
117739,96868
117614,96778
117470,96712
117258,96635
117138,96595
117025,96506
116866,96465
116759,96420
116599,96350
116460,96281
116428,96265
116340,96229
116229,96186
116158,96160
116120,96123
116115,96135
116093,96148
116082,96119
116041,96129
116042,96105
116091,96149
116141,96166
116145,96164
116187,96175
116200,96190
116254,96224
116310,96261
116350,96273
116317,96261
116411,96288
116455,96312
116498,96320
116545,96368
116517,96344
116606,96375
116660,96423
116653,96379
116663,96423
116732,96458
116721,96439
116787,96466
116804,96517
116865,96542
116850,96511
116947,96540
117027,96600
117052,96580
117081,96587
117147,96624
117161,96640
117235,96696
117303,96705
117310,96721
117364,96709
117383,96755
117417,96762
117465,96753
117437,96762
117458,96768
117466,96777
117468,96763
117532,96792
117504,96789
117477,96776
117481,96750
117471,96803
117509,96762
117483,96786
117423,96767
117431,96738
117420,96756
117432,96776
117403,96739
117342,96736
117341,96727
117359,96758
117361,96718
117272,96686
117284,96692
117285,96672
117303,96668
117251,96710
117265,96681
117238,96680
117230,96656
117278,96688
117260,96708
117230,96679
117222,96653
117277,96712
117250,96683
117300,96711
117273,96697
117287,96671
117315,96732
117315,96701
117368,96738
117363,96739
117343,96743
117359,96720
117400,96771
117395,96759
117433,96754
117447,96739
117482,96801
117495,96806
117512,96799
117553,96783
117539,96802
117585,96839
117586,96868
117652,96855
117635,96848
117671,96880
117676,96878
117751,96877
117759,96925
117817,96906
117801,96900
117870,96936
117910,96987
117923,96951
117961,96975
117970,96979
118006,97024
118054,97015
118057,97058
118071,97040
118118,97024
118160,97099
118204,97123
118249,97101
118289,97146
118292,97115
118346,97163
118343,97183
118413,97191
118392,97168
118428,97198
118453,97222
118499,97214
118507,97231
118520,97221
118513,97222
118481,97212
118548,97216
118487,97209
118432,97174
118395,97131
118345,97157
118267,97087
118167,97085
118081,97022
117978,96963
117849,96910
117772,96892
117621,96805
117466,96753
117303,96670
117214,96628
117056,96574
116914,96525
116804,96447
116628,96421
116534,96348
116462,96300
116351,96297
116266,96236
116150,96200
116118,96157
116138,96176
116080,96153
116027,96133
115947,96116
115982,96131
116029,96150
116035,96148
115978,96142
115993,96128
116087,96151
116077,96202
116098,96224
116182,96208
116171,96220
116266,96252
116303,96304
116334,96310
116385,96321
116396,96315
116536,96373
116526,96401
116564,96416
116631,96427
116623,96431
116725,96449
116784,96503
116817,96499
116789,96504
116831,96532
116921,96550
116975,96609
117012,96618
117019,96625
117057,96638
117147,96672
117152,96659
117182,96676
117203,96678
117221,96681
117254,96719
117261,96743
117282,96747
117298,96756
117303,96721
117349,96744
117376,96807
117372,96781
117360,96740
117405,96751
117413,96803
117444,96790
117411,96790
117387,96757
117408,96760
117427,96809
117381,96763
117362,96772
117318,96717
117310,96707
117267,96726
117300,96732
117278,96707
117183,96680
117233,96689
117231,96721
117189,96653
117207,96685
117179,96686
117182,96684
117210,96660
117194,96730
117171,96677
117175,96680
117200,96697
117172,96720
117246,96694
117215,96688
117192,96706
117176,96683
117196,96693
117211,96721
117203,96714
117202,96691
117238,96710
117271,96737
117299,96751
117269,96744
117327,96710
117355,96753
117418,96794
117452,96792
117500,96845
117479,96804
117530,96823
117606,96852
117660,96906
117603,96906
117639,96903
117688,96926
117693,96924
117723,96925
117792,96931
117720,96957
117767,96956
117807,96986
117832,96990
117826,96983
117842,96958
117866,96964
117906,96975
117929,97029
117938,97026
117902,97004
117994,97025
118020,97073
118025,97085
118047,97069
118077,97071
118149,97114
118116,97104
118160,97145
118159,97089
118194,97145
118195,97136
118243,97133
118278,97163
118291,97165
118285,97164
118312,97189
118358,97183
118361,97188
118393,97224
118342,97178
118338,97193
118363,97202
118316,97146
118250,97125
118093,97113
118063,97047
117954,97010
117829,96984
117672,96848
117532,96823
117371,96740
117204,96683
117027,96614
116832,96494
116672,96432
116491,96363
116346,96310
116193,96220
116036,96179
115908,96070
115819,96073
115730,96020
115593,95989
115554,95954
115492,95936
115513,95915
115444,95950
115445,95942
115481,95889
115470,95939
115520,95947
115504,95993
115561,95999
115621,95999
115658,96015
115755,96070
115783,96108
115841,96129
115873,96132
115948,96153
116016,96205
116056,96219
116118,96221
116119,96258
116143,96253
116245,96286
116264,96353
116307,96331
116357,96368
116332,96344
116397,96360
116406,96380
116467,96370
116476,96414
116531,96415
116564,96468
116631,96476
116662,96506
116640,96464
116727,96517
116749,96559
116800,96538
116849,96573
116851,96619
116878,96608
116916,96621
116925,96608
116937,96613
116992,96663
116994,96628
116986,96661
117031,96658
117018,96641
116988,96658
117023,96653
117041,96674
116997,96652
116984,96649
116963,96633
116951,96596
116967,96648
116906,96582
116901,96578
116848,96586
116824,96530
116791,96558
116790,96562
116751,96556
116716,96516
116693,96484
116723,96524
116694,96531
116673,96489
116620,96479
116645,96480
116676,96533
116674,96523
116670,96497
116695,96503
116706,96493
116682,96496
116706,96511
116693,96540
116691,96519
116685,96491
116718,96518
116732,96528
116722,96524
116716,96539
116707,96521
116770,96538
116814,96574
116798,96536
116838,96587
116878,96629
116954,96647
116986,96658
117039,96655
117089,96696
117127,96688
117236,96725
117296,96802
117310,96785
117345,96808
117380,96814
117430,96882
117479,96850
117510,96864
117492,96902
117531,96884
117593,96942
117625,96913
117631,96950
117602,96919
117667,96929
117695,96962
117695,96982
117743,96976
117713,96984
117748,96991
117805,97004
117795,97043
117769,97017
117779,97006
117798,97012
117792,97036
117800,97020
117800,97035
117790,97001
117801,97036
117800,97044
117794,96994
117818,96981
117768,97025
117782,97021
117796,97001
117820,96985
117826,97029
117796,96976
117834,97024
117831,97029
117871,97010
117839,97044
117832,96991
117826,97047
117827,97018
117774,96985
117739,96992
117633,96897
117586,96875
117467,96835
117392,96797
117184,96738
117008,96666
116893,96603
116722,96530
116489,96430
116356,96318
116085,96254
115929,96173
115759,96125
115568,96022
115410,95917
115235,95887
115104,95796
115042,95772
114930,95740
114796,95687
114759,95655
114706,95665
114677,95651
114682,95614
114664,95639
114632,95599
114644,95624
114680,95619
114683,95666
114729,95664
114701,95660
114785,95693
114809,95697
114844,95681
114886,95748
114897,95724
115012,95804
115024,95811
115145,95861
115181,95913
115196,95890
115281,95930
115385,95961
115430,96007
115434,96007
115503,96024
115529,96037
115608,96105
115592,96100
115608,96103
115629,96056
115687,96122
115687,96105
115690,96101
115670,96132
115718,96105
115729,96185
115764,96166
115819,96189
115829,96160
115856,96202
115921,96244
115946,96239
115988,96236
116022,96285
116036,96263
116104,96319
116112,96332
116142,96306
116161,96335
116151,96294
116206,96350
116195,96366
116129,96364
116119,96298
116125,96307
116065,96311
116049,96302
116000,96278
115966,96264
115963,96229
115948,96259
115911,96198
115891,96214
115839,96211
115801,96168
115842,96203
115849,96219
115788,96193
115830,96168
115819,96187
115809,96198
115837,96192
115899,96218
115883,96195
115894,96228
115940,96264
115939,96272
115958,96243
116023,96285
116002,96263
116075,96319
116078,96306
116136,96315
116094,96350
116124,96326
116191,96337
116227,96348
116201,96336
116263,96393
116230,96386
116286,96382
116305,96436
116283,96414
116305,96422
116308,96455
116358,96430
116371,96455
116353,96425
116385,96432
116401,96471
116388,96440
116461,96484
116467,96495
116469,96511
116452,96502
116542,96517
116598,96537
116658,96579
116666,96545
116723,96581
116813,96660
116840,96651
116916,96695
116919,96681
117034,96710
117052,96750
117081,96763
117156,96762
117144,96814
117147,96794
117212,96806
117176,96809
117184,96805
117174,96791
117193,96823
117153,96772
117167,96782
117157,96807
117078,96779
117107,96755
117088,96779
117052,96753
117065,96742
117036,96742
117036,96741
117016,96735
117016,96742
117038,96723
117007,96730
117019,96710
117070,96769
117053,96762
117056,96751
117058,96734
117088,96747
117134,96818
117168,96789
117183,96774
117221,96777
117237,96837
117254,96810
117255,96832
117199,96824
117153,96765
117131,96739
117055,96766
116945,96682
116868,96638
116703,96576
116588,96512
116433,96482
116307,96389
116158,96353
115947,96252
115841,96166
115682,96154
115530,96074
115402,95985
115250,95914
115147,95912
115073,95856
114966,95838
114818,95750
114770,95703
114712,95693
114652,95712
114615,95669
114600,95646
114561,95630
114577,95679
114613,95655
114640,95701
114650,95698
114661,95669
114720,95742
114764,95767
114824,95804
114839,95783
114913,95815
114945,95879
115017,95831
115094,95893
115132,95941
115157,95933
115227,95954
115327,95985
115358,96056
115392,96026
115467,96062
115555,96114
115648,96157
115692,96196
115727,96150
115821,96216
115902,96239
115901,96276
115989,96296
116015,96304
116062,96338
116093,96351
116157,96383
116182,96388
116219,96408
116194,96428
116234,96385
116324,96463
116333,96439
116317,96461
116360,96465
116372,96507
116445,96513
116470,96546
116496,96533
116506,96535
116566,96570
116628,96572
116677,96618
116671,96575
116685,96621
116750,96622
116766,96662
116740,96645
