11111,11111
0,0
82436,82471
138759,111228
145933,111205
145913,111206
145964,111208
145935,111256
145919,111191
145906,111143
145940,111173
145917,111149
145957,111194
145932,111211
145912,111132
145957,111182
145998,111180
145991,111205
145950,111192
145988,111161
145991,111197
145994,111210
146043,111185
146023,111210
145966,111163
146042,111185
146046,111234
146069,111190
146030,111197
146062,111142
146118,111206
146070,111245
146097,111199
146099,111199
146085,111196
146135,111204
146142,111232
146164,111224
146124,111223
146156,111206
146174,111246
146223,111218
146197,111240
146206,111202
146197,111205
146242,111252
146268,111231
146286,111255
146225,111251
146217,111196
146267,111244
146277,111272
146251,111230
146263,111252
146190,111228
146208,111224
146234,111239
146202,111233
146203,111246
146170,111180
146192,111222
146206,111229
146157,111215
146164,111172
146142,111209
146155,111192
146187,111225
146152,111200
146157,111162
146125,111154
146172,111175
146114,111214
146149,111167
146172,111177
146138,111160
146138,111194
146172,111176
146150,111194
146137,111173
146165,111171
146161,111206
146156,111214
146150,111152
146196,111167
146143,111204
146180,111174
146202,111171
146206,111148
146148,111181
146174,111156
146224,111195
146187,111195
146208,111197
146244,111171
146214,111184
146263,111193
146271,111229
146224,111189
146259,111170
146269,111209
146268,111239
146309,111193
146286,111231
146274,111170
146299,111206
146321,111219
146337,111259
146296,111210
146371,111201
146348,111222
146347,111197
146375,111242
146356,111210
146376,111205
146410,111236
146411,111250
146427,111205
146452,111248
146387,111190
146424,111226
146458,111272
146464,111223
146448,111245
146483,111208
146492,111234
146515,111246
146637,111277
146222,111103
146229,111082
146025,111013
146053,111017
146016,111021
146091,111070
146276,111093
146259,111072
146288,111082
146298,111097
146303,111066
146304,111100
146344,111127
146321,111082
146282,111079
146290,111102
146316,111083
146341,111134
146288,111108
146274,111093
146302,111094
146261,111097
146289,111066
146303,111079
146256,111084
146295,111095
146263,111059
146315,111082
146261,111050
146247,111072
146269,111072
146269,111111
146272,111054
146307,111035
146242,111079
146247,111069
146304,111101
146300,111101
146266,111066
146291,111056
146296,111071
146303,111097
146310,111090
146320,111054
146289,111075
146284,111088
146291,111072
146330,111061
146341,111094
146291,111085
146333,111062
146355,111075
146377,111074
146326,111098
146354,111062
146383,111087
146425,111065
146461,111088
146425,111134
146424,111051
146457,111107
146487,111110
146526,111152
146458,111162
146504,111078
146513,111140
146525,111138
146525,111136
146555,111106
146510,111168
146521,111150
146565,111153
146559,111146
146589,111119
146534,111173
146559,111163
146616,111196
146619,111159
146624,111181
146631,111154
146630,111183
146640,111202
146627,111157
146654,111153
146675,111171
146689,111190
146675,111218
146664,111197
146690,111147
146670,111188
146680,111197
146707,111208
146688,111208
146695,111154
146645,111197
146710,111170
146709,111218
146687,111195
146709,111151
146644,111195
146687,111201
146718,111194
146726,111192
146682,111205
146689,111149
146748,111187
146724,111179
146739,111202
146687,111182
146720,111199
146721,111191
146707,111172
146745,111173
146720,111190
146670,111166
146703,111172
146648,111156
146657,111141
146540,111141
146521,111117
146472,111099
146436,111082
146393,111044
146032,110924
145958,110934
146020,110902
146012,110912
146027,110919
146016,110882
146015,110925
146028,110887
146034,110918
146064,110919
145999,110913
146062,110880
146056,110956
146039,110915
146069,110947
146083,110943
146063,110904
146057,110941
146130,110970
146092,110927
146087,110957
146022,110922
146118,110942
146125,110980
146101,110929
146095,110932
146109,110940
146119,110940
146115,110946
146155,110933
146117,110948
146101,110905
146149,110975
146130,110938
146159,110948
146182,110936
146136,110951
146168,110938
146175,110952
146186,110973
146154,110933
146154,110928
146161,110920
146184,110955
146194,110951
146146,110933
146136,110925
146156,110928
146199,110924
146166,110941
146136,110925
146095,110904
146158,110900
146187,110961
146128,110923
146148,110913
146146,110903
146163,110920
146150,110916
146168,110920
146101,110910
146117,110903
146161,110912
146130,110935
146108,110888
146146,110889
146095,110917
146141,110887
146172,110916
146111,110914
146093,110873
146163,110916
146164,110941
146149,110914
146159,110920
146144,110893
146155,110934
146158,110927
146186,110909
146172,110918
146196,110907
146154,110920
146202,110927
146225,110892
146230,110912
146186,110897
146172,110947
146190,110924
146256,110935
146245,110941
146225,110931
146230,110919
146226,110941
146255,110942
146235,110915
146270,110934
146237,110943
146289,110949
146247,110948
146247,110973
146246,110892
146300,110952
146293,110960
146296,110958
146276,110928
146279,110951
146312,110896
146296,110934
146319,110954
146335,110937
146321,110939
146329,110939
146367,110962
146307,110933
146354,110949
146351,110932
146333,110959
146397,110957
146363,110951
146378,110960
146379,110966
146402,110967
146401,110984
146365,110984
146395,110935
146407,110957
146386,110952
146438,110955
146407,110971
146432,110971
146395,110950
146461,110953
146437,110999
146442,110974
146411,110960
146406,110931
146448,110967
146435,111014
146441,110927
146406,110957
146436,110941
146436,110957
146451,110972
146457,110964
146442,110986
146437,110994
146475,110971
146453,110960
146483,110979
146409,110981
146423,110917
146445,110963
146426,110947
146431,110961
146413,110958
146356,110887
146380,110930
146354,110942
146312,110902
146281,110890
146211,110845
146225,110881
146152,110899
146129,110823
146119,110830
146054,110809
146073,110814
146035,110793
146014,110799
145979,110780
145968,110784
145967,110778
145941,110753
145957,110763
145911,110737
145858,110729
145911,110751
145903,110746
145885,110732
145874,110727
145871,110737
145885,110761
145910,110751
145868,110739
145856,110742
145892,110735
145880,110725
145904,110742
145884,110732
145883,110725
145870,110710
145924,110721
145920,110763
145905,110767
145903,110739
145932,110737
145947,110784
145941,110720
145953,110757
145912,110748
145946,110782
145963,110733
146032,110762
145974,110748
145978,110761
145987,110762
146010,110784
146016,110746
145981,110784
146008,110752
146026,110775
146069,110797
146022,110771
146078,110787
146030,110767
146063,110795
146082,110789
146094,110817
146109,110780
146093,110764
146108,110806
146097,110782
146102,110769
146105,110775
146082,110782
146074,110769
146121,110789
146078,110803
146074,110758
146048,110744
146102,110769
146105,110791
146082,110759
146052,110763
146055,110759
146090,110749
146088,110765
146070,110777
146047,110762
145999,110736
146032,110725
146064,110750
146078,110746
146060,110783
146005,110730
146063,110768
146054,110750
146049,110745
146009,110742
146004,110723
146035,110741
146019,110725
146042,110748
146031,110742
145976,110713
146037,110732
146067,110713
146016,110730
146061,110731
145998,110709
146050,110735
146030,110732
146023,110740
146042,110738
146036,110718
146034,110739
146079,110748
146072,110723
146064,110730
146034,110736
146096,110741
146088,110764
146060,110701
146086,110717
146098,110719
146096,110761
146109,110780
146147,110733
146125,110738
146110,110745
146173,110767
146134,110771
146152,110787
146115,110741
146174,110741
146184,110786
146176,110772
146189,110777
146157,110764
146124,110766
146174,110741
146210,110758
146168,110798
146139,110749
146177,110749
146179,110770
146203,110769
146246,110798
146183,110776
146217,110771
146239,110798
146218,110784
146277,110767
146243,110766
146233,110794
146255,110768
146297,110777
146240,110769
146248,110769
146275,110795
146278,110807
146297,110767
146273,110775
146244,110735
146242,110783
146254,110778
146290,110750
146292,110798
146282,110761
146292,110767
146287,110807
146298,110775
146291,110802
146258,110775
146304,110774
146298,110809
146275,110777
146289,110782
146236,110742
146212,110716
146194,110745
146216,110742
146139,110718
146114,110707
146111,110694
146085,110683
146043,110645
145990,110686
145909,110640
145962,110654
145919,110675
145890,110613
145858,110618
145818,110598
145798,110584
145780,110579
145829,110598
145755,110610
145736,110565
145792,110593
145765,110600
145737,110562
145722,110573
145713,110524
145702,110590
145709,110555
145757,110553
145712,110565
145701,110533
145745,110555
145746,110572
145710,110583
145705,110562
145700,110528
145746,110587
145760,110585
145773,110600
145769,110554
145732,110586
145762,110551
145810,110578
145775,110599
145791,110561
145776,110560
145774,110593
145798,110597
145802,110559
145785,110564
145824,110585
145788,110555
145831,110575
145826,110559
145801,110596
145806,110577
145831,110603
145855,110578
145899,110607
145854,110587
145846,110564
145877,110636
145872,110599
145895,110611
145877,110588
145825,110607
145875,110602
145878,110596
145919,110595
145876,110590
145840,110578
145904,110578
145920,110583
145897,110605
145839,110585
145853,110584
145859,110606
145837,110578
145869,110549
145850,110569
145797,110560
145827,110540
145858,110554
145814,110583
145792,110526
145787,110537
145841,110585
145835,110554
145811,110586
145771,110552
145781,110509
145844,110569
145783,110563
145791,110551
145756,110541
145790,110534
145820,110564
145818,110546
145769,110537
145804,110519
145786,110546
145818,110535
145840,110549
145810,110554
145809,110536
145779,110529
145831,110562
145805,110517
145831,110537
145830,110541
145815,110504
145825,110590
145835,110546
145834,110571
145813,110542
145841,110566
145892,110576
145881,110567
145895,110571
145825,110544
145874,110519
145923,110561
145893,110586
145870,110559
145892,110544
145913,110578
145917,110559
145943,110580
145888,110561
145908,110549
145924,110576
145957,110555
145943,110562
145968,110586
145914,110545
145938,110585
145939,110576
145952,110566
145964,110596
145971,110589
145993,110572
145967,110611
145956,110557
145985,110577
145940,110593
145984,110563
146012,110579
145968,110598
145990,110554
145949,110576
145947,110571
145982,110559
146003,110588
145973,110553
145950,110545
145993,110546
145966,110569
145977,110568
145969,110576
145940,110527
146000,110587
145976,110588
145996,110555
145988,110554
145950,110540
145948,110561
145922,110535
145923,110532
145898,110511
145857,110502
145807,110533
145788,110480
145801,110473
145727,110469
145689,110426
145692,110449
145694,110442
145651,110413
145598,110421
145561,110386
145580,110407
145548,110412
145497,110371
145467,110340
145469,110335
145438,110378
145470,110343
145452,110360
145404,110334
145396,110299
145396,110371
145374,110347
145417,110325
145374,110309
145335,110333
145371,110312
145441,110339
145368,110352
145357,110305
145347,110311
145413,110320
145426,110342
145369,110290
145398,110307
145400,110315
145404,110318
145406,110330
145431,110327
145391,110313
145361,110334
145422,110346
145416,110322
145442,110326
145410,110315
145423,110329
145422,110305
145426,110365
145439,110298
145398,110312
145446,110320
145460,110337
145502,110381
145484,110349
145466,110343
145474,110344
145463,110344
145472,110320
145501,110344
145454,110309
145489,110357
145481,110346
145515,110343
145461,110334
145431,110314
145462,110330
145505,110343
145482,110330
145487,110336
145422,110317
145440,110307
145446,110332
145431,110325
145433,110291
145447,110308
145414,110319
145439,110302
145419,110293
145432,110292
145365,110264
145429,110286
145384,110311
145381,110271
145375,110292
145335,110268
145356,110255
145381,110278
145351,110249
145345,110271
145325,110220
145368,110279
145368,110287
145351,110278
145345,110232
145313,110243
145309,110227
145319,110265
145387,110254
145299,110264
145313,110221
145373,110266
145337,110224
145353,110243
145315,110223
145361,110226
145313,110261
145333,110233
145347,110230
145322,110243
145349,110226
145332,110279
145341,110277
145344,110248
145394,110262
145335,110237
145389,110235
145402,110255
145399,110273
145377,110211
145383,110240
145395,110237
145414,110268
145373,110240
145427,110240
145401,110266
145443,110241
145470,110267
145445,110260
145402,110238
145406,110214
145487,110293
145494,110285
145446,110254
145465,110261
145472,110272
145487,110232
145481,110301
145460,110277
145436,110228
145464,110264
145500,110274
145500,110302
145488,110243
145502,110251
145468,110253
145502,110278
145485,110249
145511,110248
145485,110267
145510,110237
145499,110257
145546,110270
145516,110292
145514,110235
145533,110280
145521,110256
145539,110282
145542,110264
145481,110253
145472,110226
145492,110253
145472,110213
145400,110227
145398,110208
145323,110214
145370,110184
145344,110194
145301,110171
145224,110171
145178,110147
145208,110121
145174,110143
145113,110094
145044,110098
145050,110072
145079,110092
145024,110091
144962,110053
144942,110023
144950,110018
144924,110034
144931,110025
144873,110053
144830,109985
144885,109993
144831,110024
144863,110026
144840,109988
144789,109983
144829,110018
144829,110007
144818,110018
144840,109998
144795,109964
144798,109974
144843,110016
144851,109984
144820,109985
144815,109973
144823,109978
144840,109999
144854,109983
144831,109986
144829,109983
144860,109973
144859,109987
144876,110024
144854,109968
144827,109972
144881,110009
144856,109988
144868,109968
144869,109984
144813,109969
144861,109984
144854,110001
144853,109950
144903,110007
144834,109972
144855,109961
144874,109997
144890,109969
144862,109994
144822,109985
144871,109969
144859,109952
144878,109964
144830,109973
144830,109966
144859,109937
144896,109968
144892,110003
144845,109931
144849,109928
144868,109964
144861,109952
144872,109947
144844,109940
144813,109964
144808,109933
144822,109946
144828,109936
144783,109939
144766,109902
144824,109938
144819,109924
144770,109933
144737,109894
144750,109891
144790,109937
144788,109915
144746,109907
144765,109897
144762,109911
144749,109892
144746,109911
144747,109924
144727,109865
144773,109907
144745,109928
144744,109891
144750,109896
144705,109875
144746,109885
144740,109907
144779,109900
144761,109910
144772,109865
144767,109877
144800,109908
144754,109904
144778,109872
144750,109924
144757,109877
144783,109899
144783,109902
144804,109878
144799,109907
144765,109893
144813,109888
144807,109902
144842,109900
144785,109879
144797,109905
144835,109884
144821,109926
144789,109903
144802,109873
144849,109904
144873,109929
144854,109936
144837,109889
144843,109874
144833,109909
144891,109917
144856,109934
144829,109898
144850,109898
144857,109913
144813,109928
144841,109898
144886,109902
144843,109920
144860,109907
144868,109936
144885,109920
144887,109910
144859,109894
144879,109908
144902,109909
144907,109914
144910,109932
144858,109918
144895,109884
144930,109928
144921,109901
144903,109911
144897,109885
144900,109926
144919,109909
144948,109938
144881,109903
144839,109897
144898,109914
144866,109912
144850,109863
144854,109881
144796,109872
144813,109848
144787,109837
144766,109861
144677,109811
144644,109778
144638,109825
144635,109791
144576,109771
144548,109749
144446,109767
144461,109704
144482,109747
144417,109727
144388,109673
144334,109679
144355,109704
144302,109662
144297,109689
144238,109632
144238,109640
144268,109646
144240,109663
144195,109627
144180,109631
144158,109610
144177,109597
144207,109608
144179,109629
144157,109555
144147,109608
144159,109590
144144,109627
144160,109619
144132,109553
144144,109597
144120,109598
144182,109588
144145,109593
144115,109576
144076,109560
144110,109555
144127,109561
144125,109571
144068,109551
144071,109524
144163,109595
144075,109571
144146,109568
144084,109552
144113,109541
144083,109553
144151,109571
144113,109570
144109,109549
144084,109537
144108,109569
144120,109523
144091,109567
144061,109540
144101,109568
144147,109560
144134,109575
144110,109589
144108,109509
144128,109556
144122,109554
144135,109542
144091,109539
144101,109551
144084,109549
144099,109523
144112,109531
144046,109537
144070,109495
144076,109522
144062,109518
144094,109539
144083,109504
144040,109493
144038,109535
144033,109478
144074,109520
144008,109509
144009,109484
144021,109478
144012,109499
144025,109484
143941,109462
143978,109468
143990,109440
143979,109496
143999,109473
143932,109484
143911,109418
143972,109464
143942,109471
143960,109480
143940,109426
143953,109462
143931,109477
143978,109477
143943,109478
143925,109482
143904,109423
143950,109436
143956,109488
143952,109462
143927,109444
143961,109450
143993,109477
144003,109451
143931,109442
144019,109461
143970,109441
143974,109463
143998,109479
143992,109494
143974,109456
143956,109444
144006,109458
144021,109462
144024,109474
143973,109475
143986,109439
144026,109476
144043,109455
144027,109472
143968,109472
143984,109439
144051,109466
144045,109476
144023,109468
143995,109461
144026,109447
144045,109477
144030,109446
144041,109459
144057,109486
144030,109444
144050,109472
144086,109486
144059,109472
144055,109438
144034,109479
144062,109495
144078,109462
144077,109460
144023,109477
144042,109442
144081,109481
144078,109462
144088,109508
144032,109437
144046,109455
144120,109468
144079,109487
144117,109485
144073,109473
144037,109468
144118,109517
144109,109500
144093,109482
144100,109459
144079,109464
144122,109493
144066,109469
144029,109455
144026,109465
144012,109420
143991,109467
143959,109417
143956,109395
143909,109383
143904,109406
143864,109399
143834,109352
143815,109397
143730,109362
143737,109368
143731,109369
143716,109336
143639,109351
143596,109263
143587,109274
143603,109284
143542,109275
143460,109262
143483,109236
143439,109271
143453,109217
143414,109247
143370,109195
143413,109225
143372,109231
143397,109228
143351,109199
143322,109168
143347,109198
143326,109202
143320,109162
143357,109179
143318,109193
143290,109150
143309,109170
143317,109200
143309,109175
143274,109158
143291,109174
143285,109156
143296,109201
143332,109153
143295,109181
143264,109126
143290,109158
143311,109188
143299,109166
143272,109136
143287,109129
143315,109185
143318,109153
143281,109144
143327,109142
143254,109149
143284,109143
143335,109159
143323,109176
143316,109147
143299,109156
143291,109151
143362,109147
143329,109188
143289,109132
143303,109189
143340,109157
143355,109163
143320,109145
143339,109153
143311,109184
143311,109156
143358,109184
143325,109163
143271,109175
143273,109135
143354,109165
143307,109166
143279,109148
143286,109135
143280,109187
143249,109147
143289,109157
143237,109130
143262,109116
143267,109136
143257,109178
143254,109128
143251,109141
143215,109131
143245,109121
143266,109148
143250,109163
143259,109127
143260,109123
143231,109147
143273,109149
143276,109156
143253,109128
143226,109137
143230,109134
143278,109144
143258,109141
143271,109152
143244,109143
143208,109127
143286,109146
143270,109157
143272,109161
143257,109148
143238,109148
143329,109182
143315,109167
143270,109183
143265,109149
143307,109155
143304,109145
143312,109168
143320,109144
143273,109138
143293,109164
143335,109145
143331,109199
143312,109162
143299,109129
143307,109164
143394,109169
143387,109178
143376,109193
143332,109147
143346,109183
143400,109167
143382,109199
143358,109174
143385,109158
143407,109179
143426,109181
143406,109215
143378,109209
143401,109161
143431,109196
143417,109198
143453,109195
143449,109195
143396,109190
143485,109203
143461,109252
143473,109201
143475,109235
143466,109186
143506,109253
143493,109265
143524,109255
143487,109235
143462,109233
143484,109218
143521,109262
143504,109223
143495,109255
143495,109224
143494,109231
143493,109275
143492,109268
143524,109262
143480,109241
143545,109254
143549,109263
143554,109261
143488,109266
143504,109231
143541,109257
143566,109289
143555,109251
143558,109241
143500,109250
143555,109252
143574,109310
143530,109257
143538,109277
143483,109262
143513,109238
143518,109264
143473,109243
143452,109213
143395,109178
143433,109208
143398,109206
143385,109209
143295,109211
143278,109141
143287,109198
143231,109163
143227,109153
143161,109145
143091,109102
143114,109111
143113,109108
143071,109093
143065,109076
142979,109085
143037,109061
143015,109068
143004,109074
142969,109036
142956,109072
142949,109062
142971,109036
142928,109062
142882,109054
142855,109030
142897,109027
142940,109067
142876,109015
142895,109007
142876,109027
142881,109024
142954,109052
142888,109052
142846,108965
142845,109026
142938,109053
142889,109042
142882,109024
142901,109011
142871,109038
142861,109030
142907,109023
142888,109022
142838,109032
142827,108992
142921,109035
142872,109053
142867,109018
142852,108975
142881,108992
142912,109052
142881,109018
142910,109039
142862,109007
142895,109007
142913,109033
142923,109032
142844,109026
142918,109015
142922,109024
142918,109062
142951,109027
142915,109031
142854,109017
142918,109033
142905,109038
142881,109039
142897,109010
142881,109025
142877,109027
142917,109013
142868,109038
142903,109017
142874,108993
142880,109037
142867,109026
142876,109010
142883,108998
142826,108996
142859,109047
142911,109029
142884,109017
142860,109037
142803,108991
142853,109000
142908,108991
142863,109052
142840,109011
142881,109018
142885,109036
142867,109049
142874,109021
142909,109017
142872,109053
142887,109050
142915,109054
142924,109036
142943,109033
142894,109063
142939,109051
142950,109065
142964,109041
142932,109067
142956,109072
142947,109081
142998,109045
142994,109101
142940,109057
142981,109081
142988,109070
143014,109124
142989,109069
143019,109100
142976,109054
143058,109113
143024,109080
143055,109096
143030,109094
143029,109061
143084,109095
143089,109130
143060,109119
143041,109106
143066,109124
143087,109126
143094,109125
143094,109133
143075,109084
143117,109147
143109,109130
143105,109132
143111,109150
143095,109109
143140,109138
143166,109162
143129,109116
143129,109136
143133,109122
143168,109171
143164,109147
143194,109134
143200,109161
143142,109108
143169,109173
143172,109182
143176,109151
143191,109137
143164,109170
143197,109164
143193,109182
143211,109170
143209,109144
143206,109177
143174,109142
143238,109204
143205,109160
143265,109200
143236,109172
143216,109191
143267,109209
143261,109187
143275,109182
143208,109191
143235,109177
143314,109211
143267,109245
143275,109210
143258,109173
143304,109227
143290,109250
143292,109190
143315,109219
143281,109191
143283,109226
143295,109216
143363,109242
143314,109252
143300,109221
143328,109205
143314,109213
143311,109236
143278,109224
143281,109195
143251,109209
143318,109203
143229,109235
143207,109210
143144,109184
143154,109160
143177,109169
143151,109149
143130,109144
143089,109116
143050,109163
143005,109119
143034,109145
142985,109114
142942,109077
142948,109113
142922,109100
142927,109081
142891,109085
142848,109097
142898,109091
142856,109107
142877,109083
142817,109080
142824,109064
142846,109074
142837,109071
142821,109054
142832,109029
142816,109047
142836,109064
142815,109071
142835,109042
142835,109049
142778,109042
142837,109060
142815,109082
142862,109054
142822,109046
142794,109053
142823,109039
142866,109061
142831,109061
142809,109053
142812,109057
142833,109072
142889,109077
142833,109072
142846,109051
142845,109060
142847,109079
142882,109090
142835,109060
142872,109053
142833,109080
142874,109090
142890,109080
142902,109068
142909,109100
142868,109091
142900,109117
142908,109091
142919,109132
142864,109092
142937,109116
142947,109135
142913,109152
142951,109118
142892,109114
142905,109061
142968,109120
142931,109132
142913,109078
142909,109083
142885,109085
142906,109111
142928,109084
142920,109111
142876,109054
142910,109114
142922,109123
142913,109116
142909,109083
142928,109097
142935,109106
142932,109113
142950,109132
142920,109084
142940,109124
142919,109086
142963,109122
142962,109133
142976,109100
142947,109110
142920,109088
142988,109116
143005,109140
143006,109141
142973,109138
142969,109127
143012,109127
143023,109171
143001,109141
142958,109151
142997,109113
143061,109141
143039,109207
143016,109142
143021,109157
143017,109185
143021,109165
143096,109170
143059,109196
143044,109146
143116,109171
143092,109187
143113,109221
143083,109190
143090,109162
143114,109206
143148,109221
143146,109206
143130,109208
143146,109168
143179,109228
143168,109243
143178,109232
143160,109236
143163,109213
143189,109222
143187,109226
143233,109242
143213,109224
143174,109201
143237,109234
143238,109258
143248,109270
143266,109231
143253,109255
143282,109271
143260,109264
143305,109264
143296,109283
143277,109254
143322,109284
143304,109289
143337,109306
143331,109280
143294,109275
143348,109327
143334,109296
143370,109314
143329,109319
143355,109325
143341,109322
143361,109304
143359,109338
143357,109334
143346,109314
143366,109299
143393,109318
143374,109327
143355,109292
143383,109315
143379,109351
143365,109314
143396,109348
143343,109308
143317,109304
143311,109299
143344,109292
143259,109316
143238,109285
143220,109278
143220,109278
143189,109250
143178,109253
143091,109212
143113,109218
143113,109240
143070,109237
143066,109200
142999,109206
142967,109168
142997,109204
143001,109186
142985,109199
142917,109184
142945,109126
142967,109193
142965,109165
142932,109176
142905,109124
142900,109185
142947,109189
142914,109169
142926,109164
142901,109131
142915,109174
142905,109157
142900,109141
142916,109139
142900,109149
142899,109146
142911,109157
142953,109178
142880,109176
142881,109143
142962,109179
142958,109163
142948,109210
142906,109147
142919,109126
142943,109199
142943,109199
142976,109179
142970,109189
142938,109193
142967,109161
143003,109187
142991,109210
142995,109195
142965,109181
142977,109169
143047,109223
143051,109217
143028,109208
143000,109183
143059,109234
143061,109216
143060,109196
143053,109191
143052,109210
143076,109219
143048,109227
143039,109245
143043,109179
143080,109210
143040,109241
143070,109220
143097,109240
143042,109203
143026,109174
143090,109237
143073,109235
143083,109254
143058,109218
143011,109190
143086,109223
143056,109246
143074,109221
143043,109189
143015,109242
143058,109215
143113,109229
143060,109250
143050,109224
143023,109238
143097,109228
143070,109261
143114,109231
143109,109266
143042,109228
143094,109240
143126,109287
143121,109264
143103,109233
143135,109287
143152,109264
143162,109278
143178,109274
143121,109263
143161,109228
143139,109289
143177,109295
143169,109310
143139,109258
143145,109288
143170,109269
143220,109272
143177,109301
143191,109299
143211,109322
143186,109290
143219,109272
143220,109321
143212,109278
143233,109308
143226,109322
143256,109290
143276,109333
143231,109294
143264,109303
143312,109320
143295,109342
143322,109376
143293,109351
143351,109347
143355,109384
143394,109383
143376,109365
143342,109328
143407,109418
143385,109387
143417,109402
143409,109367
143399,109382
143411,109399
143428,109367
143427,109386
143427,109391
143387,109386
143410,109376
143418,109388
143489,109417
143411,109387
143422,109353
143456,109414
143516,109434
143479,109445
143480,109377
143505,109403
143483,109408
143524,109431
143557,109459
143496,109447
143485,109442
143545,109424
143565,109466
143574,109467
143538,109452
143551,109430
143563,109443
143588,109459
143595,109475
143557,109433
143518,109422
143521,109466
143545,109450
143547,109440
143524,109454
143451,109428
143481,109451
143451,109450
143439,109397
143426,109437
143380,109400
143365,109391
143405,109422
143378,109425
143327,109384
143284,109355
143350,109387
143326,109405
143311,109374
143306,109385
143218,109378
143274,109341
143297,109366
143275,109363
143240,109345
143254,109339
143227,109377
143250,109351
143250,109337
143229,109341
143224,109321
143262,109361
143231,109366
143259,109346
143270,109371
143215,109340
143247,109375
143297,109367
143257,109351
143256,109352
143271,109357
143320,109374
143284,109359
143312,109375
143291,109379
143284,109346
143346,109373
143364,109392
143341,109406
143308,109377
143315,109357
143354,109410
143339,109393
143383,109390
143374,109421
143324,109405
143422,109392
143397,109442
143401,109397
143383,109389
143394,109403
143441,109407
143405,109442
143417,109400
143406,109405
143397,109416
143418,109423
143448,109429
143416,109448
143399,109390
143425,109412
143425,109449
143424,109427
143430,109407
143406,109441
143383,109386
143420,109415
143448,109429
143413,109405
143415,109403
143385,109447
143445,109424
143381,109433
143426,109433
143419,109426
143390,109396
143444,109447
143428,109440
143454,109449
143432,109415
143416,109472
143445,109428
143475,109444
143456,109450
143441,109461
143422,109466
143458,109439
143518,109442
143467,109487
143466,109417
143480,109431
143528,109436
143586,109504
143507,109472
143524,109456
143582,109500
143581,109509
143577,109517
143601,109505
143583,109502
143604,109496
143629,109515
143639,109526
143626,109482
143621,109477
143666,109537
143635,109502
143663,109548
143629,109506
143651,109509
143672,109530
143714,109557
143663,109565
143676,109503
143642,109512
143682,109545
143688,109543
143704,109506
143702,109557
143685,109538
143733,109535
143772,109558
143748,109574
143760,109564
143737,109560
143761,109578
143805,109607
143795,109577
143764,109568
143766,109589
143766,109554
143815,109574
143838,109582
143771,109557
143812,109560
143800,109567
143836,109577
143800,109583
143790,109606
143767,109571
143835,109607
143824,109599
143838,109562
143829,109577
143839,109596
143874,109608
143885,109621
143847,109616
143878,109588
143838,109603
143866,109608
143904,109625
143848,109613
143877,109602
143857,109618
143926,109631
143922,109641
143910,109626
143887,109597
143894,109605
143911,109642
143905,109610
143941,109626
143931,109567
143917,109618
143920,109619
143959,109598
143953,109624
143919,109594
143919,109611
143910,109644
143900,109608
143946,109615
143878,109578
143839,109595
143859,109596
143832,109594
143826,109563
143750,109551
143738,109525
143777,109546
143713,109566
143742,109525
143671,109549
143648,109523
143684,109519
143658,109546
143624,109511
143597,109493
143610,109526
143589,109496
143621,109482
143583,109516
143533,109470
143525,109448
143560,109514
143559,109509
143550,109499
143546,109489
143532,109463
143606,109513
143536,109474
143560,109509
143552,109482
143535,109487
143568,109493
143589,109520
143573,109484
143527,109494
143584,109488
143573,109504
143602,109528
143606,109496
143545,109454
143616,109487
143590,109499
143623,109502
143640,109526
143584,109501
143628,109516
143652,109514
143645,109526
143645,109518
143631,109530
143631,109533
143692,109548
143658,109544
143670,109514
143673,109497
143675,109543
143710,109558
143709,109549
143726,109541
143693,109536
143717,109531
143764,109544
143743,109577
143694,109523
143702,109524
143711,109553
143734,109551
143770,109561
143691,109561
143715,109521
143745,109565
143731,109522
143746,109551
143703,109565
143701,109529
143733,109539
143740,109565
143722,109569
143748,109543
143672,109542
143726,109559
143745,109544
143729,109564
143757,109572
143699,109546
143749,109579
143728,109596
143697,109560
143708,109542
143726,109517
143733,109546
143778,109567
143694,109557
143727,109530
143722,109514
143743,109536
143777,109571
143750,109572
143754,109560
143717,109528
143793,109538
143782,109566
143775,109546
143770,109558
143761,109554
143769,109534
143804,109552
143819,109592
143772,109531
143767,109557
143822,109568
143837,109593
143831,109577
143814,109541
143804,109584
143822,109579
143854,109588
143863,109620
143838,109583
143825,109586
143838,109590
143857,109594
143870,109598
143835,109574
143817,109582
143906,109615
143860,109616
143902,109589
143848,109594
143897,109605
143888,109627
143895,109622
143907,109594
143864,109589
143898,109592
143924,109633
143935,109619
143894,109575
143896,109580
143935,109615
143927,109606
143984,109636
143981,109615
143945,109587
143908,109625
143983,109618
143956,109664
143931,109619
143930,109621
143931,109637
143974,109620
144008,109669
143961,109588
143909,109613
143970,109605
144012,109614
143989,109614
144013,109646
143971,109646
143973,109618
144031,109625
144048,109662
143991,109640
143967,109627
144027,109632
144036,109667
144046,109670
144014,109647
143967,109638
144012,109626
144052,109657
143988,109645
143961,109654
143939,109625
143925,109619
143955,109600
143940,109618
143865,109584
143818,109563
143863,109580
143817,109595
143816,109555
143744,109551
143741,109522
143770,109528
143732,109574
143693,109526
143741,109543
143676,109550
143689,109516
143706,109544
143710,109527
143654,109509
143660,109465
143687,109537
143692,109512
143686,109527
143674,109511
143632,109515
143710,109494
143693,109571
143669,109519
143707,109498
143700,109495
143693,109528
143711,109520
143707,109521
143686,109529
143667,109481
143737,109554
143734,109528
143723,109511
143740,109536
143707,109522
143759,109546
143768,109532
143715,109540
143764,109538
143768,109549
143757,109534
143788,109532
143771,109545
143783,109512
143779,109531
143757,109528
143801,109540
143813,109560
143797,109545
143779,109546
143835,109579
143810,109568
143811,109543
143830,109514
143840,109548
143853,109587
143828,109563
143809,109517
143808,109561
143830,109542
143830,109542
143853,109551
143833,109559
143800,109530
143795,109515
143849,109557
143808,109557
143840,109554
143764,109559
143760,109514
143839,109565
143816,109566
143785,109524
143774,109490
143786,109536
143786,109528
143796,109536
143804,109539
143764,109492
143810,109548
143782,109580
143799,109526
143795,109555
143773,109512
143777,109530
143790,109517
143841,109559
143781,109554
143775,109527
143782,109525
143798,109557
143810,109524
143847,109557
143778,109536
143847,109536
143853,109567
143889,109540
143817,109575
143801,109534
143836,109555
143850,109553
143833,109537
143836,109578
143793,109536
143881,109533
143887,109581
143890,109575
143855,109552
143862,109554
143891,109565
143892,109571
143880,109563
143896,109545
143870,109537
143940,109589
143943,109580
143949,109596
143920,109563
143946,109585
143944,109590
144005,109603
143963,109616
143970,109557
143956,109583
143959,109599
143980,109589
143990,109590
143994,109590
143975,109588
143982,109586
143996,109609
143984,109596
143987,109568
143977,109546
144014,109632
143991,109595
144005,109586
144040,109606
143957,109569
144037,109585
144060,109640
144028,109596
144005,109606
143993,109604
144056,109590
144093,109631
144048,109649
144044,109596
144046,109591
144055,109629
144078,109619
144052,109592
144075,109620
144047,109618
144050,109631
144090,109633
144044,109623
144045,109638
143999,109603
144067,109613
144036,109597
143998,109595
144008,109604
143952,109586
143927,109565
143924,109575
143891,109557
143888,109550
143831,109552
143845,109529
143873,109551
143784,109552
143789,109511
143759,109524
143766,109525
143785,109496
143716,109512
143716,109466
143717,109461
143716,109479
143736,109492
143720,109501
143662,109461
143667,109473
143704,109475
143701,109473
143744,109480
143657,109481
143656,109447
143704,109486
143714,109485
143712,109480
143645,109448
143699,109470
143724,109526
143727,109480
143728,109495
143707,109462
143731,109499
143761,109480
143780,109513
143759,109510
143737,109451
143771,109506
143775,109502
143792,109494
143807,109519
143732,109490
143778,109499
143797,109507
143820,109495
143818,109508
143785,109503
143806,109495
143870,109515
143827,109499
143871,109545
143799,109496
143825,109498
143858,109500
143877,109523
143863,109509
143825,109508
143876,109531
143837,109512
143904,109532
143844,109531
143859,109518
143882,109531
143878,109510
143903,109486
143878,109496
143803,109498
143887,109526
143879,109506
143881,109509
143880,109546
143864,109498
143852,109505
143897,109551
143872,109508
143875,109516
143824,109515
143871,109520
143859,109542
143871,109514
143844,109542
143845,109491
143898,109550
143895,109548
143868,109529
143871,109501
143902,109516
143880,109520
143924,109539
143924,109539
143873,109539
143893,109529
143945,109550
143960,109565
143943,109551
143908,109555
143937,109525
143941,109540
143948,109555
143964,109567
143930,109538
143944,109558
143976,109559
143989,109571
143997,109570
143997,109555
143970,109548
144018,109577
144032,109590
144011,109591
144013,109569
143994,109559
144044,109565
144051,109565
144025,109593
144051,109595
144038,109583
144045,109601
144087,109610
144097,109596
144058,109586
144069,109575
144136,109609
144121,109630
144081,109623
144090,109571
144110,109607
144103,109631
144139,109594
144151,109592
144118,109610
144138,109617
144180,109606
144153,109629
144136,109628
144159,109613
144135,109589
144204,109656
144192,109624
144173,109632
144203,109606
144186,109652
144200,109624
144231,109640
144231,109669
144149,109614
144217,109607
144254,109682
144246,109654
144228,109658
144240,109655
144262,109681
144231,109640
144272,109663
144273,109656
144237,109675
144261,109671
144286,109640
144234,109663
144267,109651
144226,109626
144202,109661
144230,109622
144229,109619
144204,109642
144119,109611
144132,109616
144157,109580
144093,109597
144112,109590
143996,109563
144039,109560
144034,109601
144018,109565
143996,109546
143924,109544
143951,109547
143950,109558
143923,109545
143899,109538
143870,109534
143870,109539
143918,109532
143913,109554
143889,109505
143801,109513
143876,109547
143859,109492
143872,109522
143854,109514
143837,109504
143838,109482
143918,109542
143890,109546
143867,109484
143893,109501
143880,109561
143905,109505
143924,109506
143886,109507
143915,109520
143938,109543
143933,109535
143938,109561
143906,109516
143926,109496
143963,109564
143947,109523
143975,109556
143904,109522
143955,109518
143976,109554
143996,109510
143992,109560
143955,109536
143930,109539
143982,109536
144018,109593
143971,109553
144035,109531
143972,109518
144038,109581
144015,109555
144042,109562
144009,109576
144007,109542
144073,109578
144027,109598
143997,109562
144057,109571
143988,109551
144070,109558
144090,109608
144048,109562
144061,109578
144019,109581
144073,109558
144056,109595
144041,109556
144037,109561
144052,109549
144019,109573
144060,109569
144050,109558
144033,109530
143996,109535
144064,109548
144056,109583
144013,109573
144015,109521
144032,109543
144060,109580
144028,109549
144027,109546
144005,109562
144052,109537
144047,109559
144062,109572
144048,109550
144070,109522
144070,109557
144061,109575
144077,109553
144068,109556
144026,109574
144030,109545
144091,109548
144086,109583
144086,109567
144056,109539
144102,109563
144092,109599
144109,109559
144099,109581
144117,109571
144154,109603
144142,109602
144151,109577
144140,109575
144123,109587
144154,109569
144199,109585
144177,109593
144197,109623
144161,109570
144215,109623
144233,109627
144204,109635
144216,109588
144232,109625
144220,109632
144287,109627
144276,109611
144264,109649
144270,109625
144306,109654
144282,109666
144300,109634
144295,109650
144273,109634
144302,109645
144334,109659
144314,109664
144324,109625
144291,109676
144359,109657
144363,109655
144348,109656
144353,109662
144328,109632
144379,109676
144387,109702
144370,109670
144370,109644
144391,109683
144411,109710
144394,109690
144398,109716
144374,109660
144408,109685
144444,109716
144421,109670
144429,109671
144412,109693
144396,109671
144440,109669
144440,109728
144419,109685
144421,109671
144384,109676
144379,109665
144404,109684
144368,109671
144321,109641
144266,109659
144284,109633
144318,109649
144261,109633
144226,109619
144210,109577
144212,109613
144174,109579
144168,109599
144125,109594
144065,109538
144118,109567
144108,109591
144099,109569
144021,109558
144044,109559
144081,109579
144053,109556
144051,109564
144032,109519
143983,109540
144060,109557
144055,109554
143997,109551
144019,109549
144037,109537
144035,109565
144062,109565
144029,109545
143996,109523
144048,109565
144056,109545
144044,109549
144063,109543
144022,109529
144062,109548
144109,109559
144105,109591
144072,109574
144050,109533
144106,109545
144121,109562
144119,109606
144076,109558
144098,109547
144129,109557
144122,109575
144148,109583
144127,109566
144125,109572
144151,109568
144153,109548
144191,109575
144154,109606
144168,109563
144205,109598
144195,109600
144270,109618
144249,109622
144220,109561
144225,109607
144229,109635
144273,109594
144258,109621
144209,109578
144256,109613
144221,109602
144256,109588
144259,109626
144199,109565
144194,109605
144211,109612
144220,109587
144225,109602
144222,109581
144226,109594
144235,109607
144206,109586
144187,109563
144214,109597
144224,109582
144217,109572
144239,109600
144256,109611
144145,109564
144214,109590
144241,109628
144217,109592
144225,109586
144190,109587
144224,109619
144232,109591
144264,109593
144233,109610
144225,109609
144230,109619
144274,109609
144275,109628
144256,109600
144223,109598
144269,109607
144306,109614
144332,109647
144257,109640
144271,109577
144347,109627
144331,109635
144337,109622
144342,109627
144296,109615
144344,109645
144371,109665
144372,109657
144349,109613
144327,109671
144376,109643
144427,109648
144411,109672
144375,109651
144390,109649
144421,109692
144423,109684
144411,109672
144414,109665
144433,109646
144419,109666
144468,109691
144447,109665
144434,109671
144441,109644
144472,109703
144489,109650
144493,109658
144498,109655
144477,109689
144496,109693
144524,109698
144542,109698
144501,109709
144527,109683
144556,109706
144543,109723
144531,109684
144529,109683
144517,109705
144565,109701
144558,109732
144544,109692
144563,109713
144571,109678
144587,109723
144568,109711
144558,109701
144562,109679
144525,109692
144551,109714
144553,109692
144476,109709
144398,109630
144457,109654
144406,109652
144435,109655
144343,109625
144310,109593
144298,109614
144284,109587
144296,109617
144237,109588
144209,109550
144210,109567
144210,109613
144196,109553
144124,109547
144137,109526
144155,109545
144137,109563
144164,109571
144133,109566
144093,109541
144133,109560
144146,109553
144156,109563
144131,109538
144118,109547
144179,109560
144147,109576
144184,109581
144164,109566
144112,109552
144183,109565
144184,109536
144196,109574
144186,109564
144128,109532
144217,109596
144214,109577
144219,109553
144206,109582
144198,109548
144235,109565
144217,109594
144287,109586
144239,109559
144250,109580
144299,109573
144316,109620
144278,109640
144255,109577
144290,109586
144314,109625
144319,109606
144339,109628
144315,109636
144298,109563
144337,109606
144340,109631
144311,109601
144339,109572
144341,109636
144370,109629
144336,109631
144369,109598
144379,109626
144333,109561
144358,109606
144383,109623
144372,109624
144313,109602
144351,109569
144382,109635
144390,109634
144356,109584
144315,109597
144351,109606
144361,109626
144312,109643
144327,109599
144328,109576
144310,109610
144365,109615
144365,109612
144349,109627
144296,109610
144350,109590
144372,109630
144344,109629
144374,109599
144343,109616
144320,109583
144372,109629
144321,109633
144340,109618
144318,109587
144364,109615
144380,109630
144380,109643
144335,109620
144368,109568
144360,109660
144382,109636
144419,109628
144376,109618
144393,109616
144378,109605
144427,109635
144404,109635
144448,109638
144409,109599
144426,109661
144435,109679
144484,109681
144458,109641
144479,109645
144515,109674
144490,109680
144524,109650
144500,109665
144521,109653
144482,109673
144536,109694
144516,109673
144521,109664
144523,109664
144524,109681
144543,109685
144547,109688
144523,109674
144529,109632
144589,109695
144575,109710
144594,109678
144568,109670
144594,109673
144554,109695
144603,109685
144622,109719
144588,109702
144612,109690
144617,109696
144642,109706
144637,109714
144613,109718
144593,109647
144633,109707
144671,109708
144649,109686
144657,109684
144619,109729
144634,109699
144682,109691
144693,109689
144632,109673
144630,109709
144595,109666
144584,109659
144586,109673
144570,109658
144501,109631
144564,109651
144512,109663
144446,109627
144433,109596
144363,109609
144389,109604
144333,109595
144338,109595
144309,109588
144271,109559
144268,109559
144225,109569
144249,109528
144189,109544
144133,109499
144187,109510
144174,109542
144143,109520
144098,109474
144117,109530
144102,109492
144159,109547
144107,109506
144126,109501
144076,109502
144111,109490
144150,109539
144112,109533
144110,109499
144062,109467
144111,109524
144170,109505
144101,109511
144121,109508
144091,109500
144156,109517
144166,109536
144131,109498
144144,109508
144152,109521
144169,109517
144155,109530
144154,109492
144183,109493
144139,109523
144180,109526
144187,109502
144200,109519
144140,109524
144140,109476
144228,109538
144227,109511
144181,109537
144157,109493
144197,109533
144212,109521
144237,109537
144246,109546
144193,109511
144231,109512
144267,109516
144259,109564
144240,109518
144221,109504
144250,109533
144255,109554
144233,109557
144223,109509
144210,109532
144248,109533
144259,109537
144253,109541
144228,109550
144179,109481
144215,109532
144242,109547
144243,109519
144195,109510
144171,109501
144203,109477
144205,109519
144197,109537
144182,109518
144182,109480
144168,109484
144234,109492
144171,109524
144139,109528
144133,109511
144133,109472
144208,109480
144181,109538
144188,109474
144176,109512
144207,109515
144193,109531
144204,109467
144202,109491
144173,109466
144185,109508
144214,109500
144239,109493
144235,109518
144165,109516
144219,109533
144220,109510
144258,109519
144214,109517
144232,109479
144221,109535
144268,109512
144256,109554
144252,109535
144252,109486
144294,109513
144306,109538
144279,109549
144263,109527
144230,109509
144287,109509
144330,109553
144299,109532
144281,109508
144296,109498
144298,109512
144355,109522
144322,109551
144296,109517
144281,109510
144338,109545
144371,109532
144354,109557
144315,109557
144330,109489
144371,109552
144407,109563
144379,109538
144366,109533
144353,109571
144399,109540
144404,109538
144428,109553
144380,109536
144401,109533
144420,109592
144409,109551
144436,109576
144418,109561
144430,109524
144484,109583
144453,109586
144460,109580
144458,109566
144466,109550
144479,109598
144497,109570
144456,109600
144406,109548
144388,109560
144432,109570
144362,109536
144384,109533
144330,109520
144266,109471
144298,109526
144234,109481
144228,109484
144203,109480
144150,109463
144171,109476
144139,109473
144069,109459
144054,109397
144092,109451
144048,109417
144054,109419
144054,109427
143990,109404
144002,109403
144026,109400
144018,109440
143987,109398
143973,109405
143977,109392
143984,109430
144010,109385
144005,109427
143930,109369
143958,109363
143989,109384
144011,109408
143973,109412
143921,109385
143991,109378
144012,109385
144012,109428
143967,109409
143966,109360
144002,109405
144007,109413
143998,109400
143997,109407
143994,109371
144004,109434
144014,109401
144033,109417
144010,109398
144023,109398
144042,109413
144087,109412
144040,109433
144040,109403
144039,109385
144079,109391
144105,109422
144091,109424
144113,109390
144088,109403
144111,109407
144151,109461
144134,109476
144092,109425
144101,109398
144123,109427
144175,109451
144137,109422
144151,109435
144126,109449
144122,109419
144155,109458
144157,109436
144146,109397
144113,109420
144121,109433
144123,109430
144090,109432
144070,109416
144093,109412
144102,109438
144121,109408
144148,109436
144100,109423
144094,109400
144119,109452
144105,109427
144128,109417
144117,109450
144076,109413
144159,109439
144139,109450
144136,109443
144103,109416
144098,109362
144158,109433
144167,109459
144135,109414
144172,109435
144113,109409
144170,109452
144181,109463
144182,109413
144125,109424
144148,109432
144173,109441
144244,109444
144178,109460
144187,109441
144187,109431
144196,109475
144245,109471
144208,109467
144189,109448
144216,109462
144249,109474
144244,109465
144271,109495
144224,109466
144237,109464
144264,109470
144269,109492
144271,109479
144261,109459
144274,109460
144306,109471
144311,109492
144309,109495
144266,109459
144308,109489
144288,109520
144319,109496
144305,109487
144321,109456
144329,109498
144354,109511
144345,109495
144315,109496
144327,109474
144332,109475
144383,109492
144375,109538
144376,109480
144354,109475
144396,109492
144400,109506
144396,109537
144424,109528
144383,109522
144441,109513
144446,109544
144402,109530
144433,109518
144426,109525
144442,109512
144445,109508
144494,109519
144409,109534
144398,109492
144432,109492
144428,109534
144421,109491
144372,109504
144338,109480
144353,109479
144353,109513
144278,109465
144260,109459
144235,109453
144225,109419
144221,109441
144224,109475
144154,109416
144094,109406
144118,109371
144143,109415
144084,109379
144066,109406
144025,109358
144055,109398
144045,109390
144028,109358
143989,109365
143957,109325
143990,109365
144038,109366
143973,109383
143996,109378
143936,109342
144018,109372
143988,109354
144037,109355
144006,109355
143976,109351
144054,109363
144010,109408
144029,109339
144036,109360
144008,109352
144047,109363
144043,109395
144083,109405
144038,109383
144062,109380
144090,109381
144082,109385
144097,109387
144109,109380
144073,109371
144119,109390
144162,109391
144155,109432
144155,109384
144084,109390
144190,109423
144199,109451
144203,109426
144160,109399
144191,109406
144212,109443
144249,109446
144259,109439
144232,109431
144195,109418
144247,109448
144263,109450
144229,109436
144233,109435
144230,109429
144253,109434
144277,109448
144236,109452
144244,109426
144222,109433
144257,109456
144266,109454
144214,109437
144219,109439
144227,109420
144236,109445
144245,109417
144245,109435
144211,109398
144175,109428
144248,109435
144216,109421
144242,109425
144178,109401
144211,109435
144246,109428
144236,109428
144230,109424
144232,109415
144205,109402
144244,109451
144280,109444
144259,109454
144269,109406
144229,109419
144318,109468
144307,109462
144272,109453
144268,109428
144291,109456
144335,109468
144328,109475
144317,109447
144335,109468
144340,109469
144326,109479
144363,109458
144334,109450
144340,109465
144355,109475
144384,109482
144387,109480
144396,109466
144360,109462
144398,109476
144415,109499
144419,109497
144425,109493
144393,109467
144449,109492
144490,109527
144439,109499
144452,109510
144445,109476
144488,109528
144493,109536
144486,109509
144507,109529
144478,109512
144543,109558
144535,109533
144543,109530
144535,109539
144518,109496
144567,109536
144570,109548
144574,109546
144572,109538
144552,109532
144628,109551
144611,109555
144628,109573
144595,109549
144584,109530
144620,109548
144612,109578
144641,109563
144601,109548
144626,109566
144641,109559
144582,109559
144592,109554
144558,109531
144514,109508
144497,109507
144497,109504
144500,109503
144415,109505
144399,109472
144401,109496
144393,109496
144312,109443
144310,109460
144252,109430
144283,109441
144279,109444
144257,109430
144193,109409
144217,109399
144212,109419
144193,109422
144208,109412
144155,109404
144184,109392
144169,109414
144209,109437
144195,109419
144127,109400
144189,109415
144178,109402
144232,109418
144181,109423
144159,109372
144178,109385
144236,109420
144192,109449
144223,109445
144216,109398
144224,109425
144237,109441
144268,109434
144251,109384
144249,109431
144253,109452
144286,109413
144271,109443
144264,109412
144270,109424
144265,109461
144302,109457
144311,109471
144274,109461
144253,109425
144326,109427
144321,109471
144374,109483
144321,109457
144330,109429
144353,109465
144418,109449
144413,109490
144394,109476
144365,109462
144379,109445
144403,109508
144406,109468
144390,109502
144365,109482
144430,109464
144402,109498
144441,109496
144389,109493
144358,109450
144404,109466
144412,109500
144430,109481
144390,109454
144403,109477
144372,109518
144403,109477
144415,109488
144368,109448
144370,109453
144373,109491
144412,109494
144402,109503
144371,109446
144348,109467
144372,109461
144401,109496
144416,109478
144386,109500
144336,109460
144441,109479
144400,109503
144440,109533
144407,109478
144386,109480
144411,109490
144436,109502
144485,109491
144417,109496
144425,109503
144448,109534
144468,109503
144492,109493
144459,109504
144452,109490
144524,109551
144505,109537
144539,109513
144533,109516
144458,109519
144555,109499
144535,109528
144543,109500
144557,109530
144504,109524
144544,109507
144586,109538
144590,109518
144571,109533
144534,109523
144653,109565
144627,109557
144635,109546
144595,109566
144565,109532
144635,109563
144659,109579
144614,109551
144613,109539
144635,109569
144659,109605
144670,109570
144686,109561
144656,109583
144663,109561
144675,109584
144690,109577
144725,109593
144636,109576
144664,109559
144754,109614
144735,109574
144708,109568
144716,109535
144713,109571
144703,109613
144737,109601
144721,109570
144728,109570
144728,109597
144757,109574
144759,109596
144788,109602
144704,109608
144742,109555
144765,109625
144769,109590
144776,109580
144736,109572
144704,109576
144738,109577
144694,109583
144669,109587
144601,109523
144589,109499
144597,109534
144577,109521
144559,109481
144499,109497
144484,109501
144480,109464
144483,109502
144409,109475
144369,109431
144407,109464
144386,109454
144369,109455
144338,109450
144328,109398
144343,109431
144342,109424
144378,109459
144289,109433
144282,109403
144334,109447
144315,109397
144339,109453
144320,109447
144268,109410
144328,109423
144337,109427
144367,109460
144347,109453
144317,109444
144340,109429
144380,109459
144367,109448
144359,109464
144309,109408
144403,109449
144376,109432
144426,109466
144407,109446
144373,109442
144374,109450
144433,109494
144399,109478
144406,109472
144351,109458
144426,109487
144412,109452
144428,109433
144455,109491
144386,109440
144444,109457
144432,109471
144463,109453
144448,109520
144443,109466
144469,109487
144457,109492
144481,109461
144497,109506
144477,109464
144499,109459
144491,109478
144510,109457
144459,109493
144436,109470
144516,109462
144498,109479
144507,109470
144470,109466
144440,109468
144480,109454
144503,109493
144511,109470
144489,109444
144472,109473
144467,109471
144498,109499
144470,109463
144488,109464
144489,109464
144462,109496
144453,109502
144464,109467
144455,109478
144452,109452
144510,109460
144488,109452
144491,109476
144461,109444
144516,109471
144496,109503
144506,109503
144504,109469
144497,109448
144483,109471
144485,109484
144544,109496
144517,109475
144501,109470
144537,109462
144575,109473
144602,109509
144530,109494
144539,109480
144557,109499
144574,109516
144572,109498
144597,109489
144554,109479
144566,109507
144616,109525
144629,109522
144603,109471
144566,109491
144604,109507
144622,109525
144639,109532
144617,109495
144619,109488
144645,109523
144655,109527
144636,109525
144662,109504
144630,109480
144695,109515
144676,109507
144711,109550
144636,109519
144671,109523
144679,109529
144722,109545
144700,109551
144675,109516
144635,109532
144676,109524
144690,109540
144681,109536
144741,109551
144702,109504
144721,109522
144749,109567
144756,109539
144734,109555
144696,109535
144773,109562
144780,109563
144805,109575
144756,109583
144720,109557
144804,109553
144804,109563
144801,109546
144796,109591
144783,109567
144778,109565
144836,109587
144783,109548
144739,109572
144720,109548
144686,109531
144729,109543
144680,109532
144629,109500
144579,109481
144607,109481
144590,109506
144525,109470
144521,109450
144485,109422
144498,109435
144458,109472
144463,109463
144414,109407
144397,109412
144410,109452
144398,109407
144398,109400
144358,109426
144338,109405
144351,109399
144384,109430
144354,109421
144377,109370
144328,109391
144367,109420
144385,109410
144363,109399
144358,109407
144343,109387
144344,109403
144385,109428
144397,109399
144365,109373
144400,109411
144430,109430
144427,109412
144395,109405
144395,109399
144427,109379
144395,109413
144422,109426
144439,109417
144383,109395
144389,109402
144433,109410
144463,109447
144422,109425
144459,109401
144419,109404
144482,109434
144476,109441
144466,109400
144455,109453
144450,109441
144529,109418
144529,109453
144508,109464
144473,109407
144511,109450
144528,109434
144546,109433
144481,109426
144502,109455
144484,109434
144532,109446
144534,109439
144529,109437
144483,109425
144476,109413
144496,109435
144501,109422
144502,109414
144460,109411
144485,109418
144519,109421
144525,109414
144483,109442
144479,109396
144469,109419
144495,109449
144460,109409
144479,109428
144457,109382
144448,109408
144448,109425
144495,109401
144436,109382
144468,109434
144467,109405
144512,109440
144500,109462
144459,109392
144461,109357
144498,109409
144539,109444
144524,109438
144473,109404
144482,109392
144545,109410
144534,109427
144536,109404
144520,109454
144518,109395
144551,109451
144556,109404
144586,109420
144532,109430
144526,109417
144542,109449
144594,109446
144584,109472
144544,109399
144534,109457
144564,109448
144586,109440
144597,109432
144545,109441
144571,109458
144585,109455
144632,109457
144592,109449
144594,109425
144594,109439
144621,109470
144638,109449
144664,109466
144603,109467
144610,109455
144672,109440
144683,109472
144651,109475
144643,109426
144649,109439
144684,109473
144670,109460
144689,109444
144674,109472
144664,109450
144698,109495
144698,109456
144728,109470
144667,109464
144684,109481
144676,109474
144730,109484
144689,109470
144717,109474
144708,109464
144710,109487
144728,109450
144707,109458
144692,109432
144656,109449
144620,109466
144612,109434
144608,109418
144528,109422
144496,109405
144561,109412
144532,109416
144452,109403
144422,109333
144414,109363
144442,109363
144437,109376
144374,109386
144328,109285
144345,109317
144300,109354
144321,109328
144332,109303
144276,109330
144265,109315
144290,109317
144301,109300
144320,109326
144260,109286
144280,109302
144309,109338
144290,109344
144306,109290
144268,109319
144286,109323
144315,109318
144339,109344
144306,109325
144282,109295
144338,109323
144315,109319
144338,109343
144355,109315
144311,109321
144326,109327
144370,109347
144394,109326
144383,109355
144316,109308
144360,109310
144415,109364
144387,109329
144377,109348
144357,109289
144423,109313
144390,109364
144404,109354
144418,109326
144412,109321
144430,109362
144447,109334
144453,109364
144424,109327
144387,109347
144425,109349
144485,109337
144489,109349
144467,109376
144425,109318
144478,109323
144503,109345
144496,109380
144427,109357
144459,109339
144481,109368
144505,109375
144465,109366
144458,109301
144421,109348
144446,109332
144500,109372
144499,109359
144428,109345
144433,109320
144438,109355
144471,109344
144465,109332
144461,109304
144421,109326
144462,109341
144490,109338
144476,109343
144453,109351
144449,109366
144485,109346
144494,109371
144448,109332
144468,109318
144456,109346
144514,109334
144494,109390
144468,109353
144520,109302
144454,109339
144512,109359
144510,109359
144516,109352
144506,109363
144497,109318
144542,109366
144528,109365
144549,109362
144507,109357
144527,109365
144543,109343
144561,109366
144588,109389
144525,109347
144539,109393
144597,109380
144592,109401
144596,109363
144580,109360
144626,109378
144628,109391
144629,109374
144645,109393
144588,109405
144604,109375
144662,109419
144638,109411
144635,109378
144651,109385
144660,109412
144658,109420
144697,109428
144689,109386
144622,109385
144684,109399
144693,109442
144698,109412
144718,109405
144658,109373
144712,109407
144709,109447
144714,109397
144693,109410
144708,109436
144705,109407
144737,109395
144722,109439
144752,109407
144686,109400
144759,109406
144751,109453
144764,109428
144715,109422
144723,109422
144763,109444
144774,109433
144745,109420
144727,109448
144653,109360
144650,109389
144688,109384
144672,109403
144593,109396
144534,109315
144556,109363
144567,109348
144513,109356
144482,109310
144430,109328
144435,109325
144469,109315
144448,109329
144402,109284
144347,109304
144372,109301
144377,109313
144375,109315
144301,109282
144303,109251
144325,109288
144365,109295
144321,109262
144329,109285
144299,109238
144312,109240
144352,109267
144303,109297
144271,109251
144328,109284
144327,109319
144344,109304
144306,109261
144350,109262
144292,109269
144349,109277
144388,109278
144353,109294
144342,109257
144329,109291
144346,109293
144383,109286
144392,109280
144363,109275
144338,109258
144392,109269
144419,109292
144361,109282
144358,109288
144333,109249
144406,109277
144409,109291
144424,109310
144354,109272
144380,109263
144389,109278
144437,109301
144413,109284
144405,109269
144401,109305
144435,109300
144467,109275
144444,109284
144439,109267
144440,109308
144435,109308
144468,109297
144462,109310
144401,109287
144459,109287
144430,109295
144445,109299
144442,109284
144428,109285
144457,109285
144456,109336
144451,109263
144457,109296
144403,109262
144419,109269
144433,109308
144472,109295
144404,109295
144416,109290
144414,109271
144446,109313
144472,109295
144404,109276
144416,109271
144464,109275
144431,109304
144469,109306
144411,109287
144426,109274
144481,109284
144460,109296
144500,109309
144434,109314
144431,109292
144468,109283
144477,109283
144474,109309
144492,109275
144465,109297
144466,109302
144512,109317
144491,109317
144482,109284
144480,109314
144527,109297
144500,109319
144535,109304
144540,109330
144461,109274
144486,109300
144556,109339
144547,109343
144501,109298
144534,109324
144587,109332
144558,109354
144582,109335
144589,109316
144560,109308
144606,109348
144570,109334
144597,109353
144598,109341
144559,109299
144595,109309
144647,109337
144618,109313
144628,109319
144575,109332
144626,109321
144681,109354
144629,109328
144641,109325
144619,109320
144660,109343
144666,109371
144699,109363
144644,109349
144666,109332
144708,109340
144656,109352
144682,109384
144641,109332
144674,109354
144719,109389
144711,109351
144688,109367
144687,109338
144667,109333
144690,109354
144754,109364
144748,109371
144705,109352
144700,109360
144709,109357
144735,109366
144695,109326
144711,109323
144647,109349
144647,109338
144684,109339
144616,109310
144569,109300
144533,109264
144555,109292
144531,109304
144498,109284
144442,109257
144456,109242
144435,109272
144417,109241
144403,109236
144353,109236
144353,109218
144402,109253
144366,109241
144340,109229
144322,109213
144332,109232
144329,109239
144365,109241
144345,109251
144306,109223
144338,109198
144385,109230
144351,109249
144363,109211
144358,109224
144341,109244
144395,109235
144346,109275
144340,109225
144336,109213
144350,109191
144419,109246
144369,109259
144357,109224
144353,109202
144365,109242
144379,109243
144425,109237
144378,109262
144342,109198
144422,109248
144412,109257
144416,109230
144411,109230
144422,109230
144410,109274
144401,109227
144454,109254
144398,109231
144388,109228
144451,109225
144482,109270
144453,109247
144420,109235
144442,109225
144429,109257
144488,109251
144447,109284
144445,109234
144425,109245
144489,109240
144490,109259
144482,109258
144489,109261
144415,109220
144468,109231
144478,109267
144479,109243
144476,109258
144435,109243
144463,109218
144500,109274
144479,109215
144448,109257
144399,109222
144458,109220
144456,109243
144467,109245
144417,109240
144428,109231
144485,109267
144499,109267
144457,109266
144441,109226
144459,109255
144477,109220
144473,109252
144414,109220
144445,109216
144440,109220
144452,109230
144465,109247
144484,109240
144460,109249
144426,109218
144494,109256
144509,109238
144484,109256
144494,109241
144466,109263
144522,109249
144490,109275
144508,109270
144458,109257
144506,109250
144516,109267
144586,109288
144523,109278
144500,109274
144499,109260
144538,109249
144600,109280
144513,109256
144487,109253
144518,109238
144569,109289
144561,109241
144583,109284
144514,109264
144552,109261
144600,109284
144611,109250
144630,109272
144559,109287
144577,109240
144569,109286
144632,109304
144636,109273
144605,109256
144570,109300
144605,109291
144625,109276
144618,109292
144617,109279
144617,109295
144658,109281
144675,109304
144651,109311
144627,109300
144631,109290
144647,109317
144688,109291
144662,109317
144644,109281
144660,109291
144687,109291
144708,109327
144681,109296
144665,109265
144662,109290
144719,109312
144738,109349
144723,109296
144690,109281
144712,109333
144754,109345
144723,109334
144725,109296
144733,109298
144717,109342
144740,109310
144749,109308
144720,109323
144729,109315
144707,109310
144757,109294
144751,109341
144696,109307
144702,109292
144679,109307
144656,109290
144700,109291
144615,109286
144591,109262
144576,109273
144566,109249
144559,109265
144483,109231
144479,109202
144483,109210
144486,109231
144435,109221
144443,109226
144399,109162
144412,109223
144389,109183
144419,109198
144406,109190
144328,109197
144350,109181
144409,109176
144370,109218
144342,109173
144396,109176
144397,109227
144383,109183
144406,109203
144354,109150
144356,109154
144445,109198
144434,109206
144395,109174
144408,109185
144400,109170
144439,109171
144453,109197
144429,109184
144428,109172
144420,109209
144469,109197
144462,109212
144464,109207
144408,109185
144429,109186
144456,109203
144468,109211
144492,109200
144481,109226
144423,109164
144525,109221
144481,109233
144502,109224
144454,109224
144460,109184
144513,109194
144535,109218
144501,109214
144476,109193
144480,109200
144541,109202
144513,109192
144549,109222
144506,109205
144482,109222
144492,109209
144559,109215
144509,109238
144472,109182
144526,109178
144565,109212
144509,109234
144521,109193
144527,109207
144478,109215
144536,109218
144533,109230
144502,109159
144514,109206
144484,109190
144508,109174
144503,109229
144502,109217
144433,109178
144482,109161
144538,109193
144491,109195
144488,109213
144466,109174
144461,109193
144496,109193
144521,109185
144507,109228
144465,109160
144528,109204
144539,109238
144522,109189
144574,109204
144484,109212
144550,109192
144566,109245
144553,109220
144547,109200
144533,109212
144519,109195
144553,109223
144564,109207
144553,109220
144543,109213
144574,109245
144571,109227
144595,109241
144594,109197
144536,109227
144568,109199
144626,109245
144643,109268
144620,109216
144578,109216
144669,109250
144629,109286
144651,109213
144669,109266
144605,109237
144620,109237
144665,109259
144635,109248
144658,109223
144618,109233
144644,109243
144700,109291
144687,109265
144665,109272
144673,109236
144662,109286
144691,109227
144704,109269
144675,109268
144648,109234
144729,109265
144739,109302
144692,109284
144663,109267
144679,109244
144728,109281
144706,109293
144715,109258
144727,109270
144700,109245
144756,109276
144716,109280
144738,109256
144707,109257
144708,109242
144743,109269
144730,109287
144738,109231
144707,109239
144676,109238
144709,109281
144712,109261
144662,109231
144611,109199
144606,109197
144616,109229
144635,109227
144552,109200
144509,109176
144517,109165
144501,109203
144492,109176
144473,109178
144411,109143
144438,109167
144455,109171
144434,109171
144427,109148
144361,109135
144363,109128
144391,109154
144392,109181
144403,109141
144345,109133
144333,109139
144402,109157
144340,109150
144378,109136
144337,109135
144359,109147
144393,109141
144394,109155
144331,109120
144368,109140
144375,109120
144385,109133
144379,109160
144391,109140
144334,109122
144378,109138
144400,109128
144442,109136
144395,109135
144395,109113
144395,109136
144409,109130
144433,109114
144407,109146
144385,109122
144454,109127
144440,109158
144428,109149
144430,109108
144435,109107
144421,109168
144461,109160
144473,109129
144470,109137
144458,109148
144478,109124
144496,109143
144457,109159
144451,109131
144485,109121
144461,109181
144491,109162
144515,109154
144488,109169
144441,109156
144510,109135
144525,109163
144498,109147
144507,109155
144466,109139
144447,109112
144505,109153
144497,109141
144502,109146
144472,109099
144433,109172
144459,109144
144493,109147
144438,109143
144418,109110
144489,109181
144492,109169
144487,109165
144456,109172
144404,109100
144481,109160
144463,109154
144465,109135
144475,109116
144456,109131
144454,109114
144482,109169
144488,109141
144449,109109
