11111,11111
0,0
82495,82431
136612,111297
141553,111266
141537,111284
141570,111278
141511,111263
141503,111256
141554,111219
141566,111231
141520,111208
141542,111236
141516,111256
141530,111220
141577,111219
141547,111214
141533,111206
141539,111251
141558,111178
141592,111222
141571,111229
141554,111187
141556,111211
141565,111231
141586,111209
141574,111202
141567,111194
141566,111199
141611,111220
141608,111190
141605,111203
141580,111182
141595,111223
141608,111162
141635,111199
141610,111245
141591,111174
141640,111192
141622,111199
141638,111180
141698,111218
141596,111177
141622,111161
141696,111192
141675,111216
141653,111184
141669,111189
141650,111222
141677,111168
141713,111197
141709,111191
141690,111182
141695,111216
141699,111200
141717,111190
141707,111204
141687,111182
141711,111214
141720,111183
141769,111165
141752,111210
141690,111162
141758,111189
141754,111176
141794,111180
141742,111186
141692,111149
141768,111198
141786,111169
141816,111205
141743,111158
141755,111170
141768,111206
141797,111160
141818,111158
141762,111168
141747,111189
141752,111179
141776,111147
141768,111161
141736,111146
141674,111117
141676,111098
141700,111127
141615,111087
141586,111065
141525,111060
141496,111086
141495,111015
141503,111011
141416,111027
141333,111007
141359,110966
141380,110945
141318,110962
141255,110949
141232,110926
141232,110922
141226,110924
141228,110898
141160,110924
141094,110863
141160,110897
141152,110877
141152,110908
141124,110892
141052,110886
141139,110865
141123,110889
141100,110892
141093,110862
141056,110850
141059,110855
141112,110832
141114,110871
141053,110852
141056,110837
141049,110861
141074,110833
141113,110864
141058,110819
141017,110827
141079,110812
141084,110813
141082,110817
141199,110857
141103,110750
141086,110729
141101,110732
141137,110758
141182,110736
141132,110737
141248,110742
141249,110775
141302,110725
141313,110748
141314,110771
141364,110732
141367,110726
141317,110723
141344,110759
141355,110741
141361,110742
141373,110757
141318,110743
141380,110765
141394,110745
141388,110751
141364,110723
141362,110737
141367,110736
141404,110753
141385,110729
141356,110684
141266,110709
141346,110682
141319,110696
141266,110656
141245,110651
141196,110655
141145,110623
141108,110630
141104,110610
141038,110559
141010,110568
140942,110576
140924,110510
140927,110531
140827,110495
140744,110478
140815,110489
140760,110466
140698,110447
140642,110452
140586,110399
140637,110447
140606,110407
140576,110385
140519,110353
140507,110354
140499,110377
140513,110332
140445,110363
140409,110350
140375,110307
140430,110342
140395,110334
140418,110317
140390,110331
140310,110328
140379,110285
140401,110293
140377,110301
140372,110293
140343,110324
140351,110278
140387,110312
140355,110281
140358,110309
140343,110339
140376,110277
140384,110290
140351,110312
140320,110311
140312,110313
140390,110287
140379,110323
140375,110305
140322,110287
140345,110268
140391,110314
140401,110304
140376,110303
140364,110265
140367,110298
140402,110291
140407,110298
140414,110315
140386,110294
140376,110289
140381,110260
140443,110286
140407,110288
140358,110276
140371,110272
140373,110276
140412,110276
140394,110277
140347,110264
140335,110291
140357,110248
140359,110282
140351,110265
140263,110255
140303,110256
140335,110221
140363,110253
140331,110242
140278,110252
140237,110241
140299,110227
140306,110235
140285,110205
140229,110222
140202,110229
140276,110217
140258,110199
140235,110221
140200,110193
140260,110208
140252,110192
140267,110222
140220,110195
140228,110210
140230,110176
140220,110205
140257,110205
140195,110187
140176,110168
140232,110194
140240,110172
140226,110182
140236,110206
140144,110192
140182,110169
140211,110178
140228,110165
140173,110150
140163,110156
140142,110189
140213,110163
140172,110153
140177,110160
140150,110181
140177,110144
140169,110169
140189,110167
140212,110160
140179,110175
140168,110197
140221,110181
140219,110169
140212,110166
140198,110160
140215,110133
140220,110155
140294,110187
140223,110146
140191,110161
140297,110158
140310,110190
140285,110184
140312,110173
140277,110214
140317,110184
140330,110195
140341,110207
140377,110186
140322,110213
140348,110196
140412,110216
140406,110204
140388,110190
140333,110196
140444,110210
140425,110243
140437,110227
140443,110202
140435,110212
140498,110227
140481,110247
140466,110214
140464,110246
140430,110218
140486,110232
140525,110218
140563,110260
140503,110216
140530,110239
140523,110241
140545,110229
140599,110252
140542,110226
140529,110222
140564,110269
140564,110261
140599,110229
140587,110213
140557,110234
140559,110222
140549,110218
140551,110208
140502,110216
140457,110217
140455,110154
140437,110177
140385,110137
140324,110116
140279,110119
140247,110117
140231,110068
140161,110069
140132,110070
140052,110039
140108,110045
140020,110030
139968,109968
139930,109978
139854,109968
139862,109966
139848,109906
139795,109920
139727,109927
139692,109884
139687,109857
139698,109886
139642,109865
139579,109849
139583,109819
139592,109848
139585,109838
139617,109830
139555,109847
139520,109860
139574,109818
139566,109858
139555,109842
139533,109843
139513,109804
139567,109850
139547,109838
139585,109831
139537,109823
139506,109829
139558,109820
139577,109830
139581,109817
139563,109851
139543,109841
139615,109862
139601,109819
139662,109841
139619,109874
139631,109868
139681,109807
139727,109842
139693,109841
139697,109868
139702,109905
139767,109884
139767,109887
139771,109894
139777,109893
139737,109866
139828,109894
139820,109880
139840,109887
139783,109891
139811,109866
139835,109913
139828,109895
139857,109903
139820,109896
139809,109895
139871,109873
139897,109904
139825,109901
139808,109889
139850,109936
139860,109871
139843,109910
139850,109895
139802,109904
139806,109885
139839,109864
139791,109878
139783,109861
139763,109843
139773,109894
139802,109843
139787,109855
139741,109838
139746,109831
139744,109878
139747,109833
139802,109803
139752,109830
139698,109853
139755,109868
139770,109851
139781,109848
139763,109851
139740,109859
139725,109844
139778,109871
139800,109845
139754,109857
139733,109806
139760,109855
139828,109874
139827,109867
139793,109840
139791,109872
139831,109870
139847,109866
139833,109872
139851,109863
139817,109861
139852,109888
139839,109868
139903,109882
139858,109891
139861,109860
139891,109888
139931,109879
139920,109863
139902,109902
139893,109872
139904,109874
139948,109874
139962,109896
139961,109888
139925,109887
139997,109923
139990,109933
139979,109886
139974,109914
139975,109905
139992,109878
140048,109920
140014,109945
140040,109922
139989,109925
140039,109924
140083,109913
140070,109935
140063,109912
140025,109955
140090,109938
140093,109922
140141,109907
140095,109936
140108,109958
140129,109951
140138,109938
140170,109971
140123,109941
140107,109935
140180,109968
140180,109943
140184,109939
140147,109923
140168,109948
140199,109934
140230,109980
140183,109948
140213,109962
140218,109959
140200,109959
140278,109937
140222,109981
140177,109958
140152,109952
140189,109942
140171,109935
140156,109905
140060,109884
140038,109887
140026,109852
140027,109879
139928,109831
139844,109821
139828,109809
139807,109791
139768,109769
139703,109748
139630,109730
139573,109709
139560,109692
139549,109684
139450,109650
139403,109640
139351,109631
139374,109615
139306,109614
139291,109582
139182,109562
139174,109569
139217,109547
139189,109582
139100,109532
139089,109547
139062,109517
139116,109532
139105,109547
139052,109491
139011,109495
139033,109496
139050,109524
139065,109503
139003,109549
138985,109527
139000,109526
139015,109500
139079,109510
139008,109540
139002,109512
139047,109503
139066,109537
139041,109511
139089,109514
139064,109509
139073,109535
139121,109530
139169,109555
139131,109556
139135,109557
139171,109543
139181,109557
139207,109564
139214,109527
139214,109559
139204,109591
139276,109576
139276,109578
139248,109585
139234,109592
139285,109599
139321,109604
139314,109563
139310,109593
139260,109603
139281,109626
139321,109563
139313,109574
139351,109606
139274,109620
139299,109585
139328,109600
139313,109575
139305,109581
139287,109588
139304,109561
139325,109583
139323,109610
139296,109554
139260,109574
139259,109544
139318,109577
139298,109595
139257,109545
139241,109556
139258,109541
139303,109562
139267,109585
139228,109540
139192,109551
139239,109571
139275,109549
139263,109577
139245,109557
139218,109542
139269,109560
139242,109558
139244,109546
139282,109542
139240,109572
139230,109552
139293,109569
139304,109536
139315,109578
139218,109587
139302,109541
139348,109555
139311,109569
139297,109565
139260,109558
139363,109578
139377,109586
139377,109592
139328,109592
139333,109561
139407,109627
139391,109601
139411,109626
139415,109593
139392,109607
139453,109594
139464,109643
139474,109590
139459,109618
139464,109644
139492,109603
139522,109624
139501,109617
139532,109627
139523,109671
139577,109623
139585,109667
139565,109651
139553,109630
139592,109667
139574,109648
139668,109663
139604,109645
139606,109626
139611,109688
139677,109641
139697,109691
139656,109708
139684,109688
139650,109704
139721,109679
139753,109670
139753,109721
139682,109676
139715,109672
139793,109729
139767,109721
139778,109698
139755,109721
139725,109705
139820,109713
139844,109750
139814,109730
139795,109719
139785,109737
139849,109709
139854,109731
139826,109715
139771,109715
139770,109709
139798,109677
139839,109695
139757,109711
139692,109649
139668,109654
139685,109626
139636,109652
139565,109609
139493,109584
139482,109589
139417,109532
139421,109543
139317,109512
139213,109468
139228,109495
139208,109471
139139,109438
139105,109416
139010,109406
138956,109391
138975,109361
138886,109356
138850,109324
138752,109329
138727,109307
138774,109301
138693,109306
138705,109299
138592,109279
138628,109271
138634,109279
138645,109239
138583,109294
138537,109261
138569,109246
138572,109247
138582,109222
138550,109262
138500,109244
138557,109227
138567,109247
138571,109267
138527,109243
138512,109222
138590,109295
138595,109265
138603,109237
138581,109267
138523,109260
138620,109264
138657,109298
138640,109246
138654,109293
138634,109277
138635,109301
138685,109280
138740,109294
138730,109297
138696,109298
138750,109312
138808,109328
138803,109330
138783,109288
138758,109318
138782,109348
138822,109320
138857,109358
138800,109305
138786,109318
138844,109315
138890,109325
138870,109345
138827,109326
138808,109299
138851,109342
138885,109363
138869,109353
138822,109364
138791,109330
138804,109344
138849,109340
138817,109338
138825,109313
138794,109329
138769,109302
138799,109312
138794,109316
138762,109332
138716,109302
138755,109311
138753,109300
138761,109309
138715,109252
138699,109294
138719,109290
138742,109297
138695,109271
138697,109277
138666,109277
138711,109308
138701,109288
138695,109278
138707,109271
138652,109257
138718,109287
138703,109307
138741,109245
138751,109279
138685,109310
138751,109266
138787,109313
138771,109298
138747,109315
138723,109290
138800,109299
138842,109325
138807,109301
138784,109314
138817,109345
138858,109329
138889,109331
138886,109373
138856,109323
138852,109349
138893,109358
138920,109336
138924,109371
138879,109352
138919,109355
138919,109354
138976,109361
138999,109382
138934,109397
138931,109353
138986,109388
139000,109359
139027,109397
139008,109403
138986,109400
139051,109371
139105,109417
139058,109367
139037,109392
139079,109403
139096,109412
139106,109396
139100,109391
139084,109391
139138,109453
139134,109415
139176,109398
139205,109434
139157,109435
139190,109433
139222,109452
139232,109432
139252,109446
139191,109462
139230,109443
139256,109432
139280,109462
139285,109442
139277,109475
139223,109489
139277,109446
139319,109485
139245,109420
139168,109406
139233,109446
139159,109431
139168,109392
139123,109383
138996,109339
139001,109347
138945,109342
138892,109287
138828,109299
138717,109245
138704,109266
138619,109224
138582,109211
138529,109149
138394,109139
138385,109119
138361,109105
138284,109120
138209,109076
138146,109035
138099,109040
138081,109043
138055,109018
138021,109032
137922,109003
137975,108981
137988,108985
137917,108986
137925,108965
137866,108974
137841,108946
137913,108964
137908,108969
137854,108979
137786,108959
137887,108965
137920,108962
137896,108979
137874,108926
137856,108967
137876,108971
137926,108961
137947,108983
137904,108976
137914,108996
137944,109009
138012,109013
137992,109025
137998,108998
138027,109018
138037,108997
138085,109023
138070,109036
138104,109015
138081,109076
138146,109046
138200,109068
138194,109090
138159,109060
138145,109051
138220,109109
138273,109099
138248,109120
138257,109081
138211,109079
138296,109113
138293,109110
138314,109100
138263,109086
138275,109089
138313,109106
138365,109102
138324,109127
138292,109095
138259,109104
138312,109136
138315,109092
138344,109126
138261,109106
138226,109079
138323,109104
138278,109107
138284,109061
138278,109084
138215,109126
138274,109080
138259,109088
138284,109089
138226,109095
138235,109118
138228,109058
138246,109090
138248,109082
138195,109074
138206,109046
138280,109109
138278,109118
138251,109067
138234,109062
138234,109086
138263,109065
138278,109055
138296,109101
138253,109059
138276,109072
138311,109095
138335,109116
138344,109113
138326,109106
138323,109087
138379,109123
138411,109110
138385,109117
138401,109130
138371,109128
138446,109133
138431,109143
138462,109133
138421,109146
138461,109147
138508,109148
138519,109144
138525,109146
138540,109176
138526,109178
138570,109179
138578,109183
138599,109196
138526,109199
138597,109198
138645,109236
138618,109199
138674,109210
138644,109214
138661,109203
138675,109223
138741,109229
138740,109248
138694,109238
138719,109277
138791,109267
138776,109242
138799,109277
138759,109239
138800,109227
138840,109249
138890,109253
138873,109283
138821,109253
138876,109252
138901,109275
138926,109306
138942,109267
138905,109278
138897,109323
138967,109309
138982,109320
138956,109308
138904,109289
138967,109308
139011,109298
138948,109289
138963,109277
138869,109293
138894,109237
138876,109265
138867,109248
138781,109230
138714,109228
138702,109186
138655,109176
138599,109174
138540,109122
138438,109124
138372,109095
138323,109052
138296,109047
138185,109011
138121,108986
138096,109021
138057,108970
138020,108938
137969,108947
137847,108931
137831,108883
137817,108891
137797,108892
137769,108855
137681,108869
137668,108873
137702,108867
137636,108853
137645,108856
137566,108848
137645,108843
137650,108865
137613,108818
137652,108832
137572,108854
137625,108860
137680,108827
137665,108818
137701,108845
137653,108868
137683,108839
137721,108864
137711,108861
137726,108866
137721,108900
137768,108863
137788,108903
137817,108907
137801,108883
137800,108919
137865,108954
137885,108954
137928,108921
137928,108913
137945,108954
137971,108984
138020,108971
138045,108965
138043,108999
138040,109003
138078,109010
138139,108987
138139,109040
138084,109002
138108,108985
138151,109050
138151,109014
138148,109049
138137,108990
138157,109024
138183,109030
138217,109030
138175,109042
138163,109017
138114,108994
138187,109035
138142,109014
138165,109013
138127,108984
138092,109006
138118,108977
138123,108978
138133,108986
138069,108979
138025,109003
138063,108959
138123,108973
138050,109002
138005,108970
138042,108981
138035,108971
138051,108981
138055,109004
138008,108954
137978,108983
138054,108984
138023,108993
138064,108986
138025,108979
138042,108957
138068,108987
138086,108970
138083,108989
138051,108965
138113,109011
138097,108988
138130,108995
138131,109022
138114,109005
138126,109014
138187,109006
138211,109006
138227,109043
138185,109021
138166,109048
138231,109006
138291,109033
138257,109064
138263,109072
138276,109070
138323,109071
138343,109072
138313,109076
138290,109066
138315,109089
138375,109108
138393,109076
138376,109087
138347,109056
138432,109110
138462,109131
138460,109114
138469,109146
138411,109091
138513,109121
138532,109164
138574,109149
138543,109153
138536,109148
138542,109179
138601,109128
138654,109184
138631,109178
138604,109170
138661,109193
138676,109197
138689,109165
138685,109187
138667,109206
138696,109194
138731,109215
138709,109185
138777,109220
138711,109218
138750,109183
138754,109207
138818,109244
138791,109197
138774,109197
138772,109221
138839,109249
138758,109201
138781,109200
138721,109214
138685,109144
138698,109175
138613,109155
138571,109113
138522,109107
138469,109101
138461,109062
138363,109061
138307,109030
138190,108995
138184,108990
138146,108985
138051,108933
138000,108899
137850,108896
137830,108871
137802,108874
137721,108793
137707,108834
137568,108817
137575,108777
137589,108765
137469,108776
137427,108713
137408,108705
137385,108743
137399,108730
137370,108702
137328,108710
137268,108706
137300,108688
137303,108731
137273,108716
137244,108686
137251,108684
137246,108684
137304,108700
137279,108703
137247,108685
137267,108707
137307,108699
137319,108689
137351,108745
137315,108700
137296,108724
137356,108744
137374,108716
137422,108717
137391,108767
137405,108756
137506,108755
137507,108771
137534,108764
137520,108779
137499,108812
137572,108773
137591,108784
137561,108812
137583,108808
137555,108790
137634,108811
137666,108817
137637,108846
137633,108822
137589,108822
137690,108826
137679,108840
137634,108832
137601,108833
137597,108807
137696,108808
137637,108838
137664,108780
137588,108816
137551,108797
137618,108830
137569,108778
137582,108769
137541,108798
137509,108748
137509,108752
137526,108750
137495,108766
137405,108730
137415,108777
137453,108742
137443,108749
137417,108722
137387,108724
137355,108742
137399,108694
137409,108712
137396,108699
137320,108701
137371,108682
137376,108746
137368,108712
137406,108708
137365,108711
137385,108748
137389,108732
137391,108685
137431,108742
137392,108723
137384,108742
137440,108742
137442,108773
137444,108709
137411,108740
137423,108717
137478,108732
137472,108750
137479,108731
137485,108741
137437,108782
137488,108753
137530,108768
137475,108757
137430,108747
137529,108755
137537,108791
137571,108786
137543,108762
137511,108778
137532,108762
137596,108766
137614,108789
137598,108757
137585,108779
137600,108808
137655,108822
137638,108780
137656,108812
137609,108794
137657,108790
137679,108803
137715,108802
137668,108840
137647,108797
137697,108825
137746,108830
137732,108830
137670,108820
137652,108805
137738,108833
137792,108862
137788,108809
137786,108833
137696,108832
137780,108840
137824,108868
137859,108869
137788,108869
137779,108827
137846,108897
137867,108869
137871,108862
137893,108870
137816,108853
137858,108852
137891,108875
137838,108817
137840,108860
137796,108813
137758,108858
137726,108824
137668,108825
137577,108760
137528,108741
137528,108731
137457,108688
137365,108683
137234,108648
137117,108591
137138,108590
137073,108563
136935,108553
136833,108492
136750,108463
136728,108490
136654,108424
136580,108407
136528,108412
136413,108348
136416,108369
136348,108336
136320,108309
136276,108316
136198,108300
136182,108313
136192,108274
136144,108273
136121,108274
136091,108278
136126,108247
136102,108253
136121,108276
136076,108233
136060,108236
136121,108257
136138,108257
136100,108260
136133,108249
136077,108257
136159,108257
136159,108279
136200,108260
136171,108270
136152,108264
136265,108315
136262,108328
136278,108280
136275,108308
136261,108318
136330,108299
136403,108350
136387,108357
136387,108361
136399,108383
136470,108360
136536,108380
136510,108410
136490,108373
136537,108386
136586,108426
136599,108397
136627,108429
136621,108416
136585,108403
136654,108421
136709,108451
136649,108456
136636,108422
136631,108456
136715,108439
136695,108447
136700,108419
136635,108461
136621,108407
136701,108465
136670,108433
136664,108436
136558,108401
136600,108391
136605,108418
136636,108409
136610,108417
136527,108384
136558,108381
136598,108375
136561,108402
136550,108399
136516,108371
136501,108406
136565,108373
136545,108392
136566,108367
136456,108364
136476,108379
136554,108382
136574,108379
136521,108415
136465,108358
136526,108382
136541,108364
136562,108378
136526,108386
136501,108349
136541,108390
136562,108404
136562,108368
136549,108402
136478,108367
136553,108422
136546,108403
136599,108374
136598,108383
136569,108392
136584,108417
136621,108429
136657,108391
136655,108421
136626,108425
136690,108461
136711,108456
136734,108447
136728,108422
136702,108426
136732,108454
136780,108467
136819,108440
136833,108446
136788,108481
136823,108462
136867,108518
136881,108479
136908,108498
136839,108515
136900,108486
136974,108515
136970,108524
136918,108513
136915,108517
137001,108554
137003,108536
137043,108542
137014,108565
137007,108550
137052,108568
137104,108565
137089,108520
137124,108585
137123,108588
137123,108578
137173,108603
137187,108608
137182,108583
137181,108618
137236,108638
137273,108638
137254,108654
137257,108602
137226,108606
137264,108640
137270,108623
137266,108606
137228,108625
137126,108606
137149,108549
137128,108592
137045,108532
137000,108502
136864,108477
136867,108450
136815,108462
136664,108400
136561,108390
136446,108345
136437,108329
136385,108305
136208,108269
136144,108249
136034,108206
136016,108180
135911,108205
135859,108092
135775,108111
135649,108092
135654,108044
135598,108043
135518,108051
135449,107992
135445,107956
135417,107989
135444,108000
135379,107939
135324,107938
135269,107922
135305,107930
135288,107920
135274,107925
135247,107945
135180,107912
135272,107933
135281,107944
135271,107926
135253,107916
135256,107899
135348,107943
135340,107973
135336,107916
135351,107904
135320,107965
135354,107939
135448,107945
135419,107993
135397,107979
135443,107957
135517,108019
135549,108012
135545,108007
135536,107985
135569,108049
135617,108037
135672,108044
135659,108050
135635,108061
135662,108052
135729,108102
135718,108084
135750,108074
135699,108052
135740,108083
135771,108109
135774,108083
135805,108100
135769,108099
135794,108074
135841,108107
135816,108126
135834,108089
135768,108121
135759,108109
135834,108114
135807,108122
135791,108082
135742,108093
135695,108066
135697,108079
135723,108064
135703,108059
135598,108071
135619,108031
135634,108025
135575,108054
135545,107963
135489,107967
135476,107982
135488,107962
135465,107975
135451,107943
135390,107959
135389,107936
135427,107964
135433,107964
135391,107938
135344,107932
135375,107947
135402,107933
135453,107941
135384,107938
135397,107952
135394,107953
135449,107958
135447,107973
135421,107945
135395,107931
135449,107945
135479,107962
135535,107982
135486,107996
135460,107982
135511,107981
135558,108003
135600,107972
135594,108014
135536,107999
135593,108009
135692,108057
135676,108044
135689,108011
135689,108035
135700,108082
135782,108046
135820,108081
135800,108044
135792,108087
135821,108114
135888,108107
135882,108136
135913,108124
135871,108158
135944,108110
136019,108131
136002,108132
136020,108169
135961,108178
136057,108173
136065,108189
136079,108204
136058,108153
136077,108167
136152,108214
136181,108242
136189,108244
136168,108225
136186,108197
136246,108285
136281,108247
136280,108273
136242,108276
136259,108237
136324,108299
136354,108284
136347,108270
136361,108286
136304,108268
136382,108319
136357,108299
136324,108265
136287,108282
136225,108241
136208,108277
136174,108215
136135,108209
136062,108167
135955,108186
135928,108129
135870,108101
135779,108062
135647,108046
135497,108018
135460,107965
135398,107946
135275,107915
135159,107887
135021,107833
135028,107832
134938,107802
134803,107745
134721,107718
134634,107721
134589,107685
134532,107626
134465,107616
134371,107615
134335,107578
134337,107602
134264,107558
134261,107532
134162,107503
134146,107501
134149,107513
134150,107503
134157,107522
134060,107512
134090,107493
134101,107513
134144,107492
134111,107504
134088,107465
134169,107530
134228,107547
134203,107525
134234,107543
134243,107515
134229,107570
134275,107550
134376,107610
134327,107541
134338,107577
134387,107596
134459,107636
134486,107652
134517,107621
134527,107640
134561,107678
134645,107701
134639,107685
134666,107674
134655,107693
134714,107735
134747,107710
134767,107704
134762,107727
134713,107707
134715,107731
134764,107753
134811,107727
134789,107742
134756,107738
134740,107721
134785,107743
134800,107716
134841,107764
134749,107719
134756,107717
134799,107742
134755,107756
134806,107729
134723,107758
134741,107763
134742,107721
134748,107711
134732,107714
134649,107715
134667,107719
134717,107725
134656,107724
134678,107699
134625,107708
134614,107737
134688,107726
134663,107696
134682,107707
134610,107712
134612,107717
134658,107713
134711,107715
134673,107752
134598,107710
134684,107713
134707,107727
134683,107722
134681,107700
134688,107709
134655,107765
134698,107728
134696,107757
134691,107741
134648,107730
134762,107774
134750,107748
134760,107757
134759,107778
134767,107782
134824,107793
134849,107790
134888,107811
134890,107823
134890,107837
134950,107848
135001,107851
135012,107857
135042,107869
135035,107871
135097,107910
135143,107904
135128,107914
135179,107909
135132,107914
135211,107935
135246,107939
135237,107943
135280,107989
135246,107959
135280,107966
135355,107993
135371,108008
135313,107981
135375,107995
135413,108036
135420,108049
135449,108021
135465,108035
135396,108039
135441,108027
135505,108009
135532,108074
135510,108030
135458,108050
135503,108039
135593,108035
135581,108092
135573,108062
135567,108071
135644,108089
135682,108115
135656,108081
135664,108092
135676,108084
135713,108103
135737,108130
135665,108071
135617,108097
135560,108094
135576,108055
135561,108087
135478,108040
135401,107993
135313,107976
135265,107995
135166,107925
135103,107905
134958,107857
134827,107806
134800,107787
134677,107773
134489,107674
134383,107667
134251,107629
134173,107583
134092,107513
133953,107527
133816,107453
133731,107428
133678,107411
133605,107383
133470,107298
133378,107321
133312,107272
133274,107249
133213,107264
133153,107224
133119,107218
133041,107195
133070,107169
133059,107181
133024,107125
132975,107143
132948,107143
132962,107137
133031,107146
132975,107128
132954,107139
132966,107129
133008,107178
133018,107175
133066,107155
133042,107153
133068,107184
133185,107229
133193,107267
133255,107235
133248,107244
133314,107291
133395,107314
133436,107312
133490,107322
133486,107328
133497,107367
133615,107403
133648,107414
133686,107380
133678,107409
133725,107457
133780,107448
133858,107464
133834,107487
133844,107495
133926,107508
133966,107535
133970,107507
133986,107498
133986,107522
134031,107562
134064,107550
134023,107545
134047,107554
133982,107547
134005,107554
134062,107546
134049,107572
134036,107568
133980,107525
134002,107536
134014,107552
133982,107518
134004,107516
133927,107529
133909,107498
133939,107496
133936,107485
133906,107496
133821,107502
133820,107463
133887,107516
133863,107492
133845,107459
133783,107496
133788,107467
133844,107460
133827,107501
133795,107509
133753,107473
133867,107508
133869,107516
133906,107479
133884,107512
133849,107489
133936,107527
133938,107529
133984,107543
133932,107537
133933,107546
134008,107579
134030,107577
134070,107564
134043,107600
134015,107553
134076,107569
134130,107614
134147,107612
134151,107606
134094,107635
134172,107592
134243,107633
134238,107637
134207,107654
134224,107622
134303,107697
134289,107642
134329,107657
134327,107668
134295,107690
134365,107697
134412,107714
134453,107714
134442,107695
134463,107710
134512,107743
134623,107775
134592,107757
134622,107767
134589,107789
134655,107838
134708,107815
134775,107876
134779,107831
134802,107862
134897,107917
134941,107915
134937,107916
134951,107907
135009,107955
135054,107950
135139,107968
135133,107994
135125,107967
135165,107994
135211,108024
135256,108025
135301,108013
135286,108004
135323,108009
135390,108058
135451,108126
135412,108062
135453,108087
135424,108103
135474,108088
135490,108112
135426,108041
135415,108050
135337,108063
135364,108049
135296,108053
135238,107988
135125,108004
134998,107939
135020,107915
134916,107893
134790,107860
134666,107803
134582,107812
134499,107741
134435,107718
134317,107659
134198,107648
134066,107629
134047,107577
133979,107580
133854,107516
133742,107503
133663,107528
133610,107449
133555,107399
133495,107425
133409,107350
133327,107377
133347,107352
133313,107373
133257,107297
133214,107279
133150,107330
133190,107306
133191,107320
133166,107313
133143,107289
133167,107330
133236,107343
133230,107341
133246,107304
133234,107302
133229,107366
133319,107359
133379,107350
133404,107377
133321,107375
133428,107367
133504,107443
133541,107424
133554,107439
133528,107450
133611,107511
133655,107483
133732,107479
133736,107525
133723,107511
133798,107556
133844,107528
133920,107559
133908,107534
133913,107570
133944,107612
134017,107595
134060,107632
134052,107603
134035,107584
134113,107636
134170,107648
134201,107668
134151,107673
134110,107649
134222,107662
134238,107697
134246,107693
134211,107683
134176,107634
134244,107693
134231,107673
134254,107675
134197,107673
134195,107696
134195,107673
134245,107670
134194,107690
134158,107641
134090,107649
134148,107666
134117,107649
134140,107640
134096,107633
134041,107577
134045,107643
134071,107625
134060,107591
134025,107588
134014,107596
134058,107617
134058,107612
134093,107618
134047,107633
133973,107596
134050,107608
134044,107604
134098,107598
134022,107579
134004,107614
134031,107588
134085,107600
134077,107616
134100,107591
134011,107598
134062,107629
134122,107638
134146,107643
134141,107625
134087,107660
134153,107639
134189,107663
134227,107661
134221,107654
134150,107651
134295,107676
134291,107711
134276,107685
134280,107675
134347,107708
134384,107743
134453,107746
134442,107762
134501,107768
134513,107785
134583,107789
134633,107835
134674,107811
134679,107820
134656,107820
134771,107855
134833,107889
134819,107886
134832,107882
134838,107888
134901,107922
134893,107890
134973,107892
134933,107903
134947,107913
134985,107930
135005,107919
135085,107948
135026,107967
134999,107956
135070,107971
135161,107958
135148,108001
135149,107968
135198,107987
135272,108016
135283,108030
135341,108047
135334,108017
135353,108046
135387,108078
135472,108069
135503,108081
135467,108085
135510,108108
135553,108138
135573,108119
135551,108132
135523,108093
135491,108103
135542,108080
135503,108113
135435,108043
135302,108062
135268,108013
135253,108015
135146,107971
135061,107911
134906,107909
134834,107883
134740,107820
134622,107806
134502,107709
134347,107665
134237,107629
134141,107587
134036,107529
133876,107537
133685,107462
133603,107387
133522,107373
133407,107327
133278,107303
133181,107248
133090,107241
133068,107229
133050,107192
132959,107160
132895,107165
132897,107174
132881,107154
132927,107159
132898,107154
132842,107164
132893,107157
132894,107162
132938,107193
132918,107169
132876,107155
132908,107180
132963,107186
132993,107201
132987,107204
132987,107198
132999,107241
133078,107239
133121,107231
133141,107245
133145,107285
133172,107254
133243,107302
133286,107292
133293,107291
133326,107328
133343,107322
133456,107356
133497,107378
133531,107386
133479,107403
133578,107395
133643,107443
133669,107472
133701,107450
133686,107497
133772,107475
133859,107535
133875,107509
133879,107528
133824,107524
133932,107543
133934,107544
133957,107560
133907,107530
133865,107497
133949,107560
133908,107545
133908,107546
133873,107524
133768,107484
133841,107507
133802,107498
133815,107518
133763,107455
133725,107442
133742,107483
133776,107456
133781,107478
133710,107471
133749,107477
133753,107472
133795,107503
133783,107471
133757,107450
133708,107498
133766,107445
133771,107481
133749,107484
133704,107482
133688,107485
133745,107453
133767,107488
133781,107480
133747,107504
133700,107469
133807,107484
133856,107507
133817,107496
133829,107487
133864,107527
133915,107529
133974,107566
134021,107557
133994,107562
133976,107574
134087,107611
134137,107615
134171,107615
134187,107638
134182,107620
134261,107654
134342,107671
134345,107696
134336,107696
134336,107684
134463,107744
134500,107731
134554,107756
134522,107769
134551,107772
134624,107774
134655,107802
134653,107783
134687,107791
134669,107819
134760,107819
134800,107818
134777,107825
134790,107821
134765,107863
134850,107861
134890,107868
134926,107862
134874,107855
134929,107908
134955,107917
135013,107882
135044,107915
135006,107915
135008,107927
135089,107932
135153,107924
135140,107981
135086,107939
135136,107944
135219,107980
135199,107989
135246,107971
135211,107989
135212,107993
135256,108001
135324,108004
135333,108012
135272,108002
135320,108028
135388,108048
135418,108033
135426,108046
135359,108037
135397,108053
135472,108075
135514,108045
135506,108078
135499,108051
135464,108049
135535,108073
135500,108060
135436,108034
135368,108011
135309,108033
135288,107995
135251,107925
135119,107913
135009,107884
134943,107889
134857,107829
134811,107799
134664,107770
134539,107710
134435,107685
134417,107678
134320,107652
134211,107595
134075,107537
134012,107526
133964,107493
133892,107476
133830,107421
133705,107423
133635,107393
133659,107375
133590,107368
133551,107355
133435,107348
133429,107283
133447,107311
133420,107343
133385,107323
133335,107280
133334,107306
133366,107287
133418,107305
133380,107301
133358,107274
133428,107307
133422,107337
133473,107311
133526,107336
133442,107337
133497,107341
133587,107371
133583,107344
133595,107357
133543,107404
133630,107369
133688,107385
133666,107390
133698,107391
133703,107417
133752,107443
133838,107442
133853,107457
133808,107428
133830,107464
133848,107452
133938,107464
133933,107475
133924,107490
133965,107513
134012,107506
134045,107546
134079,107526
134060,107530
134064,107511
134081,107544
134154,107525
134150,107598
134099,107564
134073,107588
134154,107583
134166,107569
134198,107558
134179,107595
134073,107562
134172,107581
134163,107595
134189,107576
134142,107579
134074,107546
134178,107597
134162,107544
134159,107569
134109,107548
134141,107569
134163,107582
134215,107596
134172,107592
134175,107568
134135,107596
134213,107585
134259,107594
134283,107614
134264,107605
134241,107646
134309,107635
134382,107644
134371,107674
134390,107643
134404,107665
134477,107698
134535,107707
134523,107690
134541,107702
134550,107726
134605,107713
134701,107753
134678,107759
134707,107764
134723,107792
134811,107804
134844,107825
134914,107824
134878,107837
134946,107860
135028,107866
135064,107915
135108,107897
135068,107894
135110,107922
135149,107970
135239,107912
135259,107975
135233,107958
135258,107959
135332,107991
135333,108014
135352,107965
135390,108004
135370,108042
135437,108038
135522,108032
135530,108068
135481,108047
135527,108059
135581,108093
135675,108108
135642,108121
135670,108084
135647,108135
135747,108118
135749,108114
135781,108166
135770,108156
135829,108204
135843,108182
135912,108171
135925,108185
135867,108176
135951,108229
135993,108216
136036,108198
135987,108232
136000,108222
136052,108215
136128,108264
136097,108279
136124,108240
136130,108269
136178,108310
136217,108299
136258,108303
136230,108323
136249,108333
136272,108308
136370,108342
136364,108307
136362,108324
136355,108335
136402,108361
136472,108348
136443,108386
136454,108369
136331,108364
136388,108336
136449,108343
136398,108347
136346,108331
136212,108267
136240,108316
136198,108269
136175,108233
136070,108227
135953,108177
135908,108143
135871,108153
135826,108116
135695,108076
135561,108039
135543,108055
135465,108015
135441,107986
135332,107972
135190,107894
135148,107912
135153,107860
135075,107825
134986,107816
134862,107806
134828,107765
134824,107782
134768,107751
134710,107740
134637,107679
134674,107741
134643,107716
134637,107709
134591,107688
134560,107655
134593,107680
134616,107674
134623,107665
134567,107677
134558,107675
134636,107680
134642,107695
134621,107663
134636,107671
134625,107664
134659,107699
134741,107722
134722,107705
134736,107707
134734,107758
134808,107746
134852,107774
134892,107783
134896,107802
134841,107751
134952,107803
135012,107816
135027,107812
135003,107799
135051,107833
135100,107869
135132,107837
135165,107872
135159,107893
135155,107849
135238,107886
135290,107896
135284,107896
135300,107863
135268,107931
135325,107939
135352,107917
135362,107950
135311,107898
135314,107926
135377,107947
135364,107931
135386,107920
135404,107928
135333,107931
135406,107968
135386,107949
135397,107912
135364,107907
135336,107949
135400,107920
135388,107908
135387,107932
135339,107942
135341,107910
135402,107954
135411,107937
135442,107943
135355,107925
135386,107938
135485,107964
135464,107945
135494,107969
135440,107945
135421,107943
135523,107977
135523,107959
135510,107977
135503,107967
135517,107975
135562,108007
135649,107995
135621,107987
135590,107971
135612,108011
135721,108025
135704,108040
135723,108048
135712,108034
135761,108037
135843,108077
135839,108066
135855,108098
135810,108064
135853,108129
135901,108109
135998,108123
136006,108112
135966,108123
136026,108148
136064,108162
136081,108150
136130,108176
136103,108157
136110,108176
136201,108172
136243,108218
136283,108214
136236,108213
136275,108237
136315,108243
136415,108259
136394,108271
136375,108262
136408,108294
136409,108287
136476,108257
136463,108279
136462,108262
136479,108295
136511,108311
136574,108291
136551,108303
136514,108307
136513,108303
136578,108311
136627,108335
136593,108348
136605,108340
136612,108350
136654,108340
136735,108378
136716,108384
136675,108364
136748,108401
136802,108422
136830,108387
136845,108434
136810,108442
136866,108425
136932,108454
136979,108467
137002,108464
136971,108457
137015,108512
137036,108482
137137,108545
137116,108523
137040,108524
137144,108521
137139,108547
137148,108522
137127,108527
136995,108513
137018,108495
137053,108472
136976,108454
136903,108441
136807,108401
136788,108413
136759,108418
136715,108331
136580,108309
136489,108275
136439,108284
136403,108243
136361,108258
136252,108231
136133,108212
136148,108197
136101,108152
136073,108156
135962,108125
135895,108081
135949,108140
135900,108100
135880,108075
135788,108056
135770,108049
135773,108083
135776,108075
135758,108044
135748,108039
135641,108027
135713,108031
135762,108033
135715,108001
135700,107999
135632,108036
135745,108032
135739,108053
135767,108011
135731,108023
135695,107983
135781,108033
135832,108038
135776,108029
135805,108024
135788,108035
135852,108065
135873,108076
135896,108048
135871,108065
135832,108065
135899,108088
135998,108098
135967,108086
135952,108063
135994,108138
136024,108099
136060,108141
136085,108127
136114,108124
136073,108124
136172,108150
136142,108181
136183,108171
136140,108147
136082,108157
136177,108137
136200,108190
136178,108149
136127,108153
136185,108176
136195,108186
136181,108137
136221,108163
136133,108172
136110,108123
136168,108163
136216,108162
136147,108184
136116,108121
136134,108166
136146,108156
136163,108170
136125,108156
136082,108117
136067,108123
136170,108161
136171,108141
136119,108161
136075,108116
136100,108144
136131,108144
136171,108132
136160,108137
136119,108136
136118,108109
136202,108139
136199,108172
136181,108141
136148,108126
136138,108140
136234,108149
136252,108215
136228,108151
136232,108139
136225,108215
136291,108176
136318,108158
136333,108196
136285,108168
136313,108178
136399,108207
136405,108226
136401,108230
136364,108197
136427,108232
136465,108232
136508,108225
136468,108247
136472,108214
136479,108279
136526,108273
136579,108248
136561,108259
136575,108265
136555,108299
136613,108270
136692,108306
136649,108285
136627,108297
136642,108321
136697,108322
136737,108311
136723,108332
136689,108295
136725,108361
136779,108326
136827,108323
136806,108331
136745,108308
136839,108341
136861,108389
136880,108321
136871,108355
136820,108352
136871,108370
136946,108369
136982,108387
136981,108400
136911,108390
136978,108411
137023,108404
137028,108406
137047,108421
136970,108404
137043,108433
137121,108429
137063,108445
137103,108452
137054,108447
137107,108484
137185,108448
137162,108455
137184,108476
137131,108445
137156,108470
137248,108505
137271,108485
137235,108500
137231,108490
137257,108497
137282,108517
137337,108506
137294,108517
137243,108469
137275,108505
137285,108488
137254,108494
137176,108470
137134,108428
137146,108457
137104,108436
137044,108402
136978,108383
136892,108362
136878,108341
136826,108349
136747,108308
136652,108279
136546,108188
136519,108250
136532,108208
136403,108175
136318,108132
136241,108115
136244,108112
136184,108123
136108,108067
136056,108045
135959,108042
135957,108037
135961,107987
135935,107989
135857,107991
135774,107948
135824,107997
135812,107983
135794,107928
135758,107936
135731,107946
135765,107962
135815,107949
135840,107958
135756,107958
135742,107930
135840,107959
135864,107953
135833,107958
135827,107997
135795,107925
135876,107975
135974,107988
135909,108001
135884,107956
135884,108008
135952,108006
135980,107991
136042,108013
136017,108028
135997,108012
136102,108038
136158,108088
136119,108063
136131,108060
136149,108063
136208,108080
136241,108129
136242,108076
136253,108089
136218,108136
136281,108124
136323,108125
136345,108127
136311,108151
136260,108091
136370,108163
136387,108161
136346,108128
136278,108101
136324,108120
136339,108130
136387,108157
136335,108128
136301,108120
136314,108099
136379,108134
136364,108125
136317,108135
136319,108115
136281,108110
136329,108117
136362,108109
136308,108129
136223,108064
136302,108091
136287,108120
136298,108101
136309,108117
136229,108076
136296,108087
136349,108128
136368,108093
136342,108115
136261,108112
136301,108103
136381,108120
136372,108112
136349,108135
136317,108091
136343,108117
136407,108122
136424,108163
136400,108109
136366,108130
136402,108124
136480,108154
136435,108157
136425,108128
136425,108113
136431,108173
136502,108180
136505,108149
136535,108174
136462,108167
136527,108173
136594,108183
136598,108204
136607,108200
136511,108165
136636,108216
136672,108254
136684,108209
136670,108228
136647,108232
136684,108251
136739,108219
136773,108260
136740,108240
136754,108228
136749,108258
136843,108275
136873,108287
136857,108295
136841,108288
136888,108295
136912,108294
136990,108308
136930,108331
136864,108283
136981,108312
136997,108337
137027,108333
136987,108329
136967,108352
137046,108333
137096,108336
137075,108360
137103,108357
137038,108356
137106,108366
137172,108382
137161,108351
137143,108366
137151,108381
137176,108400
137214,108414
137243,108412
137260,108413
137200,108417
137279,108424
137317,108443
137349,108442
137319,108442
137269,108430
137366,108467
137382,108496
137377,108444
137335,108446
137334,108453
137370,108441
137345,108453
137331,108410
137313,108422
137171,108425
137226,108406
137200,108387
137153,108350
137089,108351
136937,108286
136960,108320
136917,108274
136852,108246
136750,108235
136610,108191
136615,108193
136603,108128
136527,108143
136413,108107
136333,108065
136340,108082
136312,108068
136222,108074
136146,108018
136038,107981
136061,108002
136051,107974
136049,107972
135960,107975
135929,107918
135944,107970
135940,107965
135921,107921
135928,107922
135868,107926
135946,107957
135970,107937
135941,107949
135926,107964
135928,107931
136016,107964
136027,107976
136035,107994
135993,107933
136032,108001
136091,107995
136090,107988
136141,107973
136082,108012
136091,107982
136184,108022
136238,108009
136255,108039
136197,108022
136218,108066
136281,108062
136314,108048
136357,108048
136333,108073
136350,108074
136392,108122
136421,108099
136458,108101
136385,108141
136445,108095
136480,108121
136534,108110
136509,108128
136431,108097
136481,108130
136497,108125
136550,108122
136501,108139
136431,108086
136478,108145
136533,108125
136553,108082
136527,108138
136458,108083
136460,108131
136515,108115
136491,108127
136457,108104
136434,108076
136419,108100
136480,108122
136485,108105
136461,108089
136384,108090
136403,108103
136450,108112
136488,108115
136439,108095
136415,108062
136433,108105
136463,108103
136507,108100
136442,108105
136410,108070
136457,108120
136508,108101
136566,108116
136536,108133
136514,108114
136555,108167
136588,108145
136647,108127
136607,108149
136597,108145
136653,108143
136655,108173
136718,108183
136733,108175
136679,108151
136725,108187
136779,108215
136792,108192
136802,108183
136772,108203
136814,108253
136851,108235
136891,108237
136884,108253
136823,108202
136914,108277
136922,108243
136971,108241
136985,108259
136900,108245
136995,108255
137047,108292
137078,108286
137075,108310
137036,108303
137117,108326
137136,108341
137141,108291
137161,108348
137120,108312
137207,108337
137203,108382
137230,108322
137261,108369
137205,108339
137261,108382
137355,108375
137320,108383
137302,108364
137331,108389
137382,108400
137430,108393
137446,108431
137413,108451
137386,108373
137475,108437
137523,108438
137516,108455
137440,108452
137482,108415
137503,108471
137536,108450
137532,108437
137452,108426
137362,108426
137454,108435
137403,108395
137384,108399
137307,108368
137197,108370
137209,108362
137188,108311
137150,108286
137039,108290
136919,108250
136929,108251
136881,108200
136833,108200
136693,108177
136602,108129
136615,108125
136569,108094
136526,108094
136418,108084
136334,108007
136380,108049
136345,108027
136293,108006
136234,107979
136156,108004
136194,107987
136224,108005
136221,108001
136154,107985
136117,107971
136161,107961
136221,107993
136171,107973
136180,107980
136126,107991
136187,108014
136231,107956
136262,108023
136212,108010
136211,107981
136292,108014
136307,108045
136282,107998
136283,107994
136311,108035
136329,108041
136405,108051
136425,108047
136345,108046
136387,108056
136482,108102
136514,108065
136550,108082
136479,108103
136504,108111
136639,108112
136648,108130
136656,108128
136634,108125
136626,108153
136652,108148
136729,108124
136694,108138
136689,108137
136669,108130
136761,108134
136739,108194
136715,108134
136697,108118
136700,108163
136763,108164
136764,108165
136774,108145
136685,108152
136707,108117
136742,108174
136726,108110
136726,108118
136656,108124
136646,108138
136740,108163
136704,108107
136678,108153
136624,108097
136633,108115
136706,108178
136677,108119
136634,108130
136551,108126
136571,108089
136683,108098
136620,108124
136636,108118
136595,108108
136609,108089
136597,108109
136650,108082
136613,108122
136574,108079
136608,108095
136695,108138
136645,108128
136614,108078
136644,108123
136641,108127
136713,108139
136741,108143
136707,108167
136658,108100
136756,108157
136774,108176
136758,108177
136731,108132
136773,108191
136775,108151
136848,108168
136835,108191
136842,108186
136830,108183
136838,108235
136888,108174
136926,108222
136909,108182
136876,108188
136924,108236
136945,108187
137013,108212
136952,108218
136892,108199
136935,108212
137015,108220
137069,108247
137051,108260
137002,108216
137055,108229
137095,108246
137093,108251
137084,108236
137080,108246
137113,108265
137167,108261
137188,108286
137208,108275
137130,108298
137195,108292
137290,108336
137315,108314
137284,108286
137276,108302
137321,108361
137375,108332
137386,108377
137315,108325
137327,108332
137391,108337
137351,108342
137326,108317
137275,108304
137228,108314
137208,108310
137160,108286
137112,108221
137038,108180
136920,108181
136929,108196
136893,108164
136817,108132
136700,108113
136615,108048
136582,108058
136561,108058
136456,108011
136406,107983
136261,107947
136307,107957
136251,107939
136192,107926
136112,107891
136014,107868
136068,107871
136043,107872
135990,107859
135914,107821
135899,107841
135924,107804
135989,107854
135922,107830
135898,107794
135853,107810
135958,107834
135963,107839
135974,107838
135907,107836
135892,107820
135992,107839
136029,107843
136040,107856
135946,107839
136008,107846
136088,107882
136093,107864
136071,107876
136070,107880
136086,107905
136168,107930
136160,107930
136172,107913
136208,107914
136192,107935
136279,107986
136307,107944
136314,107936
136318,107954
136335,107975
136413,107999
136421,107992
136435,107993
136422,107982
136368,107981
136494,108025
136535,108025
136485,107999
136466,107992
136490,108006
136515,108018
136567,108041
136518,108008
136472,108017
136496,108040
136549,108021
136539,108027
136515,108017
136461,108000
136460,108007
136472,108016
136506,108030
136475,108003
136423,107992
136394,107988
136502,108014
136465,108001
136442,107980
136368,107947
136412,107988
136425,107994
136438,107955
136423,107994
136360,107931
136421,108000
136409,107987
136458,107988
136415,107989
136353,107940
136376,107973
136447,107971
136452,108010
136441,107979
136412,107963
136468,108010
136486,107984
136531,108023
136518,107992
136438,107975
136518,107997
136573,108033
136600,108007
136552,108029
136513,108007
136615,108058
136629,108083
136660,108054
136664,108049
136605,108044
136642,108075
136741,108080
136704,108089
136738,108087
136658,108051
136747,108092
136782,108132
136803,108096
136794,108091
136725,108096
136776,108099
136884,108135
136855,108096
136882,108134
136822,108107
136888,108154
136903,108172
136920,108154
136942,108140
136905,108173
136957,108154
137028,108184
137034,108168
137034,108185
136994,108187
137019,108187
137074,108229
137092,108184
137087,108206
137025,108190
137122,108258
137179,108229
137158,108235
137172,108237
137113,108226
137139,108241
137190,108244
137199,108229
137102,108211
137096,108204
137083,108191
137068,108197
137073,108166
136923,108117
136882,108139
136845,108131
136833,108120
136747,108061
136635,108035
136526,108004
136512,107991
136505,107984
136376,107940
136287,107885
136138,107875
136167,107865
136123,107851
135995,107799
135939,107762
135799,107744
135824,107752
135825,107723
135732,107688
135680,107687
135546,107662
135614,107670
135628,107659
135553,107645
135514,107606
135486,107613
135511,107647
135540,107616
135479,107604
135443,107609
135453,107588
135436,107575
135497,107631
135470,107603
135417,107588
135421,107584
135479,107603
135523,107599
135484,107605
135459,107593
135487,107603
135576,107633
135573,107628
135608,107655
135558,107635
135548,107623
135665,107657
135676,107648
135668,107666
135661,107655
135652,107655
135713,107697
135790,107682
135740,107671
135761,107682
135739,107679
135848,107727
135867,107708
135799,107698
135832,107719
135841,107695
135889,107732
135906,107733
135895,107720
135860,107705
135895,107719
135926,107729
135947,107738
135909,107743
135899,107738
135905,107739
135931,107754
135998,107743
135955,107729
135903,107739
135952,107748
135984,107748
135979,107743
135987,107756
135916,107708
135950,107733
136016,107757
135990,107735
135991,107729
135956,107755
135964,107735
136066,107789
136076,107765
136018,107774
136020,107754
136035,107795
136122,107815
136139,107807
136079,107801
136117,107799
136108,107802
136162,107817
136185,107827
136179,107804
136160,107822
136191,107833
136254,107820
136303,107853
136299,107861
136260,107842
136297,107852
136378,107866
136378,107882
136383,107879
136367,107887
136358,107885
136476,107939
136502,107914
136451,107928
136456,107923
136469,107933
136571,107963
136598,107972
136589,107925
136564,107939
136602,107968
136645,107989
136633,107971
136696,107987
136634,108006
136702,108005
136771,108006
136777,108036
136771,108034
136709,108022
136795,108040
136859,108056
136887,108033
136881,108068
136784,108024
136879,108038
136937,108060
136945,108062
136963,108083
136870,108074
136979,108071
137024,108083
137059,108104
136992,108133
136963,108105
137050,108123
137086,108127
137109,108142
137080,108158
137077,108118
137096,108139
137140,108199
137113,108132
137090,108148
137025,108081
137072,108103
137072,108099
137031,108102
136933,108095
136852,108022
136881,108082
136848,108038
136736,108018
136662,107962
136555,107955
136549,107922
136536,107916
136419,107880
136341,107849
136244,107805
136265,107821
136175,107775
136162,107750
136057,107760
135954,107741
135952,107740
135972,107753
135905,107714
135882,107664
135797,107685
135830,107691
135837,107666
135821,107642
135761,107656
135742,107634
135783,107666
135751,107643
135770,107619
135741,107660
135684,107599
135769,107634
135754,107646
135797,107654
135696,107619
135759,107639
135791,107701
135836,107650
135847,107669
135829,107630
135837,107654
135863,107698
135925,107675
135899,107706
135874,107709
135921,107680
135969,107717
136014,107706
136021,107733
135951,107705
135970,107734
136076,107757
136105,107741
136090,107738
136088,107773
136091,107751
136141,107765
136200,107773
136229,107803
136156,107730
136187,107774
136255,107786
136223,107802
136241,107786
136238,107791
136241,107797
136266,107814
136296,107794
136327,107820
136240,107797
136269,107811
136326,107828
136318,107841
136325,107853
136267,107795
136258,107796
136387,107821
136375,107846
136324,107831
136346,107782
136319,107844
136400,107832
136380,107820
136388,107812
136358,107861
136354,107845
136424,107857
136481,107890
136400,107887
136408,107831
136447,107862
136441,107912
136487,107871
136489,107847
136478,107906
136516,107921
136565,107931
136647,107919
136572,107908
136586,107917
136625,107926
136651,107937
136701,107919
136736,107955
136654,107970
136701,107997
136767,108000
136828,107966
136798,108008
136719,107964
136825,108024
136866,108003
136898,108001
136898,108040
136829,107983
136930,108037
136972,108065
136956,108052
136956,108020
136924,108072
136986,108075
137072,108094
137100,108081
137071,108134
137073,108069
137109,108112
137164,108143
137169,108149
137192,108112
137116,108135
137201,108147
137267,108160
137254,108180
137252,108124
137233,108165
137257,108180
137309,108179
137316,108179
137332,108159
137277,108186
137362,108175
137419,108174
137417,108225
137385,108196
137393,108211
137421,108219
137454,108231
137497,108224
137439,108202
137451,108232
137478,108239
137549,108236
137530,108251
137489,108224
137512,108252
137516,108282
137576,108241
137549,108226
137582,108264
137494,108219
137527,108262
137550,108267
137517,108243
137446,108189
137381,108170
137402,108201
137418,108192
137341,108170
137217,108111
137167,108129
137196,108097
137157,108092
137114,108058
136974,108053
136899,108016
136912,108019
136896,108023
136808,107943
136802,107968
136678,107921
136719,107934
136661,107901
136645,107906
136527,107867
136499,107886
136501,107880
136552,107868
136498,107875
136461,107820
136399,107812
136479,107858
136449,107838
136432,107809
136440,107850
136361,107813
136469,107863
136447,107839
136487,107843
136395,107806
136434,107844
136469,107847
136491,107855
136484,107846
136410,107822
136449,107808
136517,107882
136508,107887
136510,107848
136487,107836
136482,107844
136582,107894
136595,107866
136558,107856
136538,107871
136551,107862
136653,107901
136630,107878
136662,107889
136616,107890
136660,107895
136676,107921
136747,107920
136726,107957
136682,107902
136716,107924
136795,107950
136800,107972
136769,107942
136784,107918
136772,107958
136867,107954
136840,107988
136812,107965
136827,107931
136836,107955
136876,107979
136897,107961
136884,107970
136791,107932
136840,107945
136873,107980
136897,107979
136841,107968
136846,107954
136814,107968
136893,107969
136942,107967
136893,107972
136867,107962
136850,107974
136899,107969
136931,107956
136922,107987
136870,107965
136910,107943
136970,108027
136968,107982
136948,108025
136907,107982
136933,107976
136999,108043
137022,108008
137007,107993
136974,107996
136974,108027
137051,108027
137042,108037
137065,108031
137004,108016
137052,108031
137125,108040
137134,108060
137135,108054
137070,108036
137130,108061
137193,108069
137205,108080
137166,108062
137163,108083
137191,108080
137261,108102
137319,108106
137260,108099
137256,108089
137305,108121
137366,108110
137350,108111
137374,108132
137345,108112
137360,108128
137454,108161
137419,108146
137435,108135
137414,108142
137474,108151
137523,108189
137521,108178
137517,108173
137484,108176
137477,108197
137567,108162
137582,108200
137599,108221
137507,108201
137555,108186
137667,108232
137652,108225
137616,108226
137586,108199
137689,108234
137700,108281
137707,108248
137713,108216
137663,108223
137730,108229
137762,108289
137752,108260
137758,108261
137727,108243
137795,108288
137854,108284
137811,108295
137818,108275
137795,108298
137828,108304
137902,108325
137844,108294
137888,108274
137847,108277
137894,108327
137951,108299
137935,108289
137871,108273
137877,108274
137896,108326
137898,108268
137890,108273
137813,108263
137725,108270
137770,108228
137767,108245
137683,108215
137639,108196
137540,108179
137559,108191
137520,108156
137490,108143
137420,108143
137316,108092
137336,108085
137339,108091
137229,108051
137178,108060
137099,108022
137168,108010
137109,108024
137085,108012
137028,107990
136979,107997
137019,107958
137014,107983
137000,107963
136956,107961
136895,107948
136966,107935
136968,107997
136971,107945
136893,107928
136879,107918
136961,107962
136963,107938
136926,107954
136895,107935
136920,107918
136969,107991
136979,107941
136992,107961
136944,107939
136894,107958
137007,107958
136984,107959
136995,107944
136928,107958
136935,107941
137028,107974
137031,107982
137024,107987
136973,107950
136992,107954
137083,108009
137091,107991
137067,107991
137069,108012
137030,108007
137126,107993
137144,107997
137143,108004
137065,108003
137110,107982
137163,108064
137195,108031
137136,108018
137127,108018
137134,108025
137176,108012
137189,108013
137199,108026
137136,108008
137155,108028
137214,108029
137244,108021
137158,108017
137165,108005
137177,108060
137175,108000
137175,107990
137175,108036
137099,107989
137121,107991
137168,108037
137178,107998
137176,108025
137082,107979
137167,108004
137215,108016
137203,108012
137194,108021
137119,107976
137162,108018
137216,108035
137200,108033
137204,108005
137138,108002
137167,108017
137236,108034
137210,108024
137222,107991
137164,108032
137210,108006
137264,108041
137237,108011
137282,108035
137206,108015
137291,108050
137310,108061
137340,108043
137335,108030
137272,108064
137308,108081
137398,108059
137368,108047
137359,108053
137335,108066
137429,108077
137423,108106
137475,108101
137465,108080
137403,108112
137432,108117
137494,108091
137499,108133
137470,108126
137446,108083
137559,108112
137538,108147
137569,108125
137551,108100
137518,108122
137578,108121
137613,108154
137627,108141
137621,108126
137533,108127
137628,108178
137655,108153
137637,108141
137633,108137
137598,108134
137650,108174
137708,108191
137732,108174
137663,108205
137652,108187
137699,108189
137737,108162
137773,108178
137748,108178
137730,108158
137779,108207
137822,108180
137827,108177
137750,108190
137756,108226
137772,108223
137829,108216
137833,108213
137819,108206
137806,108197
137851,108198
137887,108240
137891,108204
137819,108186
137851,108186
137909,108257
137916,108247
137899,108216
137886,108241
137834,108198
137939,108223
137925,108243
137910,108233
137909,108230
137835,108245
137867,108179
137888,108231
137827,108197
137727,108161
137699,108127
137723,108151
137685,108092
137663,108110
137538,108063
137482,108062
137510,108080
137479,108033
137408,108028
137336,107985
137258,107985
137283,107961
137248,107970
137205,107948
137097,107898
137030,107892
137112,107912
137096,107919
137013,107901
136968,107856
136940,107872
136964,107895
137000,107879
136918,107860
136859,107834
136880,107844
136862,107870
136879,107868
136847,107857
136824,107824
136815,107803
136877,107843
136858,107822
136870,107851
136808,107820
136789,107829
136868,107818
136877,107823
136834,107844
136824,107793
136817,107813
136858,107830
136896,107812
136881,107837
136839,107792
136854,107847
136912,107836
136940,107890
136910,107852
136894,107843
136903,107852
136993,107882
136983,107868
137006,107864
136906,107845
136968,107868
137032,107899
137070,107911
137014,107865
136981,107846
137000,107899
137018,107880
137045,107901
137061,107877
136965,107869
136962,107876
137061,107881
137050,107878
137001,107835
136949,107857
136969,107865
137053,107857
137026,107864
137004,107881
136910,107851
136944,107825
136982,107857
136985,107842
136976,107845
136901,107834
136893,107860
136951,107818
136943,107833
136904,107860
136841,107818
136850,107822
136928,107827
136916,107855
136886,107826
136828,107784
136841,107838
136900,107809
136936,107822
136874,107839
136838,107816
136873,107830
136930,107812
136954,107851
136900,107791
136876,107808
136924,107787
136963,107835
136927,107861
136915,107811
136894,107844
136919,107849
136961,107812
136992,107835
136960,107851
136912,107833
136977,107817
137021,107866
137059,107866
137006,107850
136962,107846
137015,107842
137082,107881
137055,107874
137010,107846
136989,107867
137084,107870
137111,107905
137081,107874
137082,107862
137029,107875
137117,107884
137169,107885
137161,107876
137116,107882
137094,107897
137150,107897
137187,107905
137199,107889
137168,107886
137156,107882
137203,107909
137276,107932
137227,107903
137221,107912
137177,107914
137217,107910
137296,107917
137276,107913
137261,107924
137217,107912
137301,107921
137331,107924
137326,107932
137288,107941
137264,107920
137343,107957
137333,107956
137328,107954
137311,107938
137278,107930
137365,107935
137400,107953
137398,107964
137319,107931
137359,107964
137458,107947
137443,108002
137420,107989
137429,107954
137389,107963
137458,107986
137491,108017
137443,107980
137462,107967
137458,108004
137519,108010
137533,108020
137496,107972
137495,108016
137475,107982
137536,107984
137595,108001
137554,108013
137510,107991
137481,108004
137521,108028
137525,107979
137538,107997
137475,107957
137393,107964
137426,107984
137394,107948
137314,107889
137274,107908
137234,107904
137197,107846
137187,107858
137131,107842
137015,107773
136956,107798
136987,107787
136876,107743
136876,107717
136715,107681
136712,107715
136710,107697
136647,107665
136548,107667
136493,107607
136467,107612
136482,107603
136469,107597
136427,107588
136325,107560
136334,107593
136388,107566
136365,107573
136292,107547
136257,107532
136290,107581
136339,107540
136337,107543
136270,107551
136227,107553
136249,107558
136304,107583
136288,107563
136302,107508
136220,107526
136285,107550
136287,107529
136350,107534
136275,107580
136278,107547
136281,107564
136359,107579
136350,107573
136355,107594
136311,107553
136318,107577
136420,107589
136405,107585
136355,107534
136298,107578
136343,107567
136421,107569
136428,107579
136387,107570
136334,107521
136417,107583
136408,107582
136450,107544
136429,107606
136358,107543
136373,107552
136465,107577
136403,107567
136420,107561
136386,107566
136395,107582
136387,107554
136414,107552
136407,107581
136290,107541
136338,107534
136392,107569
136378,107523
136300,107527
136234,107543
136310,107525
136357,107539
136326,107544
136316,107506
136256,107494
136310,107550
136302,107519
136297,107502
136313,107536
136243,107507
136268,107510
136321,107524
136341,107524
136253,107490
136213,107522
136302,107542
136297,107507
136286,107540
136265,107464
136234,107504
136269,107523
136340,107545
136315,107519
136283,107534
136242,107501
136314,107503
136365,107540
136357,107534
136343,107548
136300,107550
136363,107505
136397,107570
136365,107524
136365,107549
136329,107542
136373,107537
136467,107555
136416,107557
136375,107515
136386,107557
136410,107572
136460,107562
136425,107562
136435,107523
136395,107565
136472,107597
136502,107561
136512,107557
136441,107577
136413,107576
136517,107609
136559,107582
136533,107599
136507,107567
136493,107580
136550,107628
136592,107607
136546,107585
136583,107604
136579,107593
136598,107658
136644,107614
136659,107627
136620,107635
136632,107623
136717,107631
136703,107659
136717,107635
136686,107624
136668,107635
136743,107687
136745,107676
136732,107638
136733,107656
136699,107651
136741,107675
136795,107663
136778,107664
136725,107678
136744,107658
136819,107706
136865,107696
136819,107707
136774,107664
136823,107674
136881,107741
136889,107710
136878,107685
136822,107718
136780,107686
136868,107713
136832,107703
136825,107697
136729,107607
136715,107646
136734,107621
136700,107596
136648,107601
136521,107578
136496,107554
136489,107559
136426,107540
136367,107468
136302,107503
136238,107446
136247,107461
136201,107433
136125,107423
136006,107376
136024,107360
136011,107363
136015,107366
135905,107360
135805,107325
135763,107305
135833,107322
135805,107282
135720,107288
135684,107217
135669,107259
135695,107290
135704,107255
135682,107246
135587,107213
135644,107278
135672,107242
135688,107242
135655,107264
135598,107242
135644,107235
135688,107283
135684,107258
135705,107244
135613,107246
135633,107229
135751,107227
135717,107281
135721,107228
135668,107267
135703,107262
135742,107297
135766,107284
135800,107279
135745,107290
135783,107287
135864,107301
135897,107319
135844,107275
135845,107307
135922,107315
135987,107363
135991,107378
135987,107326
135944,107335
136026,107397
136040,107379
136057,107364
136073,107379
135999,107340
136102,107354
136117,107404
136080,107406
136098,107366
136048,107397
136047,107388
136140,107404
136113,107409
136097,107420
136028,107367
136092,107405
136138,107437
136088,107395
136105,107384
136077,107388
136069,107424
136118,107385
136135,107375
136112,107403
136010,107385
136093,107367
136161,107441
136119,107382
136105,107408
136038,107379
136123,107408
136147,107437
136118,107384
136142,107408
136065,107363
136174,107424
136176,107411
136170,107400
136169,107414
136145,107414
136183,107450
136228,107451
136240,107428
136195,107426
136156,107424
136221,107463
136258,107454
136315,107443
136294,107452
136255,107477
136290,107442
136360,107486
136333,107491
136301,107467
136232,107455
136344,107445
136419,107489
136386,107504
136329,107445
136338,107469
136382,107498
136426,107485
136443,107503
136392,107467
136369,107484
136450,107520
136461,107533
136443,107495
136448,107486
136434,107515
136512,107537
136535,107522
136558,107540
136506,107526
136491,107531
136570,107557
136586,107581
136594,107562
136574,107546
136554,107558
136588,107569
136652,107592
136645,107551
136564,107544
136565,107596
136658,107569
136658,107585
136650,107587
136631,107551
136601,107562
136676,107588
136688,107554
136714,107580
136604,107581
136644,107583
136681,107592
136714,107574
136758,107612
136668,107567
136671,107602
136741,107599
136763,107608
136697,107616
136654,107547
136642,107590
136699,107588
136624,107574
136552,107566
136446,107494
136438,107514
136476,107493
136382,107468
136294,107436
136213,107420
136150,107413
136119,107351
136106,107352
135995,107297
135863,107294
135858,107304
135841,107276
135806,107275
135721,107232
135609,107208
135606,107223
135618,107181
135588,107170
135543,107170
135445,107140
135447,107131
135488,107138
135502,107129
135409,107125
135386,107129
135402,107139
135443,107141
135452,107108
135388,107103
135358,107111
135367,107099
135424,107097
135449,107111
135422,107131
135361,107108
135437,107142
135421,107143
135452,107117
135437,107105
135376,107102
135429,107086
135532,107140
135520,107160
135490,107134
135429,107124
135480,107178
135547,107153
135608,107146
135532,107190
135500,107166
135554,107163
135646,107178
135622,107195
135620,107198
135589,107205
135627,107177
135689,107231
135705,107196
135719,107218
135650,107214
135688,107195
135728,107222
135786,107238
135732,107221
135682,107191
135734,107251
135772,107231
135733,107219
135711,107209
135650,107181
135696,107209
135737,107199
135744,107221
135702,107206
135619,107188
135721,107243
135750,107215
135719,107201
135699,107204
135629,107184
135675,107232
135719,107210
135731,107209
135705,107226
135636,107204
135737,107196
135774,107194
135758,107230
135706,107217
135725,107179
135755,107235
135765,107211
135763,107222
135729,107209
135743,107213
135769,107267
135828,107255
135813,107246
135781,107222
135760,107206
135870,107287
135880,107265
135902,107266
135868,107274
135819,107262
135925,107287
135961,107285
135918,107316
135900,107258
135926,107310
135994,107289
136048,107321
136018,107332
135960,107268
135954,107282
136056,107341
136100,107337
136114,107334
136061,107342
136029,107334
136156,107335
136158,107392
136158,107338
136120,107353
