11111,11111
0,0
82447,82520
135941,110843
140245,110788
140035,110694
139782,110616
139547,110513
139347,110420
139114,110306
138900,110199
138625,110097
138384,110020
138132,109935
137883,109828
137680,109751
137423,109639
137199,109528
137025,109450
136784,109398
136572,109286
136394,109207
136242,109154
136048,109117
135868,109003
135727,108956
135603,108949
135474,108863
135344,108843
135274,108819
135210,108773
135188,108778
135116,108727
135127,108713
135120,108770
135144,108749
135222,108799
135222,108780
135295,108814
135413,108853
135474,108886
135537,108857
135631,108920
135709,108992
135773,109006
135890,109024
135968,109064
136048,109100
136147,109109
136297,109213
136368,109230
136457,109259
136547,109297
136670,109329
136811,109404
136903,109436
137026,109458
137113,109490
137164,109548
137345,109589
137432,109651
137500,109659
137576,109697
137648,109726
137758,109783
137821,109786
137917,109826
137936,109841
138026,109840
138045,109886
138089,109885
138186,109909
138186,109934
138226,109920
138271,109946
138278,109959
138332,109945
138295,109953
138351,109962
138379,109960
138376,109965
138353,110009
138361,109934
138415,109958
138416,109993
138394,109984
138383,109966
138407,109967
138441,110003
138413,109977
138443,109961
138429,110006
138432,109992
138467,109989
138459,109999
138511,109996
138506,110033
138503,109993
138501,110028
138604,110058
138608,110047
138579,110083
138585,110024
138657,110077
138658,110049
138657,110077
138688,110074
138689,110074
138735,110096
138751,110110
138753,110090
138811,110082
138796,110126
138849,110142
138876,110165
138881,110153
138888,110119
138928,110142
138994,110224
139049,110212
139126,110214
139157,110275
139219,110316
139289,110291
139365,110327
139452,110350
140870,110958
139258,110216
139060,110136
135642,108786
135593,108772
135595,108783
135583,108779
137277,109428
137352,109489
137484,109517
137558,109574
137672,109574
138438,109859
138435,109862
138415,109853
138398,109889
138398,109882
138356,109819
138351,109822
138281,109809
138244,109793
138187,109776
138152,109732
138061,109709
137978,109681
137940,109657
137901,109636
137876,109619
137825,109607
137804,109634
137795,109583
137820,109576
137846,109586
137818,109604
137812,109621
137851,109606
137853,109623
137858,109627
137876,109628
137876,109618
137953,109667
137973,109646
137973,109682
138030,109689
138077,109706
138064,109703
138123,109747
138168,109736
138168,109743
138265,109757
138281,109787
138339,109776
138376,109803
138391,109828
138452,109878
138513,109846
138541,109893
138564,109926
138612,109886
138713,109911
138737,109992
138778,109996
138856,110008
138905,110027
138922,110061
139035,110051
139093,110098
139126,110107
139193,110143
139234,110173
139291,110176
139360,110189
139426,110223
139474,110233
139522,110280
139579,110281
139636,110298
139673,110318
139720,110350
139787,110352
139860,110362
139901,110402
139898,110416
139932,110423
139991,110436
140051,110466
140086,110463
140103,110500
140167,110492
140261,110522
140283,110569
140353,110579
140395,110564
140435,110619
140460,110654
140561,110640
140613,110665
140612,110665
140703,110684
140723,110755
140775,110707
140802,110743
140782,110717
140832,110766
140814,110714
140781,110724
140714,110680
140588,110623
140502,110591
140346,110539
140225,110497
140036,110400
139853,110336
139615,110231
139399,110126
139217,110073
138925,109949
138679,109863
138383,109728
138125,109607
137854,109534
137565,109413
137262,109286
136969,109171
136698,109065
136401,108968
136152,108847
135839,108730
135579,108665
135358,108524
135092,108462
134882,108350
134665,108283
134433,108195
134324,108126
134147,108091
134061,108028
133951,107991
133902,107978
133933,107975
133935,107955
133941,107996
133971,107972
134016,108022
134077,108048
134141,108049
134229,108095
134296,108134
134387,108174
134486,108166
134547,108217
134675,108258
134722,108282
134849,108344
134993,108401
135082,108451
135153,108456
135270,108499
135409,108549
135535,108585
135626,108624
135789,108699
135831,108741
135974,108762
136080,108838
136161,108847
136305,108894
136355,108939
136447,108959
136562,108996
136633,109050
136772,109068
136808,109127
136876,109146
136997,109186
137070,109197
137096,109221
137162,109241
137224,109244
137322,109311
137308,109317
137359,109314
137337,109291
137414,109326
137454,109338
137451,109351
137439,109345
137457,109341
137465,109346
137440,109334
137437,109312
137431,109366
137377,109279
137396,109308
137391,109299
137367,109326
137313,109231
137338,109276
137268,109282
137293,109240
137252,109240
137228,109226
137192,109228
137187,109246
137151,109225
137143,109203
137150,109195
137162,109209
137127,109250
137127,109172
137139,109210
137115,109179
137148,109182
137142,109234
137104,109170
137143,109180
137110,109216
137149,109227
137180,109225
137196,109237
137191,109223
137232,109205
137244,109244
137287,109262
137315,109265
137315,109250
137344,109291
137377,109310
137406,109310
137427,109285
137500,109336
137477,109329
137517,109350
137602,109339
137630,109396
137678,109434
137703,109410
137769,109425
137812,109449
137811,109474
137882,109456
137915,109489
137935,109504
138036,109528
138017,109541
138062,109544
138117,109572
138144,109616
138224,109600
138258,109649
138302,109619
138311,109670
138387,109657
138447,109713
138507,109707
138543,109766
138543,109717
138671,109767
138677,109775
138701,109807
138774,109818
138808,109847
138848,109862
138958,109881
138969,109885
139004,109908
139034,109933
139069,109952
139163,109947
139171,110003
139189,110015
139250,109980
139264,110015
139354,110051
139299,110059
139334,110008
139360,110005
139323,110015
139282,110000
139159,109960
139071,109882
138945,109850
138790,109772
138644,109727
138419,109616
138176,109547
137931,109401
137676,109323
137385,109215
137103,109105
136771,108974
136459,108858
136113,108719
135808,108570
135472,108452
135107,108333
134771,108173
134506,108086
134139,107939
133874,107817
133533,107707
133309,107604
133106,107539
132908,107483
132726,107377
132642,107310
132581,107323
132512,107288
132512,107248
132526,107278
132526,107287
132512,107244
132588,107298
132626,107324
132700,107335
132764,107387
132826,107384
132916,107430
133005,107458
133075,107480
133157,107493
133289,107546
133369,107617
133436,107632
133528,107672
133656,107690
133755,107757
133853,107792
133941,107865
134042,107871
134159,107930
134241,107957
134397,108030
134500,108071
134611,108112
134657,108120
134781,108184
134936,108252
135033,108287
135120,108323
135258,108336
135326,108408
135409,108456
135518,108496
135623,108502
135725,108541
135753,108563
135842,108607
135922,108625
135979,108646
136009,108673
136021,108709
136092,108677
136179,108737
136160,108724
136160,108697
136196,108718
136213,108716
136199,108753
136184,108696
136167,108709
136151,108712
136137,108670
136112,108694
136050,108686
136051,108642
136028,108678
136038,108641
135935,108613
135926,108595
135882,108610
135846,108557
135832,108551
135789,108535
135788,108519
135699,108526
135703,108537
135700,108507
135672,108500
135669,108464
135614,108496
135595,108454
135603,108452
135569,108470
135528,108448
135564,108449
135556,108447
135586,108446
135513,108440
135547,108455
135527,108430
135545,108439
135528,108439
135543,108447
135506,108438
135557,108416
135519,108435
135595,108462
135551,108456
135595,108455
135580,108438
135625,108487
135662,108466
135663,108507
135677,108480
135729,108498
135750,108520
135787,108532
135795,108560
135836,108537
135868,108575
135898,108621
135885,108558
135979,108603
135953,108603
135997,108628
136046,108628
136128,108680
136118,108647
136151,108660
136244,108708
136285,108736
136302,108731
136355,108808
136408,108770
136463,108766
136537,108823
136532,108847
136585,108866
136614,108843
136701,108877
136746,108910
136763,108916
136827,108914
136876,108962
136868,108934
136938,109005
136984,108998
137024,109034
136995,109019
137018,108993
136999,108998
136962,108977
136860,108909
136731,108848
136580,108829
136415,108761
136214,108619
135988,108551
135707,108436
135424,108306
135089,108208
134775,108069
134422,107929
134075,107746
133721,107653
133391,107514
133070,107386
132714,107263
132378,107107
132167,106984
131903,106885
131677,106793
131528,106741
131301,106676
131231,106610
131138,106596
131057,106568
130991,106514
130991,106499
130929,106513
130939,106507
130934,106507
130979,106511
131008,106507
131037,106536
131092,106568
131126,106572
131209,106594
131271,106628
131319,106671
131400,106683
131508,106698
131604,106758
131637,106783
131729,106824
131817,106865
131946,106911
132041,106905
132107,106981
132196,107025
132356,107061
132420,107150
132511,107166
132645,107195
132748,107247
132878,107262
132967,107357
133051,107380
133172,107432
133286,107491
133434,107499
133512,107580
133586,107579
133709,107627
133836,107688
133909,107732
133960,107716
134072,107776
134091,107766
134160,107805
134242,107820
134228,107875
134247,107846
134311,107863
134319,107858
134354,107894
134345,107873
134327,107858
134306,107888
134323,107858
134297,107851
134289,107843
134226,107816
134190,107797
134202,107797
134144,107790
134147,107810
134094,107762
134039,107767
134058,107767
134014,107740
134022,107705
133925,107692
133950,107719
133931,107698
133872,107680
133865,107684
133849,107652
133806,107642
133860,107690
133838,107665
133782,107652
133821,107666
133840,107684
133820,107688
133869,107662
133908,107673
133904,107681
133899,107670
133934,107728
133979,107692
134028,107732
134012,107724
134063,107718
134083,107770
134132,107765
134121,107784
134187,107807
134205,107808
134260,107815
134318,107865
134357,107847
134356,107864
134425,107909
134458,107918
134530,107928
134565,107970
134621,107980
134696,107992
134752,108038
134760,108025
134859,108074
134883,108070
134952,108078
134963,108161
135061,108141
135081,108165
135137,108149
135198,108190
135234,108225
135288,108225
135312,108208
135349,108253
135382,108267
135488,108315
135547,108317
135579,108331
135633,108363
135672,108391
135763,108419
135850,108453
135891,108444
135926,108486
135964,108502
136045,108511
136111,108566
136165,108572
136196,108596
136285,108629
136276,108649
136300,108624
136276,108631
136233,108625
136186,108554
136109,108538
135962,108489
135778,108403
135602,108296
135390,108269
135125,108140
134836,107989
134554,107865
134164,107765
133806,107594
133490,107426
133117,107321
132728,107156
132340,106995
132046,106849
131720,106761
131394,106605
131107,106498
130915,106388
130715,106369
130565,106242
130391,106175
130291,106142
130203,106100
130162,106102
130087,106080
130094,106048
130098,106043
130097,106058
130161,106094
130164,106107
130228,106117
130240,106089
130360,106136
130408,106196
130481,106247
130542,106271
130601,106270
130728,106313
130807,106377
130890,106387
131007,106419
131080,106443
131187,106500
131254,106584
131382,106584
131416,106632
131524,106659
131658,106678
131762,106781
131831,106778
131972,106815
132074,106877
132191,106919
132310,107006
132409,107047
132571,107070
132640,107112
132758,107180
132904,107242
133036,107263
133135,107340
133187,107342
133290,107360
133404,107438
133476,107443
133535,107448
133605,107489
133653,107555
133759,107541
133785,107587
133834,107640
133855,107584
133937,107657
133949,107675
133973,107641
133992,107665
134011,107648
134017,107678
134012,107666
134074,107676
133996,107679
133977,107650
134005,107664
133990,107632
133961,107636
133931,107625
133914,107593
133892,107649
133871,107619
133863,107587
133823,107614
133808,107588
133797,107561
133780,107579
133788,107571
133759,107567
133750,107558
133786,107567
133807,107603
133820,107598
133826,107580
133813,107592
133875,107615
133855,107611
133897,107596
133909,107606
133966,107624
133982,107673
134018,107656
134102,107699
134126,107729
134160,107720
134227,107751
134231,107790
134291,107755
134372,107814
134340,107831
134471,107851
134527,107878
134555,107911
134603,107918
134689,107964
134679,107973
134745,108002
134811,107975
134852,108012
134940,108024
134956,108067
135001,108078
135080,108083
135097,108073
135144,108144
135194,108168
135231,108143
135337,108201
135342,108186
135397,108239
135435,108240
135507,108249
135551,108333
135545,108286
135634,108363
135659,108369
135735,108344
135773,108412
135826,108420
135855,108445
135910,108470
135962,108450
136028,108483
136080,108496
136090,108536
136196,108540
136213,108564
136267,108602
136291,108594
136379,108612
136452,108700
136488,108697
136575,108694
136623,108712
136684,108769
136733,108810
136742,108797
136810,108803
136773,108806
136779,108800
136697,108767
136587,108707
136516,108659
136342,108582
136130,108488
135877,108408
135612,108288
135329,108155
134969,108014
134626,107861
134251,107744
133828,107560
133381,107394
132971,107202
132615,107064
132202,106922
131804,106737
131456,106612
131121,106468
130859,106358
130619,106257
130395,106162
130223,106072
130069,106009
129978,106008
129835,105945
129781,105886
129759,105874
129708,105852
129715,105877
129706,105868
129747,105916
129792,105876
129878,105917
129946,105950
130009,105981
130104,106055
130141,106065
130272,106078
130407,106155
130505,106199
130590,106236
130738,106281
130849,106374
130969,106394
131099,106459
131240,106501
131379,106589
131497,106610
131710,106705
131787,106750
131938,106797
132041,106817
132176,106912
132335,106962
132437,107032
132584,107057
132673,107096
132785,107176
132949,107218
133025,107268
133198,107333
133273,107345
133379,107391
133517,107454
133590,107515
133678,107527
133769,107543
133844,107592
133979,107645
134015,107668
134116,107704
134168,107701
134164,107722
134278,107783
134294,107756
134349,107769
134297,107792
134337,107777
134358,107794
134349,107798
134345,107805
134340,107756
134289,107775
134263,107764
134251,107748
134243,107711
134184,107713
134198,107702
134179,107750
134148,107726
134139,107699
134113,107696
134103,107678
134078,107722
134054,107670
134053,107653
134064,107654
134048,107701
134031,107650
134008,107669
134018,107686
134013,107655
134022,107665
134044,107664
134054,107691
134029,107655
134043,107670
134069,107684
134077,107680
134104,107678
134102,107697
134069,107661
134124,107706
134103,107731
134081,107714
134132,107688
134117,107670
134145,107738
134131,107716
134159,107705
134163,107745
134184,107716
134202,107722
134228,107782
134243,107763
134256,107736
134245,107745
134328,107782
134320,107783
134380,107812
134334,107787
134369,107782
134367,107817
134461,107831
134459,107818
134439,107858
134457,107828
134564,107864
134562,107917
134609,107909
134657,107940
134715,107920
134776,107988
134820,107985
134845,107988
134924,108010
134940,108043
135049,108063
135083,108105
135095,108102
135191,108148
135209,108172
135277,108169
135355,108205
135384,108249
135430,108207
135479,108259
135545,108305
135596,108297
135602,108317
135669,108320
135683,108358
135728,108369
135785,108371
135813,108409
135816,108426
135825,108398
135897,108407
135931,108451
135872,108422
135875,108399
135814,108369
135734,108342
135609,108307
135414,108204
135239,108120
135024,108043
134748,107939
134459,107793
134090,107694
133733,107491
133393,107391
133006,107202
132567,107036
132191,106910
131750,106714
131360,106564
131065,106448
130726,106305
130457,106163
130147,106071
129936,105954
129821,105895
129654,105843
129486,105792
129399,105761
129331,105722
129342,105677
129292,105701
129277,105664
129205,105645
129281,105666
129257,105702
129280,105680
129271,105705
129315,105702
129368,105746
129431,105746
129426,105755
129465,105793
129482,105757
129523,105818
129583,105834
129632,105854
129633,105852
129665,105843
129774,105916
129817,105901
129837,105923
129891,105921
129994,105997
130024,106053
130110,106031
130206,106111
130314,106140
130377,106155
130556,106268
130665,106325
130833,106343
131001,106409
131089,106478
131292,106559
131440,106605
131581,106650
131714,106738
131836,106766
132012,106832
132082,106899
132226,106922
132340,106991
132400,107016
132556,107049
132596,107117
132661,107110
132745,107127
132745,107149
132804,107156
132834,107169
132858,107193
132859,107204
132839,107206
132910,107229
132877,107201
132831,107208
132799,107159
132824,107186
132807,107197
132744,107134
132725,107120
132669,107104
132627,107124
132650,107115
132565,107096
132567,107067
132543,107062
132474,107020
132546,107057
132497,107067
132476,107043
132493,107044
132480,107072
132514,107033
132540,107028
132554,107083
132492,107044
132542,107073
132598,107104
132668,107111
132646,107106
132692,107123
132693,107137
132782,107148
132798,107193
132828,107191
132894,107199
132914,107251
132983,107236
133086,107300
133095,107293
133154,107296
133221,107340
133319,107372
133350,107403
133387,107409
133449,107419
133490,107480
133585,107517
133652,107519
133730,107576
133734,107548
133806,107607
133876,107630
133933,107661
133970,107670
134022,107646
134107,107744
134161,107733
134191,107733
134252,107770
134265,107800
134388,107817
134414,107895
134473,107877
134513,107898
134571,107896
134667,107944
134706,107998
134752,107972
134810,107992
134810,108029
134902,108048
134971,108090
134930,108098
134953,108066
134991,108074
135031,108099
135034,108114
135089,108112
135068,108084
135102,108115
135116,108133
135132,108167
135186,108133
135152,108164
135159,108165
135205,108208
135252,108172
135283,108187
135276,108225
135290,108184
135394,108247
135423,108286
135459,108266
135496,108277
135437,108266
135520,108289
135444,108300
135382,108204
135279,108162
135118,108094
134991,108058
134719,107973
134514,107861
134165,107708
133898,107602
133591,107487
133235,107328
132819,107199
132407,107023
132043,106860
131656,106744
131286,106543
130958,106448
130607,106261
130345,106184
130093,106104
129891,105997
129682,105892
129507,105860
129386,105772
129323,105709
129216,105721
129199,105694
129120,105661
129081,105657
129148,105665
129146,105695
129186,105715
129273,105717
129345,105772
129456,105789
129504,105862
129604,105887
129733,105906
129864,106009
130028,106056
130161,106114
130272,106172
130334,106192
130526,106263
130653,106345
130770,106397
130881,106406
131002,106448
131090,106521
131235,106547
131345,106619
131400,106640
131462,106650
131584,106728
131709,106741
131815,106824
131865,106806
131967,106844
132079,106906
132171,106936
132213,106990
132279,106989
132334,107053
132414,107084
132472,107053
132535,107097
132577,107115
132549,107111
132603,107142
132653,107167
132714,107151
132725,107202
132680,107159
132799,107194
132827,107231
132795,107209
132808,107182
132739,107214
132750,107177
132793,107202
132754,107198
132703,107182
132658,107127
132600,107137
132602,107112
132525,107087
132501,107055
132358,107043
132330,107008
132310,107006
132228,106971
132149,106946
132078,106903
132045,106904
131989,106883
131889,106817
131842,106787
131772,106786
131714,106768
131733,106751
131673,106756
131578,106703
131606,106684
131608,106730
131612,106704
131554,106705
131580,106670
131579,106703
131593,106715
131593,106694
131626,106719
131647,106711
131630,106723
131661,106737
131716,106749
131738,106763
131747,106778
131756,106798
131835,106817
131890,106815
131938,106855
131989,106855
132030,106873
132143,106929
132154,106931
132254,106964
132270,106979
132337,106991
132470,107068
132455,107033
132494,107087
132557,107089
132606,107118
132711,107171
132709,107165
132764,107196
132830,107216
132823,107224
132937,107268
132952,107274
132980,107260
132986,107284
133076,107302
133091,107328
133125,107364
133182,107342
133185,107354
133249,107379
133253,107372
133304,107406
133332,107407
133321,107404
133381,107451
133432,107455
133426,107483
133481,107491
133477,107482
133545,107507
133600,107529
133576,107538
133596,107542
133650,107517
133672,107596
133781,107617
133767,107598
133798,107595
133880,107633
133921,107641
133980,107710
134006,107714
134026,107719
134095,107746
134136,107738
134181,107788
134201,107762
134201,107753
134182,107740
134135,107726
134072,107729
133971,107655
133830,107612
133656,107531
133507,107483
133260,107392
133014,107237
132715,107150
132400,107007
132106,106916
131699,106758
131357,106597
131002,106464
130651,106287
130339,106172
130019,106042
129741,105943
129428,105847
129186,105712
129022,105644
128907,105573
128682,105493
128607,105439
128480,105398
128449,105402
128359,105406
128348,105325
128316,105343
128302,105348
128385,105356
128388,105388
128416,105430
128450,105413
128567,105445
128675,105496
128755,105543
128801,105561
128876,105575
129012,105665
129125,105693
129260,105743
129300,105797
129392,105813
129553,105878
129640,105948
129773,105987
129864,106045
129929,106038
130086,106088
130186,106151
130292,106168
130389,106251
130497,106257
130629,106321
130735,106382
130847,106432
130939,106439
131000,106507
131111,106524
131256,106606
131348,106631
131390,106656
131474,106660
131571,106757
131685,106769
131752,106789
131823,106815
131919,106881
131962,106889
132060,106945
132085,106925
132177,106952
132181,106971
132196,106980
132272,107012
132276,107015
132279,107022
132271,107026
132227,107002
132245,106962
132211,106984
132169,106959
132093,106928
132079,106954
132008,106912
131967,106865
131931,106872
131834,106820
131830,106813
131798,106799
131763,106813
131709,106766
131671,106762
131701,106775
131670,106773
131652,106751
131633,106724
131639,106739
131607,106735
131631,106756
131597,106717
131588,106708
131565,106695
131568,106735
131575,106708
131562,106745
131556,106720
131520,106666
131564,106730
131586,106753
131559,106717
131550,106706
131596,106747
131606,106769
131637,106732
131713,106795
131701,106787
131714,106787
131822,106825
131803,106846
131848,106810
131896,106852
131903,106867
132016,106904
132057,106930
132086,106928
132132,106943
132157,106955
132239,107019
132293,107040
132352,107029
132346,107025
132426,107080
132479,107127
132537,107120
132577,107138
132561,107139
132598,107145
132685,107204
132720,107214
132731,107185
132769,107177
132773,107235
132797,107264
132845,107231
132899,107275
132899,107289
132930,107281
133024,107362
133042,107352
133105,107324
133142,107373
133203,107374
133286,107436
133339,107454
133377,107450
133440,107455
133501,107532
133583,107555
133635,107569
133651,107593
133705,107597
133789,107647
133836,107651
133852,107663
133906,107672
133927,107671
133916,107713
133899,107673
133881,107663
133781,107619
133623,107568
133480,107515
133324,107417
133096,107339
132782,107211
132469,107029
132203,106949
131873,106834
131495,106678
131100,106534
130743,106359
130407,106274
130092,106112
129748,105985
129433,105846
129215,105737
129020,105693
128829,105616
128697,105527
128563,105485
128419,105428
128390,105384
128341,105388
128274,105377
128276,105352
128295,105361
128299,105381
128380,105388
128478,105440
128503,105444
128574,105498
128692,105562
128801,105589
128900,105661
129027,105668
129147,105726
129245,105778
129357,105825
129469,105855
129588,105898
129668,105952
129820,106011
129909,106022
129953,106073
129999,106095
130069,106098
130207,106171
130253,106203
130286,106236
130394,106234
130484,106270
130539,106351
130640,106350
130744,106406
130798,106436
130872,106437
131013,106532
131093,106563
131142,106561
131238,106572
131301,106596
131422,106681
131493,106719
131522,106705
131596,106738
131618,106767
131745,106788
131764,106843
131773,106845
131778,106814
131825,106830
131857,106867
131886,106861
131870,106871
131826,106823
131846,106843
131853,106882
131792,106822
131738,106814
131666,106761
131687,106774
131637,106730
131588,106737
131528,106711
131456,106658
131376,106666
131368,106610
131306,106602
131226,106591
131159,106572
131119,106543
131090,106550
131032,106535
130996,106460
130908,106455
130891,106456
130906,106446
130838,106441
130778,106379
130768,106383
130701,106397
130725,106396
130637,106356
130643,106367
130608,106310
130658,106325
130659,106369
130689,106346
130705,106359
130671,106367
130746,106366
130793,106423
130816,106405
130841,106441
130844,106436
130934,106456
130996,106501
131010,106518
131054,106510
131047,106506
131100,106547
131168,106559
131231,106605
131235,106579
131268,106588
131353,106632
131385,106670
131405,106667
131478,106660
131486,106694
131563,106700
131603,106734
131583,106754
131607,106746
131632,106744
131689,106778
131705,106808
131705,106769
131765,106790
131749,106812
131761,106828
131810,106830
131848,106857
131848,106864
131934,106873
131950,106925
131998,106902
132084,106925
132097,106922
132162,106944
132226,107022
132269,107031
132303,107029
132391,107044
132448,107067
132486,107118
132549,107117
132581,107148
132569,107145
132578,107120
132585,107126
132512,107099
132451,107045
132236,106995
132045,106925
131936,106855
131659,106747
131364,106629
131042,106479
130735,106333
130424,106269
130063,106094
129746,105964
129377,105800
129064,105658
128825,105603
128499,105447
128268,105330
128015,105202
127836,105161
127690,105086
127531,105031
127422,104973
127311,104911
127257,104912
127203,104899
127195,104878
127188,104876
127142,104855
127170,104882
127265,104875
127296,104923
127349,104947
127354,104955
127440,105001
127548,105026
127624,105109
127738,105126
127770,105155
127943,105224
128077,105266
128202,105308
128339,105357
128418,105422
128585,105486
128740,105547
128861,105599
128978,105646
129075,105686
129235,105730
129362,105821
129485,105858
129579,105887
129685,105920
129803,106010
129951,106052
130054,106086
130179,106142
130260,106189
130362,106239
130498,106272
130563,106287
130618,106322
130676,106372
130765,106387
130855,106445
130897,106445
130970,106500
130982,106468
131096,106506
131116,106551
131161,106568
131188,106567
131165,106575
131202,106592
131221,106561
131239,106566
131180,106536
131153,106530
131103,106536
131059,106493
131008,106458
130924,106486
130878,106429
130836,106401
130735,106379
130664,106333
130649,106328
130557,106295
130515,106289
130477,106257
130468,106235
130360,106249
130307,106205
130328,106210
130297,106218
130264,106190
130234,106180
130206,106166
130232,106131
130235,106187
130192,106145
130167,106152
130171,106146
130199,106175
130197,106168
130181,106143
130180,106173
130176,106161
130227,106164
130243,106149
130270,106192
130251,106154
130275,106157
130357,106216
130360,106232
130402,106269
130440,106230
130520,106286
130600,106309
130598,106334
130678,106328
130677,106354
130752,106379
130844,106418
130883,106410
130908,106473
130984,106455
131022,106519
131120,106557
131127,106551
131219,106603
131240,106548
131318,106611
131351,106625
131441,106647
131490,106700
131510,106688
131609,106757
131689,106768
131714,106807
131725,106805
131797,106791
131823,106862
131894,106858
131963,106854
131960,106916
132016,106886
132040,106912
132093,106955
132145,106960
132174,106955
132149,106950
132255,106989
132267,107024
132269,107046
132344,107028
132358,107031
132430,107089
132412,107068
132425,107072
132435,107065
132426,107057
132372,107064
132334,107013
132217,106973
132036,106905
131830,106827
131648,106722
131424,106613
131090,106517
130731,106345
130437,106217
130048,106082
129722,105938
129362,105799
128997,105621
128687,105491
128397,105387
128152,105294
127891,105188
127656,105079
127419,104955
127306,104900
127181,104873
127086,104825
126983,104766
126935,104770
126875,104789
126876,104716
126881,104742
126844,104731
126854,104744
126887,104740
126967,104812
126958,104797
127028,104815
127098,104805
127155,104845
127222,104891
127258,104940
127319,104920
127417,104978
127549,105014
127553,105051
127661,105077
127760,105121
127863,105144
127913,105210
128033,105206
128108,105255
128221,105296
128278,105350
128380,105402
128506,105450
128606,105459
128662,105478
128769,105531
128918,105608
128970,105646
129106,105660
129173,105712
129298,105743
129426,105807
129516,105860
129547,105897
129642,105931
129735,105974
129789,106005
129874,105993
129955,106020
129971,106066
130024,106070
130051,106082
130087,106100
130064,106096
130076,106067
130107,106104
130117,106098
130103,106095
130115,106092
130037,106054
130082,106068
130074,106104
130030,106069
130022,106042
129953,106024
129952,106050
129932,106011
129895,106006
129848,105999
129782,105979
129773,105946
129792,105972
129702,105918
129663,105893
129617,105869
129624,105883
129612,105900
129581,105906
129529,105844
129535,105838
129543,105867
129537,105870
129573,105868
129550,105893
129539,105837
129626,105884
129609,105928
129640,105920
129677,105901
129684,105917
129759,105968
129802,105938
129818,105968
129892,106007
129913,106024
129963,106055
130072,106065
130081,106108
130138,106103
130186,106104
130245,106189
130294,106179
130408,106211
130440,106246
130514,106271
130585,106332
130711,106336
130785,106401
130792,106375
130911,106437
131004,106469
131049,106528
131098,106496
131165,106539
131183,106535
131254,106593
131325,106577
131326,106630
131384,106618
131413,106646
131440,106678
131486,106665
131544,106684
131555,106677
131608,106688
131688,106750
131660,106743
131694,106765
131731,106771
131770,106784
131849,106827
131805,106834
131884,106830
131884,106843
131922,106864
131974,106884
131994,106897
131973,106894
131993,106848
132015,106920
132052,106905
132080,106914
132084,106926
132013,106892
132065,106874
132097,106932
132060,106903
132060,106900
131997,106848
131946,106847
131908,106863
131747,106757
131584,106696
131387,106578
131187,106519
130904,106439
130625,106268
130267,106139
129892,105984
129539,105821
129177,105695
128737,105495
128397,105334
127997,105187
127694,105061
127393,104936
127096,104820
126882,104701
126602,104575
126455,104552
126306,104491
126189,104414
126051,104386
125904,104270
125895,104289
125829,104283
125817,104266
125767,104245
125727,104240
125761,104211
125828,104266
125828,104257
125912,104285
125896,104279
126037,104357
126129,104405
126157,104423
126260,104435
126322,104458
126411,104526
126540,104580
126591,104600
126650,104626
126756,104659
126892,104716
127009,104763
127098,104812
127174,104851
127276,104860
127359,104962
127470,104981
127605,105026
127681,105084
127772,105084
127924,105154
128036,105205
128120,105250
128227,105301
128311,105311
128487,105402
128551,105468
128678,105477
128741,105492
128834,105525
128946,105589
129032,105628
129081,105682
129159,105695
129174,105726
129252,105737
129360,105755
129369,105794
129382,105770
129416,105817
129494,105820
129528,105820
129558,105839
129557,105868
129542,105827
129565,105885
129556,105851
129550,105864
129476,105837
129485,105807
129488,105830
129410,105782
129342,105755
129318,105727
129225,105720
129202,105724
129129,105679
129110,105669
129043,105639
128988,105635
128971,105614
128956,105568
128949,105612
128902,105577
128877,105619
128921,105594
128941,105622
128923,105597
128961,105601
128991,105619
129040,105619
129003,105637
129059,105633
129066,105692
129095,105656
129114,105696
129116,105724
129161,105687
129216,105698
129220,105754
129270,105730
129292,105764
129339,105788
129361,105765
129424,105808
129458,105791
129471,105849
129515,105837
129540,105847
129600,105895
129607,105898
129668,105899
129716,105933
129733,105916
129767,105954
129839,106010
129852,105985
129893,106012
129922,106014
129998,106066
130030,106067
130109,106112
130148,106115
130140,106116
130274,106177
130304,106188
130359,106218
130426,106218
130425,106224
130536,106279
130609,106292
130636,106335
130666,106325
130648,106337
130757,106382
130754,106382
130793,106366
130813,106363
130781,106387
130885,106400
130893,106453
130896,106398
130913,106408
130909,106416
130986,106446
131030,106481
130998,106455
131052,106461
131069,106490
131144,106518
131177,106576
131179,106511
131199,106559
131218,106565
131320,106605
131352,106629
131313,106572
131324,106584
131248,106553
131235,106555
131134,106509
130960,106419
130793,106353
130525,106235
130311,106146
129991,106044
129671,105885
129275,105733
128913,105549
128604,105447
128196,105311
127860,105133
127509,104979
127211,104886
126924,104754
126734,104644
126500,104574
126287,104483
126133,104390
126051,104367
125901,104305
125841,104293
125760,104248
125748,104248
125735,104255
125743,104208
125721,104243
125770,104242
125796,104300
125855,104313
125881,104293
125960,104329
126001,104341
126045,104393
126132,104435
126219,104446
126262,104445
126355,104489
126394,104542
126497,104562
126620,104629
126659,104630
126677,104629
126801,104710
126889,104727
126942,104805
127064,104779
127109,104810
127197,104856
127253,104909
127347,104900
127453,104984
127556,105042
127659,105092
127809,105150
127955,105182
128058,105229
128129,105293
128291,105329
128412,105391
128504,105465
128608,105484
128654,105523
128803,105550
128949,105611
128959,105649
129046,105673
129120,105682
129210,105722
129260,105755
129288,105794
129316,105781
129335,105798
129390,105806
129444,105825
129383,105851
129401,105794
129425,105827
129434,105814
129386,105831
129407,105809
129346,105798
129296,105732
129291,105770
129285,105756
129215,105760
129171,105695
129149,105694
129113,105701
129095,105684
129094,105695
129039,105670
128993,105666
129016,105640
128986,105660
128981,105617
128931,105639
128940,105619
128977,105653
128975,105663
128983,105614
128994,105648
128992,105663
129069,105691
129099,105719
129080,105674
129111,105666
129177,105738
129253,105738
129270,105762
129360,105778
129379,105786
129386,105820
129496,105875
129513,105893
129570,105878
129571,105899
129672,105927
129729,105962
129755,105956
129816,105992
129804,105986
129850,106017
129891,106009
129967,106053
129981,106063
129970,106042
130072,106082
130079,106126
130081,106091
130135,106130
130111,106116
130195,106144
130226,106150
130291,106184
130275,106185
130328,106169
130417,106269
130457,106269
130536,106279
130572,106280
130602,106318
130680,106346
130755,106387
130825,106418
130837,106384
130873,106407
130917,106474
130976,106471
131029,106479
131022,106482
131061,106513
131140,106517
131147,106560
131140,106557
131190,106573
131174,106555
131259,106602
131237,106610
131235,106583
131311,106594
131283,106601
131315,106607
131335,106653
131314,106589
131309,106619
131345,106635
131372,106603
131359,106639
131334,106611
131364,106610
131356,106628
131343,106636
131409,106658
131396,106646
131387,106648
131357,106622
131384,106620
131343,106635
131223,106581
131135,106519
130919,106449
130779,106356
130577,106293
130284,106180
129988,106052
129625,105881
129337,105799
128965,105651
128652,105469
128313,105341
127935,105168
127701,105081
127428,104971
127190,104881
126919,104770
126723,104664
126603,104610
126482,104563
126363,104516
126291,104457
126188,104470
126178,104425
126155,104433
126140,104424
126118,104430
126083,104395
126152,104438
126188,104472
126199,104441
126219,104463
126280,104502
126332,104540
126367,104537
126474,104555
126525,104574
126570,104633
126727,104673
126797,104695
126856,104774
126946,104750
127061,104857
127191,104866
127265,104912
127382,104939
127454,104995
127545,105008
127627,105092
127725,105112
127775,105121
127855,105144
128013,105226
128072,105269
128153,105278
128226,105311
128330,105346
128446,105427
128509,105453
128634,105490
128693,105514
128763,105535
128854,105595
128955,105643
129005,105651
129055,105684
129060,105678
129120,105722
129177,105708
129182,105705
129210,105755
129176,105709
129212,105748
129232,105718
129273,105736
129214,105742
129170,105712
129221,105708
129196,105727
129171,105699
129084,105693
129059,105650
129077,105676
129024,105641
128972,105644
128930,105603
128861,105569
128868,105579
128785,105566
128772,105567
128702,105504
128650,105504
128663,105523
128589,105492
128567,105421
128549,105464
128500,105436
128503,105433
128520,105445
128444,105472
128473,105442
128486,105440
128502,105436
128541,105477
128524,105466
128589,105458
128612,105489
128640,105490
128697,105504
128701,105535
128707,105516
128753,105568
128823,105582
128880,105614
128912,105598
128927,105610
128955,105629
129054,105696
129120,105731
129178,105706
129182,105720
129235,105754
129307,105748
129387,105790
129396,105833
129414,105811
129477,105841
129484,105866
129520,105862
129583,105862
129570,105911
129585,105894
129631,105959
129672,105972
129686,105908
129744,105938
129739,105972
129798,105972
129826,105984
129871,106015
129867,106005
129920,106072
129994,106049
130008,106079
130052,106057
130040,106078
130126,106112
130177,106142
130206,106156
130198,106122
130199,106156
130260,106148
130308,106215
130281,106174
130288,106165
130270,106191
130330,106191
130344,106250
130320,106202
130402,106214
130379,106244
130455,106265
130497,106292
130530,106286
130581,106268
130642,106332
130671,106364
130754,106378
130807,106393
130850,106399
130907,106402
130939,106493
131013,106470
131037,106501
131074,106465
131067,106500
131068,106515
131067,106482
131002,106457
130913,106452
130741,106371
130585,106278
130429,106217
130162,106126
129862,105970
129475,105827
129218,105733
128881,105588
128517,105433
128153,105283
127804,105147
127489,105015
127201,104885
126942,104776
126692,104639
126446,104542
126291,104508
126139,104412
126009,104351
125891,104289
125773,104265
125750,104260
125703,104236
125633,104196
125616,104210
125611,104167
125650,104210
125676,104202
125689,104222
125751,104227
125757,104258
125862,104313
125951,104320
125987,104362
126058,104398
126153,104428
126237,104468
126337,104522
126411,104532
126517,104576
126599,104608
126751,104683
126796,104675
126875,104751
126945,104734
127045,104784
127198,104857
127280,104889
127317,104929
127428,104960
127559,105033
127653,105085
127740,105112
127861,105170
127905,105178
128037,105191
128172,105295
128230,105311
128307,105361
128351,105357
128489,105397
128544,105479
128600,105478
128632,105475
128653,105471
128728,105500
128736,105556
128771,105539
128800,105523
128798,105529
128791,105559
128815,105532
128781,105517
128778,105517
128755,105493
128767,105514
128710,105468
128708,105468
128663,105460
128628,105458
128575,105482
128557,105405
128473,105425
128473,105384
128409,105361
128421,105352
128394,105390
128316,105347
128309,105342
128263,105295
128307,105312
128248,105328
128228,105302
128255,105284
128218,105307
128231,105321
128247,105283
128264,105293
128239,105312
128235,105294
128274,105287
128347,105342
128341,105354
128341,105339
128326,105340
128404,105342
128442,105353
128409,105376
128415,105382
128454,105371
128499,105427
128525,105405
128568,105438
128562,105432
128633,105440
128696,105513
128753,105474
128796,105520
128801,105545
128846,105577
128947,105595
129004,105635
129005,105610
129091,105624
129091,105645
129184,105676
129223,105699
129241,105744
129239,105703
129309,105763
129347,105771
129335,105746
129403,105789
129443,105792
129471,105858
129502,105826
129571,105862
129616,105876
129653,105874
129647,105893
129741,105900
129776,105956
129786,105955
129803,105955
129812,105942
129909,105987
129899,106008
129910,106000
129927,105977
129949,106005
129989,106030
130025,106015
130051,106073
130045,106024
130074,106087
130120,106095
130160,106113
130167,106109
130185,106084
130229,106120
130257,106159
130250,106158
130307,106121
130326,106144
130264,106164
130284,106145
130235,106125
130150,106072
130031,106039
129909,105968
129716,105887
129547,105793
129285,105698
129007,105573
128743,105480
128487,105405
128163,105224
127857,105117
127577,104960
127286,104887
127015,104791
126799,104672
126539,104559
126333,104447
126200,104401
126058,104320
125899,104279
125770,104249
125652,104152
125608,104151
125545,104139
125504,104102
125475,104064
125478,104112
125476,104103
125509,104128
125539,104122
125627,104117
125641,104167
125699,104204
125802,104204
125854,104258
125914,104285
126001,104312
126090,104366
126213,104404
126339,104475
126430,104513
126552,104542
126663,104631
126801,104666
126924,104704
127016,104717
127139,104804
127261,104856
127392,104919
127464,104969
127535,104965
127679,105028
127809,105113
127923,105132
128019,105171
128113,105223
128193,105250
128354,105301
128447,105367
128548,105409
128639,105449
128680,105486
128785,105493
128918,105572
128949,105560
129021,105598
129077,105622
129121,105649
129212,105684
129206,105703
129210,105710
129248,105707
129262,105698
129282,105741
129224,105715
129233,105666
129202,105701
129177,105699
129175,105631
129102,105632
128996,105612
128972,105570
128931,105590
128882,105545
128828,105507
128777,105510
128695,105480
128667,105460
128616,105438
128538,105426
128498,105370
128479,105375
128415,105330
128339,105326
128272,105270
128247,105265
128201,105247
128150,105236
128121,105212
128067,105202
128016,105136
127995,105176
128009,105182
127945,105189
127933,105114
127984,105161
128000,105164
128037,105169
128060,105189
128143,105218
128137,105254
128274,105263
128363,105320
128399,105338
128466,105353
128518,105371
128590,105425
128721,105441
128717,105492
128845,105508
128870,105541
128924,105578
129059,105580
129050,105638
129153,105651
129175,105682
129232,105713
129337,105719
129353,105770
129398,105750
129463,105802
129509,105818
129571,105833
129651,105852
129659,105897
129698,105894
129762,105921
129844,105928
129866,105980
129920,105957
129970,105997
130043,106064
130102,106076
130181,106112
130220,106123
130295,106124
130410,106200
130458,106206
130526,106205
130566,106273
130599,106250
130727,106307
130737,106365
130817,106362
130859,106367
130891,106379
130974,106450
130977,106403
131035,106449
131025,106422
130973,106455
131001,106428
130873,106376
130770,106306
130589,106239
130437,106202
130259,106110
130009,106006
129685,105875
129369,105706
129060,105608
128740,105443
128415,105322
128051,105170
127709,105051
127374,104887
127145,104774
126861,104689
126646,104548
126427,104443
126317,104433
126175,104401
126066,104313
125983,104293
125952,104255
125901,104256
125970,104291
125927,104286
125947,104263
125996,104267
126034,104337
126136,104369
126177,104375
126254,104394
126288,104422
126424,104486
126506,104547
126614,104566
126735,104626
126801,104630
126962,104714
127085,104780
127197,104804
127307,104872
127438,104919
127574,104984
127709,105072
127827,105062
127901,105128
128002,105182
128115,105226
128251,105252
128328,105321
128447,105346
128513,105381
128654,105418
128728,105455
128820,105520
128865,105520
128991,105581
129090,105613
129123,105656
129166,105637
129284,105679
129258,105699
129307,105725
129388,105755
129376,105755
129398,105725
129464,105769
129430,105784
129504,105774
129510,105815
129496,105784
129497,105764
129551,105843
129531,105805
129557,105806
129505,105781
129521,105792
129504,105814
129520,105776
129438,105794
129432,105776
129361,105704
129408,105748
129396,105756
129354,105727
129328,105721
129271,105667
129285,105697
129274,105670
129222,105702
129158,105665
129160,105638
129173,105657
129135,105663
129111,105619
129114,105580
129109,105638
129084,105619
129126,105619
129089,105599
129127,105623
129088,105595
129117,105626
129144,105639
129135,105638
129152,105631
129147,105639
129194,105679
129204,105645
129195,105680
129224,105672
129264,105677
129318,105711
129377,105731
129407,105744
129448,105733
129485,105784
129592,105835
129624,105844
129684,105876
129695,105861
129786,105921
129870,105935
129934,105976
129956,105984
129974,105981
130095,106044
130176,106085
130243,106099
130294,106118
130337,106120
130453,106160
130551,106219
130589,106265
130640,106294
130692,106278
130763,106345
130830,106352
130893,106347
130928,106377
130993,106388
131068,106454
131127,106481
131119,106419
131181,106506
131186,106494
131233,106547
131285,106534
131383,106549
131342,106573
131359,106555
131410,106596
131448,106588
131474,106600
131454,106579
131467,106622
131482,106587
131515,106630
131456,106614
131416,106589
131394,106548
131307,106551
131261,106515
131106,106459
130888,106353
130712,106267
130482,106210
130215,106101
130001,105984
129676,105835
129377,105709
129075,105592
128769,105470
128492,105337
128165,105210
127917,105112
127740,105013
127501,104940
127310,104854
127110,104780
126997,104721
126917,104688
126796,104633
126748,104583
126615,104557
126613,104545
126622,104543
126581,104538
126631,104548
126564,104519
126614,104539
126671,104582
126698,104581
126754,104613
126787,104622
126842,104615
126937,104698
127016,104698
127066,104751
127153,104774
127229,104794
127353,104842
127462,104892
127512,104947
127596,104978
127732,105027
127860,105097
127970,105110
128077,105192
128131,105202
128302,105301
128419,105316
128538,105342
128611,105415
128724,105423
128845,105493
128997,105564
129068,105572
129206,105680
129263,105660
129388,105701
129525,105779
129612,105808
129671,105865
129719,105852
129795,105905
129914,105964
129921,105945
129984,105971
130007,105993
130020,105970
130078,106010
130093,106011
130047,106011
130031,105967
130067,105970
130066,106000
130047,105983
129969,105972
129896,105923
129917,105951
129912,105932
129872,105934
129805,105900
129759,105843
129759,105865
129706,105827
129629,105813
129630,105806
129618,105815
129559,105767
129605,105796
129557,105795
129548,105769
129513,105768
129552,105805
129506,105783
129566,105771
129536,105785
129553,105793
129639,105805
129641,105825
129622,105828
129668,105835
129715,105846
129740,105867
129746,105878
129804,105901
129814,105881
129823,105893
129891,105946
129886,105918
129971,105954
129957,105947
129966,105970
130075,105995
130094,106034
130114,106035
130138,106043
130160,106055
130255,106055
130292,106062
130317,106130
130352,106139
130402,106130
130499,106198
130523,106213
130570,106188
130635,106246
130673,106267
130749,106278
130789,106325
130815,106300
130849,106306
130865,106339
130939,106397
130929,106387
130979,106408
130965,106395
131040,106389
131084,106425
131089,106453
131122,106419
131136,106416
131205,106482
131226,106528
131259,106479
131335,106540
131351,106517
131398,106546
131502,106584
131478,106631
131534,106630
131533,106625
131644,106653
131710,106677
131710,106698
131750,106673
131782,106701
131811,106741
131856,106764
131829,106750
131872,106734
131864,106739
131886,106749
131805,106724
131780,106714
131671,106665
131525,106607
131390,106527
131168,106452
130995,106354
130679,106247
130384,106098
130146,105979
129802,105898
129453,105723
129156,105592
128786,105442
128548,105319
128277,105224
127962,105109
127740,104968
127522,104908
127411,104834
127249,104789
127103,104738
127029,104648
126953,104667
126922,104663
126941,104643
126888,104619
126927,104650
126898,104602
126981,104669
127018,104677
127021,104683
127068,104693
127134,104744
127204,104798
127276,104824
127310,104824
127390,104825
127491,104886
127552,104957
127621,104945
127715,105008
127763,105012
127879,105037
127993,105129
128092,105148
128187,105190
128236,105202
128354,105287
128505,105329
128549,105374
128622,105351
128744,105419
128811,105441
128955,105498
129050,105532
129126,105623
129188,105599
129321,105665
129455,105708
129519,105766
129612,105788
129641,105819
129710,105848
129861,105884
129896,105921
129911,105940
129975,105929
130031,105960
130093,106027
130117,105997
130124,106001
130180,106000
130204,106058
130206,106042
130251,106053
130227,106068
130207,106046
130244,106039
130285,106092
130268,106043
130222,106066
130177,106042
130179,106021
130200,106077
130174,106037
130108,106029
130075,105972
130082,106008
130055,105980
130070,105961
130031,105942
130016,105953
129992,105980
129997,105974
129966,105939
129955,105940
129911,105916
129960,105954
129940,105967
129962,105912
129931,105934
129936,105921
129991,105951
129985,105953
130001,105943
130017,105981
129999,105970
130100,105986
130099,106021
130124,106003
130169,106008
130186,106013
130211,106055
130236,106038
130313,106069
130334,106119
130328,106107
130458,106172
130486,106151
130533,106173
130580,106173
130617,106205
130672,106281
130728,106266
130780,106292
130820,106294
130818,106319
130933,106322
131022,106394
131048,106401
131108,106380
131171,106412
131229,106472
131303,106502
131326,106527
131401,106535
131455,106564
131518,106596
131583,106614
131630,106639
131656,106657
131717,106687
131803,106724
131839,106707
131905,106752
131874,106739
131929,106726
132000,106810
132041,106802
132029,106803
132029,106808
132119,106817
132130,106886
132202,106864
132248,106896
132208,106883
132249,106900
132374,106941
132392,106977
132397,106938
132448,106976
132482,106986
132569,107008
132619,107044
132636,107054
132703,107072
132730,107102
132832,107104
132823,107117
132884,107144
132820,107084
132827,107123
132794,107113
132699,107060
132540,107016
132400,106940
132186,106859
132003,106763
131761,106667
131452,106573
131125,106378
130893,106295
130563,106184
130218,106034
129940,105906
129558,105776
129309,105654
129086,105555
128838,105457
128566,105350
128371,105242
128250,105200
128088,105147
127978,105055
127858,105059
127763,105002
127720,104985
127724,104961
127728,104976
127668,104965
127677,104962
127676,104971
127768,104989
127792,104995
127797,105052
127836,105017
127969,105084
127983,105110
128069,105118
128148,105142
128260,105185
128323,105271
128419,105284
128495,105318
128597,105364
128690,105391
128802,105447
128943,105521
129020,105539
129118,105576
129202,105630
129328,105675
129463,105735
129525,105760
129627,105779
129722,105830
129845,105889
129944,105926
130039,105958
130076,105988
130183,106004
130305,106077
130413,106121
130426,106135
130503,106154
130570,106185
130687,106258
130735,106261
130815,106300
130808,106277
130895,106332
130936,106380
130978,106383
130965,106377
130986,106390
130994,106372
131062,106388
131057,106408
131070,106402
131031,106358
131034,106388
131082,106402
131025,106372
131021,106353
130966,106347
131007,106372
130979,106391
130997,106333
130941,106353
130913,106348
130916,106351
130909,106320
130872,106333
130888,106315
130853,106337
130867,106324
130888,106308
130859,106347
130858,106317
130843,106333
130863,106309
130952,106352
130936,106352
130923,106332
130939,106336
130975,106329
131023,106377
131032,106382
131048,106395
131035,106364
131155,106415
131183,106444
131209,106465
131205,106475
131251,106503
131297,106500
131354,106524
131378,106520
131426,106553
131408,106527
131435,106587
131535,106571
131531,106622
131499,106582
131580,106612
131631,106662
131650,106650
131678,106646
131726,106647
131732,106694
131845,106701
131897,106736
131936,106752
131960,106761
131965,106750
132060,106789
132118,106841
132116,106848
132175,106840
132149,106880
132271,106908
132277,106921
132322,106895
132284,106919
132315,106920
132313,106943
132375,106939
132362,106927
132270,106902
132305,106919
132331,106917
132290,106897
132252,106898
132234,106867
132160,106846
132214,106867
132215,106856
132169,106822
132143,106813
132174,106827
132175,106827
132203,106846
132179,106832
132161,106820
132179,106857
132207,106871
132237,106851
132236,106884
132278,106883
132269,106880
132339,106927
132366,106905
132336,106891
132362,106913
132404,106920
132362,106916
132318,106902
132300,106856
132129,106817
132077,106770
131943,106726
131722,106645
131553,106580
131279,106459
131051,106352
130805,106253
130513,106155
130247,106016
129955,105891
129703,105804
129506,105701
129239,105618
129040,105505
128791,105422
128678,105372
128525,105305
128372,105246
128255,105174
128137,105133
128098,105105
128023,105101
127994,105076
127900,105029
127865,105006
127887,105025
127881,105029
127896,105046
127844,105013
127864,105005
127937,105064
127967,105045
127966,105079
128044,105084
128016,105091
128150,105153
128194,105186
128277,105202
128331,105232
128420,105271
128489,105314
128646,105371
128725,105404
128737,105402
128885,105467
128970,105490
129047,105554
129136,105578
129222,105614
129270,105641
129409,105676
129503,105717
129552,105736
129630,105790
129735,105823
129836,105854
129922,105913
129994,105934
130047,105951
130145,106004
130254,106023
130285,106049
130374,106078
130394,106102
130476,106133
130528,106167
130563,106174
130580,106186
130604,106177
130598,106214
130689,106239
130687,106226
130641,106205
130662,106201
130660,106211
130669,106230
130683,106210
130644,106200
130636,106198
130630,106193
130618,106201
130646,106203
130574,106172
130567,106161
130562,106172
130544,106184
130550,106137
130489,106157
130474,106121
130456,106130
130428,106133
130423,106136
130422,106086
130339,106073
130403,106124
130362,106096
130365,106099
130379,106102
130348,106065
130385,106098
130433,106121
130430,106134
130412,106108
130467,106138
130518,106145
130537,106168
130576,106160
130568,106175
130552,106139
130605,106192
130641,106177
130672,106223
130677,106215
130704,106218
130722,106252
130807,106290
130811,106278
130845,106302
130810,106272
130924,106334
130953,106328
130960,106350
130984,106348
131004,106353
131078,106374
131076,106417
131140,106431
131143,106427
131154,106431
131189,106444
131293,106482
131297,106468
131330,106483
131346,106474
131428,106539
131470,106566
131529,106544
131565,106568
131588,106595
131656,106618
131714,106618
131744,106642
131746,106671
131803,106678
131864,106716
131890,106724
131900,106737
131919,106740
131912,106745
132033,106756
132040,106772
132063,106784
132041,106801
132041,106784
132124,106800
132098,106809
132177,106819
132168,106828
132177,106804
132238,106866
132286,106862
132321,106900
132320,106913
132347,106904
132428,106918
132396,106932
132479,106972
132517,106979
132530,106952
132601,107014
132655,107006
132657,107015
132689,107012
132704,107071
132761,107074
132739,107038
132715,107063
132645,107011
132619,107012
132539,106956
132343,106917
132201,106829
131936,106714
131709,106654
131443,106517
131186,106398
130833,106277
130512,106126
130205,105998
129881,105892
129520,105750
129231,105564
128907,105453
128660,105373
128394,105261
128133,105122
127961,105095
127762,105008
127660,104927
127531,104855
127397,104839
127325,104746
127210,104740
127182,104702
127165,104728
127176,104713
127129,104674
127115,104696
127160,104707
127239,104727
127233,104765
127263,104765
127296,104766
127401,104843
127455,104828
127581,104857
127584,104899
127651,104902
127797,104994
127873,105057
127903,105018
127990,105078
128052,105086
128146,105143
128222,105160
128316,105210
128353,105204
128357,105229
128508,105282
128563,105317
128636,105332
128677,105333
128761,105378
128834,105451
128919,105450
129038,105484
129096,105536
129173,105579
129295,105606
129376,105652
129418,105686
129512,105724
129535,105739
129679,105763
129775,105805
129807,105841
129887,105834
129917,105879
129988,105900
130026,105905
130066,105943
130067,105940
130089,105948
130114,105987
130151,105986
130177,105985
130135,105985
130152,105957
130231,106028
130219,106008
130176,106012
130161,105986
130212,105976
130241,106021
130225,106002
130216,106022
130176,105982
130227,105984
130221,106019
130251,106021
130270,106004
130249,105984
130272,106030
130304,106035
130339,106035
130305,106073
130341,106046
130383,106054
130459,106102
130433,106126
130437,106107
130480,106105
130553,106143
130612,106143
130614,106162
130662,106184
130651,106191
130709,106225
130774,106260
130801,106263
130856,106286
130843,106301
130928,106270
130992,106340
131026,106342
131040,106357
131071,106348
131163,106413
131223,106407
131269,106448
131294,106446
131302,106465
131413,106522
131460,106541
131508,106532
131548,106549
131533,106566
131625,106581
131666,106601
131714,106624
131710,106652
131724,106629
131831,106678
131878,106705
131893,106705
131938,106703
131949,106733
131976,106745
132035,106752
132060,106777
132071,106773
132091,106795
132126,106770
132131,106803
132166,106798
132172,106824
132151,106803
132202,106836
132214,106826
132191,106824
132163,106811
132196,106814
132233,106848
132252,106830
132206,106844
132201,106818
132232,106836
132244,106826
132243,106849
132290,106851
132277,106840
132348,106870
132373,106887
132391,106896
132406,106901
132390,106906
132452,106905
132536,106984
132516,106981
132544,106966
132562,106969
132572,106973
132553,107003
132564,106959
132501,106955
132384,106887
132265,106827
132210,106813
132017,106717
131801,106657
131527,106528
131357,106438
131099,106406
130789,106247
130521,106126
130222,105958
129983,105927
129744,105769
129476,105702
129237,105566
129004,105471
128839,105450
128690,105375
128521,105304
128413,105237
128288,105141
128221,105163
128241,105156
128191,105134
128178,105119
128186,105132
128242,105178
128281,105160
128343,105174
128392,105207
128428,105218
128581,105275
128650,105354
128731,105372
128842,105386
128894,105447
129025,105460
129141,105574
129224,105579
129298,105628
129369,105624
129509,105694
129580,105721
129682,105759
129751,105826
129827,105824
129956,105899
130049,105924
130119,105953
130208,105981
130284,106016
130458,106070
130509,106131
130609,106135
130704,106209
130768,106225
130945,106267
131018,106325
131107,106352
131161,106380
131241,106422
131420,106488
131440,106502
131531,106534
131578,106567
131654,106586
131701,106623
131788,106637
131780,106655
131810,106626
131823,106667
131918,106676
131945,106701
131974,106717
131903,106678
131922,106712
131953,106703
131942,106686
131934,106679
131867,106647
131860,106669
131842,106694
131797,106644
131766,106606
131742,106616
131697,106599
131670,106569
131617,106586
131621,106559
131565,106547
131532,106538
131557,106550
131529,106525
131484,106531
131449,106506
131456,106501
131524,106531
131467,106497
131485,106523
131456,106498
131503,106520
131521,106545
131553,106550
131568,106524
131587,106571
131656,106585
131699,106639
131736,106623
131828,106633
131802,106678
131884,106675
131971,106751
132008,106740
132068,106738
132097,106797
132153,106818
132241,106838
132258,106850
132336,106829
132348,106868
132459,106890
132479,106916
132528,106936
132568,106938
132602,106955
132632,106999
132718,107031
132777,107033
132761,107040
132817,107065
132868,107079
132876,107084
132962,107134
132979,107098
132973,107118
133065,107172
133107,107165
133127,107166
133141,107185
133209,107199
133237,107241
133346,107278
133395,107293
133414,107323
133441,107304
133524,107342
133528,107385
133598,107375
133634,107386
133680,107405
133714,107411
133790,107447
133784,107453
133808,107482
133842,107471
133867,107507
133925,107477
133911,107514
133940,107499
133948,107537
134011,107510
134034,107571
134042,107572
134050,107580
134053,107569
134139,107568
134111,107586
134141,107591
134066,107558
134063,107535
134044,107545
133939,107479
133796,107450
133658,107376
133481,107297
133361,107246
133084,107145
132843,107061
132607,106931
132358,106869
132103,106762
131879,106607
131594,106535
131319,106390
131084,106328
130849,106244
130664,106146
130452,106067
130265,105986
130076,105926
129994,105872
129845,105831
129776,105759
129669,105706
129644,105722
129578,105724
129525,105688
129484,105654
129503,105664
129512,105671
129583,105715
129593,105673
129618,105704
129600,105704
129704,105737
129784,105790
129821,105781
129883,105809
129928,105822
130026,105910
130048,105916
130166,105933
130204,105939
130261,105987
130375,106009
130455,106072
130525,106075
130593,106129
130627,106129
130772,106208
130825,106186
130889,106259
130977,106273
131083,106323
131195,106326
131250,106407
131361,106472
131444,106469
131534,106528
131626,106563
131725,106569
131777,106604
131888,106628
131959,106670
132037,106757
132071,106716
132149,106731
132163,106780
132195,106768
132284,106826
132286,106836
132325,106844
132308,106819
132329,106809
132377,106875
132318,106814
132310,106817
132305,106822
132261,106793
132268,106815
132237,106800
132183,106751
132141,106737
132066,106741
132091,106721
132036,106707
131987,106715
131900,106629
131901,106653
131871,106649
131844,106616
131769,106603
131704,106575
131677,106557
131692,106558
131664,106518
131627,106523
131609,106526
131660,106576
131674,106578
131692,106582
131737,106560
131708,106583
131788,106602
131844,106636
131925,106649
131921,106667
131973,106684
131981,106719
132068,106743
132111,106708
132166,106731
132155,106734
132224,106796
132249,106815
132312,106821
132323,106823
132316,106813
132384,106826
132470,106869
132431,106917
132501,106900
132488,106908
132534,106924
132597,106910
132603,106968
132682,106943
132650,106936
132759,106999
132800,107025
132851,107050
132840,107030
132850,107016
132964,107089
132987,107089
133055,107131
133049,107163
133053,107095
133164,107173
133180,107154
133208,107158
133291,107203
133255,107238
133345,107263
133388,107261
133456,107260
133483,107296
133462,107288
133562,107343
133631,107335
133647,107385
133651,107359
133693,107371
133794,107400
133811,107447
133816,107440
133846,107419
133877,107424
133949,107465
134007,107501
133992,107514
134025,107481
134077,107538
134126,107552
134168,107560
134157,107570
134135,107545
134186,107572
134177,107561
134101,107535
134074,107530
133969,107495
133827,107396
133736,107350
133573,107288
133377,107227
133112,107131
132883,107029
132695,106941
132369,106819
132108,106686
131859,106585
131541,106513
131291,106380
131062,106277
130822,106169
130611,106107
130380,106004
130276,105964
130144,105888
129990,105868
129854,105758
129837,105763
129796,105756
129739,105720
129742,105709
129716,105678
129717,105740
129748,105732
129758,105717
129822,105762
129784,105734
129879,105796
129937,105830
129986,105833
130033,105839
130098,105875
130135,105930
130238,105953
130309,105975
130339,106008
130398,105981
130546,106088
130588,106105
130685,106137
130727,106150
130805,106145
130884,106191
130973,106235
131031,106243
131125,106269
131184,106322
131288,106388
131343,106431
131433,106456
131507,106437
131606,106500
131716,106560
131835,106556
131888,106589
131956,106614
132024,106706
132100,106689
132206,106750
132263,106740
132312,106785
132332,106816
132442,106854
132476,106884
132550,106867
132587,106892
132668,106893
132688,106955
132750,106967
132763,106943
132754,106949
132797,106965
132811,106988
132845,107002
132833,106985
132786,106984
132765,106970
132806,106999
132802,106990
132756,106990
132717,106958
132723,106993
132774,106977
132730,106966
132709,106936
132713,106926
132657,106963
132692,106957
132633,106936
132644,106942
132600,106941
132651,106901
132650,106962
132683,106941
132656,106936
132667,106956
132701,106925
132729,106964
132761,106946
132769,106997
132740,106977
132800,106974
132814,107005
132888,107034
132881,107026
132872,107011
132960,107066
132989,107038
133006,107073
133045,107072
133025,107085
133103,107095
133142,107127
133175,107154
133211,107131
133234,107143
133308,107226
133384,107241
133400,107233
133442,107262
133497,107248
133564,107323
133627,107323
133644,107321
133732,107386
133727,107344
133839,107425
133883,107434
133933,107454
133964,107473
133934,107463
134055,107483
134069,107525
134109,107549
134093,107512
134162,107520
134174,107577
134244,107560
134210,107591
134195,107579
134254,107571
134289,107618
134303,107587
134315,107626
134289,107583
134292,107594
134362,107660
134395,107650
134424,107644
134413,107632
134486,107649
134505,107734
134569,107730
134625,107721
134682,107729
134697,107758
134780,107776
134828,107825
134899,107837
134875,107839
134904,107864
135019,107887
135019,107899
135075,107913
135072,107927
135115,107934
135164,107957
135163,107949
135146,107925
135075,107893
135065,107903
135017,107849
134881,107813
134718,107756
134575,107706
134377,107598
134167,107544
133948,107432
133681,107331
133362,107199
133087,107103
132848,106952
132563,106868
132267,106762
131954,106604
131659,106529
131435,106401
131198,106320
130991,106244
130789,106169
130658,106093
130519,106042
130455,106006
130393,105975
130294,105943
130266,105930
130296,105935
130303,105913
130301,105934
130325,105934
130371,105990
130414,105983
130452,106011
130499,106031
130530,106026
130613,106098
130673,106091
130741,106109
130787,106134
130839,106176
130897,106203
131003,106263
131049,106268
131130,106291
131142,106290
131248,106335
131318,106351
131362,106383
131434,106408
131491,106428
131544,106457
131616,106463
131653,106515
131765,106537
131800,106574
131863,106602
132009,106621
132056,106676
132147,106698
132228,106740
132346,106809
132447,106822
132503,106859
132537,106903
132583,106891
132695,106945
132789,106974
132858,107007
132897,107003
132908,107027
133020,107057
133035,107052
133125,107119
133109,107079
133141,107137
133214,107161
133266,107147
133287,107170
133279,107163
133294,107181
133347,107233
133414,107202
133361,107189
133346,107186
133343,107199
133347,107199
133340,107174
133383,107170
133316,107180
133313,107186
133377,107203
133378,107183
133314,107204
133315,107181
133347,107167
133415,107226
133422,107207
133407,107243
133443,107227
133465,107259
133503,107243
133546,107271
133624,107324
133584,107298
133678,107363
133759,107364
133868,107401
133864,107435
133947,107437
134047,107486
134152,107526
134225,107541
134306,107610
134347,107587
134453,107672
134545,107694
134644,107746
134673,107748
134738,107801
134831,107813
134966,107859
135023,107893
135060,107898
135140,107954
135208,107976
135293,108031
135357,108011
135457,108085
135500,108091
135625,108103
135734,108178
135776,108205
135846,108207
135916,108238
136005,108299
136106,108334
136188,108347
136267,108388
136336,108400
136427,108455
136549,108497
136583,108507
136630,108533
136691,108538
136800,108599
136871,108599
136937,108652
136964,108690
137030,108701
137096,108735
137203,108748
137248,108781
137278,108805
137305,108785
137425,108863
137482,108892
137533,108883
137539,108916
137604,108926
137673,108949
137756,108960
137776,109013
137778,109000
137839,108991
137938,109039
137958,109041
138014,109089
138005,109097
138028,109089
138142,109152
138145,109115
138179,109147
138163,109138
138188,109137
138269,109160
138247,109203
138241,109153
138173,109118
138178,109108
138110,109144
138004,109047
137946,109021
137726,108947
137614,108900
137461,108824
137254,108721
137062,108649
136795,108547
136529,108449
136293,108378
135989,108270
135675,108121
135413,107976
135120,107898
134837,107797
134538,107658
134253,107546
133949,107462
133736,107361
133572,107282
133391,107194
133236,107137
133078,107075
133013,107046
133001,107072
132947,107023
132929,107016
132833,107025
132882,107028
132986,107044
132997,107072
133029,107068
133034,107092
133094,107123
133205,107126
133269,107188
133321,107214
133349,107212
133496,107262
133578,107316
133666,107329
133734,107357
133796,107401
133900,107421
134032,107479
134063,107503
134169,107512
134200,107588
134311,107602
134407,107654
134484,107691
134553,107703
134606,107714
134710,107754
134813,107828
134849,107818
134902,107850
134989,107861
135133,107950
135151,107934
135242,107971
135336,107981
135370,108006
135494,108099
135527,108075
135586,108106
135639,108127
135682,108141
135782,108172
135801,108167
135872,108192
135837,108228
135857,108218
135924,108244
135947,108220
135983,108270
135947,108272
135956,108250
135988,108284
135999,108256
135961,108269
135962,108233
135979,108268
135995,108273
135993,108255
135979,108245
135917,108259
135908,108243
135974,108240
135956,108243
135912,108211
135883,108226
135888,108209
135951,108237
135930,108245
135926,108218
135933,108244
135973,108232
135986,108309
136005,108251
136063,108260
136035,108311
136074,108296
136135,108324
136142,108340
136181,108320
136177,108360
136203,108356
136280,108361
136335,108427
136334,108414
136380,108449
136427,108445
136524,108465
136557,108481
136595,108494
136610,108488
136670,108530
136737,108585
136743,108542
136804,108567
136839,108609
136943,108647
136952,108659
137001,108617
137065,108680
137062,108675
137150,108710
137186,108749
137225,108739
137250,108743
137288,108763
137342,108809
137354,108786
137452,108849
137435,108868
137487,108823
137553,108888
137628,108891
137614,108894
137663,108888
137635,108908
137744,108990
137775,108971
137839,108976
137808,108979
137839,109003
137915,109012
138016,109044
137980,109062
138038,109055
138091,109086
138178,109141
138237,109159
138215,109144
138274,109139
138309,109158
138426,109208
138451,109219
138531,109254
138511,109270
138553,109244
138675,109309
138674,109320
138705,109314
138790,109345
138780,109373
138844,109375
138890,109398
138950,109410
138930,109387
138990,109456
139025,109464
139054,109432
139097,109478
