11111,11111
0,0
82205,81937
106478,105490
106470,105488
106472,105472
106473,105462
106504,105480
106481,105483
106485,105524
106471,105500
106472,105530
106482,105475
106517,105509
106462,105510
106479,105476
106456,105480
106456,105478
106470,105485
106428,105452
106456,105490
106467,105489
106430,105473
106436,105470
106440,105511
106425,105480
106443,105462
106418,105476
106405,105474
106350,105461
106355,105401
106312,105454
106260,105415
106211,105354
106121,105372
106022,105292
105960,105292
105821,105213
105755,105167
105634,105113
105475,105084
105396,105021
105217,104967
105074,104862
104981,104839
104818,104777
104667,104694
104570,104668
104417,104631
104321,104547
104227,104511
104075,104476
103982,104461
103899,104404
103849,104371
103813,104382
103743,104349
103721,104316
103656,104300
103687,104294
103623,104322
103590,104269
103612,104283
103634,104300
103587,104273
103631,104307
103630,104266
103651,104307
103690,104310
103654,104284
103710,104334
103684,104330
103773,104359
103732,104398
103764,104349
103822,104389
103831,104416
103862,104414
103875,104431
103947,104434
103995,104475
103986,104498
104001,104469
104100,104496
104097,104546
104128,104513
104210,104535
104251,104563
104279,104587
104311,104628
104384,104597
104388,104664
104432,104680
104472,104650
104514,104722
104546,104677
104589,104730
104580,104738
104582,104713
104628,104775
104628,104784
104685,104730
104646,104782
104701,104738
104680,104760
104742,104787
104723,104780
104701,104777
104723,104759
104733,104809
104740,104779
104742,104753
104736,104801
104768,104797
104741,104811
104728,104778
104779,104816
104757,104812
104763,104817
104771,104775
104817,104831
104779,104825
104838,104826
104845,104836
104858,104860
104873,104847
105434,105105
105826,105260
105804,105246
104086,104475
104007,104440
103922,104426
103562,104285
103580,104297
103613,104295
103614,104313
104242,104563
104263,104562
104316,104570
104349,104576
104395,104646
104382,104639
104455,104647
104453,104653
104523,104656
104547,104692
104538,104674
104593,104714
104602,104708
104645,104712
104668,104740
104664,104723
104716,104773
104715,104757
104765,104760
104769,104772
104758,104764
104798,104807
104801,104803
104843,104765
104868,104832
104834,104812
104837,104797
104878,104788
104860,104845
104883,104823
104867,104830
104898,104821
104897,104819
104922,104872
104950,104857
104999,104846
104991,104862
105061,104890
105045,104879
105094,104878
105100,104895
105126,104908
105200,104960
105206,104924
105280,104970
105266,104997
105337,105005
105373,105020
105391,105013
105458,105055
105501,105092
105515,105071
105596,105138
105618,105118
105635,105188
105673,105138
105715,105191
105753,105196
105754,105180
105844,105226
105843,105259
105887,105296
105885,105278
105934,105290
105957,105294
105984,105313
106000,105291
106019,105336
106024,105341
106005,105343
106071,105339
106046,105368
106016,105334
106085,105348
106051,105351
106066,105338
106057,105343
106052,105305
106066,105326
106056,105336
106058,105318
106040,105311
106094,105278
106046,105317
106088,105305
106113,105299
106137,105345
106122,105330
106121,105341
106166,105340
106175,105339
106193,105341
106186,105363
106237,105360
106212,105370
106181,105349
106172,105295
106154,105323
106137,105340
106093,105292
106046,105240
106024,105262
105920,105249
105875,105200
105825,105152
105721,105140
105650,105130
105569,105052
105520,105072
105431,105014
105346,104977
105305,104973
105232,104937
105180,104939
105086,104870
105041,104861
105026,104833
104906,104827
104875,104780
104888,104778
104823,104808
104802,104770
104809,104767
104771,104788
104745,104767
104769,104747
104737,104779
104734,104735
104752,104791
104748,104740
104748,104737
104790,104760
104766,104812
104771,104746
104810,104782
104805,104797
104806,104797
104849,104806
104851,104793
104856,104810
104861,104827
104856,104822
104897,104813
104901,104858
104889,104827
104938,104860
104937,104878
105013,104854
104975,104898
104996,104860
105019,104897
105040,104882
105050,104896
105063,104902
105097,104932
105050,104883
105089,104909
105106,104910
105103,104936
105126,104937
105151,104954
105147,104951
105150,104908
105146,104923
105165,104935
105178,104951
105136,104966
105175,104936
105170,104982
105168,104944
105146,104960
105135,104956
105170,104921
105130,104962
105129,104913
105168,104921
105177,104913
105161,104939
105155,104934
105197,104933
105149,104959
105176,104915
105212,104933
105217,104962
105187,104910
105239,104942
105207,104953
105226,104930
105280,104980
105307,104934
105348,104956
105340,104980
105420,104946
105427,104983
105500,105006
105497,105054
105546,105045
105622,105101
105630,105083
105678,105084
105730,105145
105745,105134
105789,105135
105860,105150
105895,105210
105918,105188
105949,105225
105984,105223
106018,105232
106021,105294
106113,105254
106120,105288
106145,105292
106173,105301
106196,105333
106208,105350
106206,105289
106256,105326
106283,105353
106316,105352
106311,105380
106322,105338
106385,105401
106365,105402
106378,105384
106410,105428
106413,105396
106478,105424
106461,105409
106502,105416
106520,105435
106570,105440
106568,105455
106578,105436
106629,105485
106611,105467
106680,105476
106658,105504
106716,105546
106699,105539
106733,105525
106766,105546
106773,105501
106782,105564
106816,105549
106858,105575
106835,105612
106846,105570
106859,105593
106894,105602
106876,105585
106894,105586
106962,105623
106936,105597
106956,105604
106918,105618
106935,105572
106926,105635
106915,105588
106915,105619
106903,105596
106856,105575
106845,105577
106808,105526
106740,105524
106676,105505
106647,105466
106578,105411
106513,105398
106439,105373
106364,105325
106260,105281
106208,105245
106107,105251
106013,105148
105922,105190
105826,105109
105788,105087
105685,105038
105591,105041
105546,104985
105503,105006
105434,104921
105384,104915
105341,104902
105304,104860
105312,104877
105240,104844
105210,104863
105198,104826
105217,104844
105155,104819
105188,104861
105148,104839
105164,104822
105149,104837
105143,104843
105154,104823
105142,104835
105112,104810
105147,104819
105139,104831
105143,104808
105127,104847
105096,104805
105155,104832
105129,104836
105169,104841
105162,104837
105147,104841
105197,104804
105177,104862
105198,104835
105190,104857
105236,104860
105250,104879
105256,104845
105307,104875
105315,104908
105337,104905
105388,104906
105404,104939
105434,104939
105437,104935
105475,104944
105494,104951
105513,104967
105520,104964
105500,104954
105540,104983
105577,104970
105550,104979
105556,104971
105565,104992
105563,104994
105539,105000
105568,104999
105550,104991
105543,104997
105550,104972
105540,104952
105565,104969
105546,104998
105523,104971
105554,104955
105584,104991
105540,105000
105560,104948
105570,104965
105582,105004
105554,104984
105601,104962
105590,105003
105643,104996
105637,105004
105626,104992
105707,105011
105686,105051
105741,105032
105740,105046
105769,105050
105754,105049
105831,105107
105838,105080
105846,105107
105864,105091
105897,105109
105922,105126
105932,105132
105962,105143
105990,105154
105995,105128
106016,105177
106014,105159
106066,105196
106056,105180
106076,105179
106132,105189
106118,105205
106171,105216
106187,105227
106210,105236
106223,105262
106251,105254
106280,105282
106312,105282
106295,105270
106349,105316
106384,105307
106354,105306
106423,105325
106435,105313
106403,105313
106472,105347
106483,105362
106444,105345
106493,105356
106523,105362
106493,105369
106544,105357
106535,105405
106538,105410
106559,105405
106577,105393
106567,105415
106580,105430
106603,105385
106608,105432
106631,105425
106658,105431
106627,105462
106650,105406
106639,105449
106708,105449
106680,105447
106692,105463
106698,105438
106728,105464
106723,105474
106715,105445
106746,105466
106782,105450
106752,105460
106804,105504
106795,105494
106789,105517
106817,105457
106818,105474
106827,105500
106842,105479
106799,105513
106746,105464
106770,105461
106721,105443
106661,105443
106604,105398
106589,105358
106493,105338
106463,105321
106376,105293
106316,105226
106224,105242
106148,105156
106058,105144
105979,105140
105896,105074
105845,105042
105768,105024
105728,104981
105670,104970
105627,104973
105554,104902
105493,104954
105482,104899
105461,104869
105418,104862
105392,104840
105355,104855
105360,104837
105347,104821
105325,104843
105297,104829
105287,104830
105258,104835
105291,104835
105317,104823
105310,104810
105341,104817
105310,104809
105309,104845
105310,104854
105354,104816
105345,104856
105343,104827
105367,104844
105390,104869
105409,104849
105445,104841
105454,104910
105439,104860
105494,104878
105515,104888
105494,104887
105550,104899
105531,104945
105546,104914
105621,104964
105621,104919
105638,104957
105688,104952
105662,104989
105725,104966
105759,104992
105754,105012
105775,105012
105827,105027
105790,105016
105806,105029
105811,105013
105852,105064
105845,105030
105890,105036
105878,105043
105899,105067
105900,105087
105894,105039
105927,105065
105927,105068
105911,105050
105944,105083
105945,105066
105934,105092
105958,105077
105926,105068
105982,105107
105957,105094
105991,105097
105973,105077
105978,105116
106009,105088
106000,105106
105988,105110
106016,105114
105987,105106
106024,105138
106012,105102
106082,105109
106050,105134
106067,105157
106103,105123
106149,105156
106095,105116
106146,105180
106130,105168
106141,105181
106184,105160
106174,105201
106228,105184
106190,105198
106261,105221
106281,105227
106260,105193
106334,105243
106299,105236
106353,105233
106378,105268
106418,105264
106437,105282
106434,105293
106412,105279
106466,105254
106466,105301
106476,105317
106523,105319
106490,105293
106524,105284
106530,105346
106515,105293
106557,105298
106572,105353
106589,105345
106585,105355
106600,105342
106647,105357
106647,105334
106649,105381
106624,105352
106694,105376
106704,105366
106683,105405
106710,105402
106728,105399
106740,105403
106730,105424
106710,105388
106775,105405
106762,105400
106789,105421
106770,105454
106780,105423
106852,105473
106808,105421
106863,105478
106851,105432
106858,105477
106853,105444
106893,105483
106855,105445
106853,105477
106897,105488
106919,105491
106934,105490
106921,105495
106910,105472
106930,105476
106948,105496
106926,105512
106951,105474
106960,105506
106912,105496
106908,105482
106929,105466
106912,105483
106865,105454
106878,105447
106791,105437
106763,105433
106716,105399
106633,105347
106611,105322
106526,105344
106454,105271
106378,105229
106305,105219
106243,105174
106180,105135
106062,105078
106035,105089
105978,105078
105894,105001
105801,105002
105742,104987
105679,104945
105633,104917
105574,104906
105555,104881
105474,104837
105448,104834
105450,104878
105377,104824
105383,104806
105372,104798
105308,104794
105346,104793
105320,104813
105304,104758
105310,104787
105281,104783
105321,104778
105306,104801
105325,104803
105325,104766
105296,104767
105362,104790
105345,104786
105369,104818
105358,104771
105358,104802
105350,104805
105358,104805
105391,104793
105378,104843
105380,104791
105415,104820
105435,104838
105432,104818
105457,104862
105459,104825
105498,104839
105501,104843
105513,104860
105577,104843
105559,104887
105607,104904
105569,104890
105598,104910
105618,104882
105678,104881
105668,104903
105651,104917
105692,104884
105689,104945
105709,104907
105692,104936
105761,104915
105746,104956
105725,104921
105758,104953
105780,104945
105733,104950
105760,104914
105775,104967
105749,104932
105777,104970
105746,104955
105790,104941
105753,104952
105791,104966
105790,104959
105796,104962
105838,104989
105861,104978
105840,105004
105826,104944
105876,104997
105868,104964
105847,105001
105881,104997
105927,105001
105908,105038
105899,104981
105948,105026
105947,105044
105963,105064
105947,105062
106004,105011
105986,105091
106016,105087
106048,105072
106070,105087
106060,105115
106089,105081
106111,105110
106093,105099
106108,105097
106125,105125
106160,105117
106160,105117
106129,105152
106157,105150
106197,105133
106179,105151
106203,105147
106209,105140
106264,105155
106255,105178
106249,105152
106253,105182
106267,105204
106245,105182
106300,105170
106287,105178
106315,105175
106317,105192
106332,105229
106314,105187
106351,105231
106358,105219
106353,105213
106400,105259
106393,105234
106452,105232
106417,105277
106431,105266
106433,105268
106460,105247
106465,105297
106458,105236
106485,105291
106487,105242
106481,105279
106495,105272
106486,105285
106514,105268
106475,105289
106497,105275
106486,105235
106494,105274
106499,105244
106528,105263
106497,105306
106553,105254
106534,105282
106577,105303
106564,105297
106578,105309
106606,105289
106622,105323
106628,105298
106647,105327
106652,105357
106671,105321
106686,105333
106698,105338
106725,105339
106748,105371
106741,105403
106742,105349
106800,105408
106800,105362
106795,105391
106821,105411
106792,105414
106846,105372
106806,105419
106770,105388
106727,105374
106706,105323
106670,105332
106632,105319
106572,105255
106509,105258
106426,105231
106345,105188
106282,105170
106167,105125
106124,105081
106055,105051
105976,105023
105890,104979
105812,104957
105738,104906
105676,104887
105619,104887
105578,104842
105495,104819
105452,104791
105377,104781
105358,104766
105309,104728
105288,104720
105259,104708
105236,104697
105218,104701
105201,104683
105174,104667
105179,104679
105138,104667
105114,104631
105155,104662
105085,104669
105119,104659
105099,104668
105116,104673
105077,104669
105089,104626
105098,104630
105085,104653
105075,104653
105056,104637
105082,104641
105078,104636
105080,104655
105046,104646
105056,104609
105053,104658
105074,104631
105107,104640
105068,104661
105087,104667
105114,104657
105121,104649
105195,104679
105122,104674
105166,104669
105212,104682
105206,104715
105215,104675
105234,104727
105221,104709
105290,104709
105265,104741
105262,104681
105285,104749
105293,104745
105303,104732
105321,104710
105315,104742
105369,104739
105353,104750
105377,104752
105359,104755
105377,104746
105394,104761
105378,104749
105395,104751
105375,104737
105360,104751
105416,104766
105423,104768
105382,104775
105380,104753
105444,104759
105398,104773
105448,104774
105435,104778
105437,104773
105463,104770
105465,104772
105472,104775
105470,104800
105506,104812
105492,104787
105528,104837
105568,104816
105535,104800
105586,104832
105616,104839
105597,104829
105605,104832
105619,104857
105642,104881
105653,104861
105685,104850
105703,104876
105690,104905
105736,104877
105749,104896
105746,104883
105776,104927
105780,104889
105824,104925
105824,104939
105855,104944
105862,104950
105853,104977
105866,104972
105943,104962
105936,105011
105941,104968
106007,105003
106012,104990
106006,105016
106004,105025
106011,105029
106082,105023
106058,105043
106075,105074
106101,105031
106127,105069
106155,105051
106166,105071
106161,105069
106192,105077
106171,105082
106183,105084
106209,105069
106222,105108
106220,105082
106245,105112
106223,105142
106247,105095
106271,105136
106259,105090
106284,105120
106245,105080
106295,105093
106294,105131
106336,105142
106334,105132
106335,105162
106379,105147
106373,105187
106388,105175
106422,105164
106404,105198
106471,105188
106466,105169
106485,105201
106479,105235
106513,105204
106560,105247
106521,105230
106552,105228
106556,105227
106557,105238
106593,105270
106550,105239
106569,105266
106554,105261
106580,105246
106587,105242
106541,105246
106530,105251
106540,105219
106546,105243
106507,105203
106471,105213
106425,105164
106408,105155
106339,105126
106294,105106
106258,105073
106155,105058
106071,105012
106076,104998
105959,104970
105887,104936
105835,104883
105746,104889
105680,104824
105623,104833
105538,104756
105497,104770
105406,104726
105345,104675
105333,104653
105250,104670
105229,104647
105181,104603
105164,104608
105162,104616
105095,104612
105074,104582
105086,104597
105103,104568
105067,104569
105050,104574
105104,104563
105071,104594
105073,104581
105084,104589
105067,104586
105072,104557
105083,104562
105035,104553
105078,104575
105036,104567
105061,104604
105061,104541
105085,104611
105037,104547
105060,104566
105049,104570
105103,104607
105100,104570
105129,104547
105122,104631
105139,104592
105172,104615
105152,104596
105191,104615
105226,104626
105206,104660
105239,104629
105259,104684
105258,104672
105302,104693
105319,104652
105397,104705
105389,104700
105401,104699
105373,104715
105436,104687
105430,104741
105411,104686
105451,104716
105464,104716
105435,104725
105483,104746
105479,104715
105512,104751
105454,104719
105467,104713
105478,104711
105464,104724
105468,104721
105484,104750
105461,104729
105480,104742
105464,104714
105451,104726
105451,104748
105484,104702
105461,104723
105462,104755
105486,104734
105490,104774
105469,104739
105549,104743
105546,104787
105510,104758
105516,104757
105548,104768
105535,104771
105558,104770
105555,104788
105583,104777
105583,104774
105601,104787
105630,104801
105621,104814
105630,104818
105657,104814
105704,104815
105707,104847
105667,104816
105727,104845
105756,104846
105753,104856
105773,104864
105732,104864
105803,104865
105786,104886
105774,104888
105823,104900
105858,104877
105878,104883
105850,104915
105866,104921
105900,104906
105893,104922
105947,104932
105930,104947
105929,104891
105959,104954
105968,104925
105969,104947
105990,104934
106006,104971
106006,104935
106032,104982
106015,104959
106038,104976
106061,105000
106033,104981
106073,104976
106028,105003
106065,104992
106096,105005
106087,105023
106066,104965
106128,105038
106112,105022
106127,105018
106143,105034
106150,105035
106125,105009
106181,105008
106169,105063
106182,105046
106198,105043
106192,105030
106251,105064
106182,105047
106243,105049
106262,105040
106257,105076
106272,105049
106263,105098
106272,105068
106315,105113
106288,105055
106300,105097
106314,105094
106311,105097
106345,105122
106344,105079
106344,105126
106351,105113
106318,105105
106386,105103
106348,105150
106364,105084
106366,105100
106360,105140
106411,105104
106331,105121
106333,105076
106313,105121
106245,105070
106255,105061
106164,105014
106114,104999
106089,105011
105987,104901
105950,104929
105840,104889
105776,104829
105680,104825
105571,104738
105541,104757
105413,104669
105359,104655
105267,104603
105207,104579
105134,104546
105035,104535
104982,104509
104921,104445
104874,104432
104826,104449
104763,104386
104781,104406
104768,104405
104739,104392
104700,104360
104717,104362
104683,104404
104661,104346
104660,104363
104628,104361
104646,104328
104697,104382
104625,104350
104657,104362
104675,104385
104692,104366
104706,104392
104672,104400
104691,104367
104744,104399
104731,104395
104716,104398
104760,104411
104785,104403
104732,104400
104808,104414
104798,104408
104825,104456
104857,104414
104834,104439
104897,104479
104908,104452
104889,104463
104962,104485
104971,104486
104994,104499
105036,104538
105060,104534
105094,104545
105083,104543
105105,104535
105142,104566
105149,104565
105189,104569
105181,104573
105200,104573
105219,104583
105203,104609
105216,104577
105247,104590
105261,104612
105267,104608
105246,104583
105269,104610
105243,104627
105277,104597
105298,104621
105278,104575
105303,104615
105278,104616
105313,104625
105303,104635
105310,104607
105334,104633
105309,104611
105313,104618
105375,104659
105375,104670
105352,104658
105335,104622
105364,104645
105382,104639
105366,104660
105395,104664
105420,104646
105407,104688
105465,104694
105416,104670
105437,104672
105458,104697
105486,104674
105466,104682
105468,104678
105520,104717
105498,104708
105510,104713
105551,104722
105531,104713
105580,104732
105575,104764
105555,104745
105607,104745
105620,104760
105596,104754
105659,104777
105690,104782
105664,104809
105657,104800
105700,104774
105695,104799
105743,104770
105773,104816
105741,104773
105757,104826
105763,104822
105794,104795
105787,104845
105789,104798
105822,104823
105810,104842
105794,104815
105860,104834
105839,104836
105862,104869
105875,104840
105874,104890
105929,104865
105908,104881
105928,104902
105952,104876
105995,104893
105976,104908
106010,104929
106021,104918
106022,104891
106062,104929
106018,104940
106064,104939
106065,104943
106066,104961
106051,104937
106091,104927
106078,104972
106107,104974
106074,104957
106103,104955
106127,104956
106115,104953
106159,104935
106126,104956
106140,104982
106142,104999
106190,104970
106147,104973
106206,105026
106193,105005
106246,105016
106209,104999
106274,105030
106269,105030
106248,105022
106281,105032
106277,105033
106297,105037
106268,105015
106314,105044
106260,105050
106239,105019
106221,105009
106211,104969
106142,105010
106090,104937
106044,104950
105994,104868
105900,104882
105816,104827
105786,104821
105655,104738
105602,104734
105537,104711
105422,104669
105346,104589
105282,104601
105178,104584
105125,104501
105038,104498
104961,104454
104893,104428
104882,104369
104799,104417
104783,104372
104753,104353
104724,104322
104733,104339
104694,104345
104689,104337
104672,104345
104657,104335
104681,104327
104657,104303
104652,104335
104696,104326
104730,104358
104669,104379
104689,104340
104698,104366
104703,104342
104733,104368
104720,104343
104732,104360
104738,104357
104769,104382
104741,104397
104752,104321
104796,104409
104806,104371
104776,104397
104806,104401
104779,104364
104849,104421
104806,104412
104847,104403
104830,104418
104881,104416
104883,104448
104914,104433
104936,104434
104955,104463
104984,104466
105020,104494
105001,104484
105048,104460
105048,104495
105049,104487
105116,104512
105081,104481
105103,104515
105073,104505
105159,104499
105136,104521
105141,104522
105135,104509
105118,104548
105093,104483
105119,104527
105086,104531
105122,104507
105070,104483
105125,104488
105095,104514
105108,104481
105105,104498
105149,104524
105197,104526
105174,104515
105221,104524
105245,104566
105287,104555
105322,104609
105336,104607
105378,104568
105444,104616
105446,104620
105511,104651
105508,104672
105572,104683
105569,104700
105609,104683
105631,104743
105637,104685
105639,104725
105655,104753
105660,104707
105729,104730
105686,104751
105737,104786
105760,104748
105761,104765
105758,104790
105773,104760
105833,104805
105837,104779
105820,104817
105869,104819
105922,104827
105919,104867
105938,104836
105940,104844
106005,104850
105979,104876
105992,104869
106038,104906
106023,104892
106045,104892
106104,104937
106080,104912
106117,104952
106084,104935
106144,104939
106117,104947
106183,104950
106135,104944
106165,104963
106173,104939
106154,104972
106185,104957
106206,104986
106212,105009
106216,104993
106192,104972
106267,104989
106268,104997
106286,105003
106267,105035
106295,104986
106345,105018
106332,105041
106373,105024
106363,105061
106382,105045
106440,105082
106414,105067
106435,105063
106467,105072
106452,105097
106466,105099
106515,105088
106470,105098
106517,105103
106489,105107
106522,105110
106500,105108
106583,105116
106511,105150
106541,105108
106508,105114
106499,105132
106460,105080
106502,105091
106419,105085
106399,105047
106390,105026
106319,105019
106260,104975
106212,104939
106136,104947
106071,104884
105979,104866
105994,104851
105841,104830
105794,104787
105755,104784
105686,104729
105631,104721
105546,104700
105473,104621
105476,104670
105402,104635
105385,104614
105347,104608
105302,104560
105285,104605
105249,104536
105273,104577
105230,104548
105232,104550
105218,104521
105212,104548
105172,104541
105195,104523
105173,104547
105178,104541
105152,104548
105165,104533
105192,104547
105201,104510
105212,104534
105213,104534
105206,104555
105172,104535
105207,104523
105208,104563
105223,104554
105212,104576
105248,104582
105235,104520
105304,104598
105256,104578
105291,104574
105325,104577
105358,104610
105380,104599
105379,104642
105362,104599
105432,104669
105419,104619
105434,104641
105470,104626
105429,104656
105493,104657
105488,104678
105497,104638
105518,104670
105495,104673
105522,104668
105510,104636
105512,104679
105568,104686
105514,104675
105505,104661
105546,104686
105517,104684
105529,104645
105532,104708
105547,104671
105564,104672
105531,104678
105532,104657
105590,104694
105558,104689
105577,104689
105551,104678
105578,104677
105576,104723
105567,104660
105608,104703
105572,104669
105577,104681
105621,104713
105595,104721
105618,104699
105569,104680
105617,104719
105601,104689
105658,104700
105647,104736
105647,104743
105654,104706
105675,104754
105706,104744
105777,104765
105723,104745
105761,104771
105797,104797
105831,104786
105857,104830
105864,104800
105879,104832
105930,104823
105911,104831
105914,104849
105973,104882
105996,104863
105971,104873
105990,104866
106041,104891
106052,104892
106045,104901
106047,104895
106090,104903
106128,104923
106101,104912
106159,104934
106161,104935
106130,104940
106182,104959
106193,104930
106177,104957
106219,104983
106239,104951
106244,104998
106249,104981
106299,105007
106276,104984
106317,105015
106290,104979
106314,105014
106341,105014
106332,105021
106343,105029
106376,105046
106365,104997
106390,105028
106381,105062
106431,105052
106431,105061
106418,105067
106461,105054
106436,105089
106439,105076
106493,105074
106538,105094
106506,105124
106527,105067
106567,105093
106536,105144
106563,105120
106589,105106
106571,105112
106588,105137
106583,105149
106623,105144
106624,105117
106615,105152
106629,105105
106651,105158
106626,105136
106579,105123
106571,105121
106503,105083
106479,105074
106416,105032
106375,105027
106277,104972
106230,104934
106167,104959
106083,104917
106034,104870
105933,104813
105883,104790
105773,104761
105719,104748
105646,104705
105565,104646
105509,104615
105422,104612
105392,104590
105285,104558
105284,104533
105207,104521
105217,104500
105176,104460
105127,104461
105107,104476
105084,104468
105087,104422
105043,104444
105082,104466
105063,104441
105043,104457
105061,104432
105048,104452
105039,104450
105058,104458
105055,104410
105047,104471
105052,104463
105069,104430
105095,104443
105077,104493
105083,104440
105066,104438
105115,104459
105108,104494
105088,104476
105144,104505
105124,104508
105126,104485
105124,104492
105123,104484
105184,104482
105163,104513
105201,104511
105186,104503
105210,104508
105220,104541
105212,104510
105280,104534
105280,104556
105293,104556
105305,104532
105347,104570
105339,104576
105356,104569
105330,104574
105380,104609
105390,104583
105381,104597
105396,104579
105412,104595
105388,104612
105397,104619
105411,104583
105413,104628
105397,104559
105434,104635
105430,104594
105399,104611
105448,104591
105451,104618
105437,104575
105435,104613
105423,104598
105422,104581
105471,104602
105429,104618
105435,104610
105450,104621
105450,104611
105449,104617
105456,104614
105487,104626
105456,104659
105507,104615
105511,104649
105507,104654
105535,104625
105574,104691
105582,104645
105594,104680
105569,104664
105626,104667
105636,104681
105629,104684
105673,104680
105678,104715
105699,104729
105705,104755
105677,104705
105731,104725
105724,104767
105777,104743
105778,104756
105823,104739
105799,104784
105850,104756
105848,104788
105869,104771
105880,104801
105862,104811
105885,104804
105930,104782
105924,104851
105930,104800
105971,104848
105939,104833
105969,104826
106002,104870
106003,104839
106042,104869
106035,104842
106064,104879
106073,104910
106075,104884
106060,104886
106080,104885
106134,104922
106124,104915
106120,104893
106133,104903
106130,104884
106152,104925
106172,104945
106191,104941
106200,104910
106199,104959
106201,104907
106208,104935
106221,104939
106269,104961
106251,104982
106252,104947
106299,104966
106291,104990
106320,104970
106325,104983
106335,105028
106333,104959
106342,105009
106346,104982
106329,105001
106369,105007
106348,105005
106316,104972
106340,104976
106318,104996
106251,104962
106253,104963
106189,104936
106175,104881
106063,104878
106002,104850
105938,104813
105843,104763
105808,104723
105692,104718
105632,104646
105528,104631
105442,104586
105390,104578
105319,104529
105248,104519
105153,104442
105111,104440
105054,104412
104976,104404
104924,104354
104925,104372
104851,104358
104871,104332
104836,104297
104786,104328
104794,104293
104809,104314
104794,104298
104789,104328
104731,104283
104771,104305
104773,104299
104752,104292
104806,104285
104779,104330
104819,104295
104823,104322
104788,104295
104829,104352
104788,104328
104866,104326
104880,104332
104830,104332
104890,104361
104878,104351
104948,104352
104909,104364
104916,104368
104947,104388
104940,104366
104975,104374
104924,104375
105018,104409
105004,104374
105032,104429
105060,104394
105061,104424
105066,104457
105083,104412
105081,104443
105103,104482
105110,104458
105184,104480
105154,104504
105181,104497
105169,104468
105169,104471
105221,104491
105185,104480
105225,104479
105209,104465
105250,104484
105253,104521
105251,104509
105204,104527
105231,104484
105250,104527
105211,104487
105261,104495
105212,104523
105245,104470
105258,104490
105217,104492
105249,104486
105239,104510
105207,104491
105253,104474
105243,104520
105239,104495
105272,104511
105276,104517
105267,104531
105271,104500
105314,104521
105279,104512
105322,104510
105296,104525
105340,104541
105346,104542
105357,104554
105346,104543
105359,104566
105353,104562
105421,104598
105380,104581
105416,104581
105462,104592
105444,104615
105490,104620
105483,104625
105512,104616
105532,104650
105572,104627
105557,104640
105589,104670
105637,104658
105653,104677
105639,104651
105707,104684
105707,104709
105737,104716
105770,104743
105769,104694
105790,104739
105778,104769
105829,104755
105874,104766
105867,104753
105923,104794
105876,104795
105925,104777
105928,104802
105966,104803
105953,104837
105979,104773
105981,104852
106003,104849
105990,104828
106049,104837
106019,104883
106052,104823
106084,104887
106086,104881
106093,104866
106139,104874
106096,104891
106155,104867
106146,104909
106180,104914
106229,104914
106206,104921
106194,104935
106244,104910
106260,104972
106272,104961
106243,104909
106299,104950
106259,104968
106279,104937
106325,104965
106315,104938
106322,104964
106319,104967
106264,104938
106322,104929
106281,104959
106272,104929
106225,104924
106159,104877
106136,104870
106038,104839
106012,104802
105938,104804
105861,104771
105790,104701
105747,104690
105652,104668
105547,104605
105506,104600
105411,104542
105300,104508
105268,104483
105197,104442
105130,104409
105097,104401
105043,104377
104990,104360
104954,104346
104913,104328
104893,104326
104872,104329
104848,104328
104850,104308
104831,104293
104824,104309
104841,104294
104827,104297
104851,104304
104863,104326
104861,104309
104854,104299
104891,104322
104894,104342
104894,104322
104901,104344
104938,104353
104929,104330
104939,104372
104944,104375
104968,104350
104995,104379
104970,104350
105044,104404
105020,104378
105011,104386
105041,104391
105059,104424
105045,104371
105074,104403
105099,104384
105113,104428
105097,104420
105180,104452
105147,104463
105190,104460
105183,104453
105226,104469
105233,104491
105284,104479
105227,104509
105267,104478
105253,104496
105318,104492
105286,104537
105292,104483
105296,104506
105325,104498
105291,104502
105339,104510
105319,104527
105352,104533
105352,104521
105320,104527
105350,104515
105340,104535
105372,104543
105340,104535
105344,104564
105371,104560
105320,104546
105369,104527
105356,104514
105331,104555
105349,104526
105372,104512
105352,104544
105360,104531
105336,104540
105353,104537
105352,104498
105409,104529
105384,104581
105385,104513
105422,104557
105442,104574
105402,104546
105437,104539
105463,104580
105496,104601
105493,104552
105533,104605
105546,104641
105542,104594
105587,104613
105598,104626
105606,104639
105634,104635
105613,104644
105683,104652
105678,104670
105703,104659
105688,104675
105743,104706
105712,104687
105761,104689
105739,104712
105755,104709
105823,104714
105814,104737
105793,104701
105867,104730
105837,104737
105872,104757
105872,104770
105841,104747
105905,104742
105914,104790
105913,104759
105944,104765
105963,104800
105953,104799
105984,104770
106036,104838
106008,104780
106018,104846
106044,104816
106067,104823
106059,104849
106061,104836
106089,104842
106107,104848
106120,104881
106157,104864
106147,104888
106146,104868
106185,104905
106182,104882
106222,104895
106242,104919
106244,104893
106283,104942
106260,104930
106292,104965
106285,104926
106286,104986
106283,104975
106292,104923
106344,104978
106310,104942
106335,104978
106335,104945
106385,104959
106334,104970
106330,104962
106272,104926
106284,104918
106261,104908
106181,104879
106179,104847
106127,104855
106077,104838
105991,104806
105941,104739
105878,104738
105770,104680
105738,104660
105668,104652
105572,104591
105506,104558
105486,104550
105372,104525
105334,104497
105296,104492
105232,104467
105163,104415
105162,104400
105128,104431
105088,104398
105068,104384
105034,104351
105043,104343
105025,104394
105007,104330
105020,104386
105006,104350
104995,104357
105025,104355
104989,104382
104982,104335
105036,104364
105060,104378
105010,104397
105034,104352
105040,104377
105042,104371
105055,104364
105069,104396
105056,104388
105083,104369
105090,104414
105091,104382
105094,104388
105135,104403
105126,104414
105160,104437
105139,104417
105182,104417
105156,104416
105227,104450
105228,104432
105276,104471
105257,104499
105298,104453
105278,104487
105325,104503
105316,104498
105370,104498
105354,104511
105380,104505
105420,104515
105418,104537
105427,104530
105403,104561
105425,104487
105463,104564
105445,104547
105477,104507
105462,104537
105492,104581
105497,104544
105497,104550
105482,104594
105483,104551
105509,104552
105488,104538
105502,104535
105544,104586
105525,104587
105540,104561
105537,104590
105544,104572
105607,104616
105552,104569
105599,104599
105584,104590
105576,104606
105590,104599
105608,104579
105656,104622
105650,104624
105644,104620
105664,104625
105649,104649
105665,104607
105733,104642
105729,104652
105768,104661
105779,104646
105791,104692
105810,104664
105841,104693
105864,104687
105881,104698
105864,104734
105884,104700
105942,104739
105917,104748
105906,104736
105979,104748
105953,104748
105986,104735
105964,104789
106002,104750
106039,104769
106019,104780
106051,104784
106047,104792
106084,104789
106102,104816
106099,104833
106159,104836
106162,104813
106184,104848
106171,104873
106208,104841
106237,104894
106219,104870
106265,104887
106255,104905
106282,104891
106327,104915
106303,104891
106331,104897
106320,104929
106350,104933
106364,104904
106380,104952
106393,104922
106370,104984
106427,104962
106409,104958
106437,104991
106428,104958
106441,104992
106464,104987
106443,104997
106494,104990
106504,105017
106509,105000
106523,105019
106513,105013
106519,105014
106557,104994
106561,105039
106555,105010
106581,105022
106579,105041
106601,105032
106593,105067
106600,105065
106606,105040
106628,105060
106590,105033
106595,105075
106566,105001
106577,105012
106520,105012
106483,104998
106454,104945
106433,104938
106332,104941
106303,104858
106231,104855
106146,104813
106091,104792
106039,104774
105954,104700
105940,104722
105837,104703
105784,104663
105753,104624
105679,104595
105666,104607
105599,104563
105537,104585
105528,104555
105501,104555
105484,104520
105478,104555
105446,104507
105440,104517
105393,104530
105438,104520
105419,104513
105397,104517
105384,104473
105396,104514
105386,104507
105405,104474
105428,104519
105396,104533
105414,104492
105416,104520
105375,104492
105406,104501
105418,104500
105390,104488
105420,104500
105399,104508
105409,104512
105406,104499
105397,104512
105388,104491
105432,104515
105406,104528
105443,104493
105438,104526
105430,104526
105459,104515
105447,104561
105456,104531
105496,104539
105482,104553
105479,104560
105519,104533
105552,104577
105532,104580
105513,104559
105554,104607
105536,104568
105592,104580
105558,104607
105575,104585
105577,104575
105620,104604
105615,104577
105578,104612
105617,104599
105631,104605
105587,104606
105609,104590
105631,104592
105594,104596
105591,104605
105591,104553
105620,104583
105635,104597
105595,104594
105605,104607
105619,104612
105622,104606
105634,104605
105634,104605
105640,104597
105609,104602
105664,104619
105674,104640
105673,104631
105657,104636
105672,104628
105679,104638
105702,104652
105746,104648
105741,104629
105762,104664
105748,104640
105766,104680
105773,104664
105796,104691
105847,104675
105823,104708
105882,104705
105840,104711
105876,104724
105928,104707
105903,104747
105958,104737
105926,104733
105948,104756
105988,104717
106023,104767
106022,104755
106026,104765
106028,104801
106040,104772
106098,104790
106085,104806
106137,104774
106106,104836
106115,104834
106172,104838
106158,104866
106223,104839
106184,104854
106216,104840
106279,104863
106247,104847
106290,104846
106291,104887
106314,104874
106335,104866
106374,104900
106367,104933
106361,104893
106376,104926
106415,104918
106406,104940
106404,104912
106426,104956
106422,104944
106433,104936
106418,104923
106454,104941
106443,104967
106410,104966
106437,104921
106452,104952
106465,104949
106451,104964
106496,104958
106511,104955
106502,104986
106525,105002
106519,104943
106522,104991
106535,104969
106559,104987
106524,104985
106527,104997
106510,104980
106544,104961
106491,104988
106464,104938
106457,104969
106414,104917
106330,104888
106321,104891
106245,104842
106162,104815
106118,104770
106082,104768
106029,104735
105948,104729
105934,104719
105845,104651
105815,104621
105764,104617
105766,104619
105665,104579
105636,104568
105642,104593
105598,104531
105576,104551
105566,104550
105595,104557
105557,104499
105538,104527
105509,104504
105519,104529
105512,104522
105532,104520
105510,104520
105488,104519
105510,104529
105532,104528
105484,104487
105462,104509
105528,104527
105510,104486
105500,104528
105459,104497
105456,104486
105484,104527
105454,104485
105491,104482
105465,104516
105490,104524
105506,104526
105484,104547
105508,104514
105547,104554
105541,104540
105566,104522
105591,104562
105619,104532
105620,104534
105640,104579
105626,104559
105642,104555
105671,104598
105691,104609
105653,104604
105675,104574
105711,104620
105707,104592
105750,104603
105710,104617
105735,104583
105734,104617
105733,104593
105749,104612
105753,104630
105750,104616
105778,104606
105777,104653
105744,104588
105785,104630
105761,104624
105798,104590
105741,104607
105773,104612
105806,104640
105793,104632
105753,104632
105808,104627
105782,104626
105803,104612
105790,104643
105773,104630
105815,104639
105826,104663
105810,104651
105849,104634
105832,104658
105824,104663
105890,104677
105876,104707
105885,104632
105942,104693
105916,104680
105957,104693
105960,104677
105984,104690
105976,104696
106005,104716
106033,104730
106017,104731
106009,104716
106057,104735
106054,104767
106076,104706
106080,104762
106067,104744
106109,104758
106083,104784
106107,104737
106141,104776
106121,104779
106136,104810
106147,104773
106122,104760
106170,104794
106133,104827
106153,104796
106163,104800
106208,104794
106193,104840
106211,104773
106229,104815
106254,104824
106258,104853
106283,104835
106268,104865
106280,104829
106325,104839
106320,104876
106363,104860
106326,104879
106387,104894
106383,104900
106411,104867
106418,104912
106466,104931
106442,104943
106442,104877
106443,104934
106448,104898
106489,104948
106501,104930
106472,104933
106517,104915
106536,104971
106502,104898
106521,104949
106525,104947
106506,104935
106560,104951
106507,104927
106529,104950
106505,104928
106496,104940
106460,104912
106469,104901
106410,104890
106353,104845
106321,104848
106286,104824
106243,104828
106158,104770
106135,104735
106079,104749
106052,104733
105996,104698
105947,104714
105885,104645
105865,104666
105806,104636
105799,104588
105776,104582
105711,104588
105704,104574
105688,104586
105639,104532
105612,104517
105628,104550
105586,104503
105585,104520
105585,104534
105547,104514
105555,104506
105585,104546
105550,104504
105546,104483
105589,104525
105528,104537
105539,104509
105553,104516
105556,104520
105538,104518
105588,104484
105517,104535
105566,104474
105554,104523
105581,104545
105573,104549
105565,104525
105601,104516
105626,104544
105623,104554
105624,104545
105665,104572
105616,104570
105662,104557
105684,104582
105658,104582
105691,104582
105696,104579
105741,104621
105736,104594
105730,104586
105747,104617
105786,104623
105802,104626
105785,104617
105816,104595
105821,104635
105815,104631
105827,104617
105833,104642
105858,104642
105854,104653
105875,104647
105859,104659
105870,104654
105894,104654
105911,104640
105876,104639
105901,104651
105855,104640
105868,104640
105876,104649
105886,104652
105887,104648
105875,104659
105860,104631
105861,104629
105865,104645
105908,104642
105878,104647
105907,104640
105905,104646
105941,104682
105923,104650
105985,104666
105950,104675
105986,104676
105969,104700
106004,104677
106044,104714
106035,104726
106062,104711
106077,104700
106059,104711
106121,104717
106124,104772
106130,104731
106117,104729
106146,104747
106148,104751
106167,104763
106215,104762
106201,104784
106209,104786
106237,104768
106224,104825
106275,104800
106242,104792
106285,104832
106320,104826
106341,104824
106353,104842
106371,104813
106401,104883
106415,104851
106398,104858
106450,104871
106482,104915
106449,104863
106485,104870
106500,104920
106467,104884
106528,104886
106521,104937
106508,104904
106558,104901
106554,104926
106540,104901
106584,104912
106608,104954
106587,104948
106578,104933
106615,104921
106601,104958
106596,104961
106681,104974
106661,104965
106712,104972
106695,104953
106707,104986
106733,104978
106737,104987
106738,104981
106785,104995
106788,104996
106811,105008
106833,105028
106815,105022
106802,105016
106840,105023
106850,105036
106812,104995
106820,105012
106834,105016
106802,105010
106782,105015
106768,104974
106690,104961
106694,104951
106625,104916
106593,104904
106548,104862
106458,104845
106456,104824
106413,104819
106328,104767
106322,104755
106246,104756
106212,104694
106166,104716
106133,104689
106099,104670
106079,104637
106030,104627
106044,104635
105984,104639
105988,104620
105956,104628
105994,104618
105952,104615
105956,104609
105935,104624
105917,104579
105913,104622
105883,104604
105916,104573
105934,104613
105934,104598
105954,104600
105943,104616
105939,104567
105963,104593
105965,104598
105987,104596
105969,104636
105980,104589
106018,104616
106013,104633
105997,104626
106029,104614
106025,104642
106035,104637
106056,104600
106071,104661
106017,104626
106051,104637
106047,104644
106091,104660
106067,104636
106088,104662
106128,104664
106112,104653
106143,104711
106134,104666
106176,104686
106169,104726
106165,104696
106215,104721
106226,104685
106246,104738
106226,104688
106246,104722
106240,104749
106258,104704
106287,104762
106295,104711
106298,104738
106288,104738
106282,104731
106316,104761
106329,104746
106319,104728
106279,104735
106347,104737
106360,104746
106350,104778
106338,104763
106373,104737
106367,104772
106331,104754
106370,104754
106384,104754
106397,104788
106373,104804
106367,104748
106426,104814
106423,104795
106422,104780
106437,104810
106431,104785
106495,104828
106490,104807
106489,104811
106495,104847
106496,104800
106525,104862
106509,104850
106536,104810
106570,104854
106541,104831
106595,104847
106562,104837
106571,104897
106573,104844
106642,104859
106616,104885
106647,104875
106665,104898
106664,104908
106660,104877
106705,104921
106697,104899
106685,104909
106706,104933
106759,104913
106742,104959
106770,104938
106798,104960
106810,104966
106833,104964
106801,104971
106861,104939
106844,104998
106864,104974
106875,104998
106878,104982
106904,104993
106883,104990
106930,104993
106910,105027
106953,105026
106938,105041
106935,104992
106975,105020
106985,105055
106979,105007
107007,105048
107015,105067
106990,105055
107015,105019
107055,105093
107039,105059
107076,105056
107103,105058
107091,105092
107126,105059
107117,105111
107117,105063
107150,105085
107136,105119
107172,105101
107167,105106
107171,105075
107209,105133
107199,105093
107170,105115
107143,105110
107164,105096
107105,105074
107091,105071
107048,105007
106997,105038
106935,105001
106890,104963
106905,104964
106823,104900
106745,104910
106698,104828
106680,104859
106553,104840
106545,104808
106495,104785
106469,104785
106378,104740
106381,104736
106298,104687
106325,104681
106276,104693
106266,104688
106234,104664
106198,104670
106214,104664
106152,104687
106179,104649
106178,104664
106153,104617
106159,104655
106127,104658
106128,104606
106145,104630
106115,104609
106099,104641
106091,104644
106070,104602
106098,104659
106081,104601
106105,104629
106100,104615
106064,104637
106086,104585
106040,104631
106095,104624
106092,104605
106081,104625
106038,104616
106075,104599
106083,104638
106093,104617
106089,104631
106081,104602
106117,104628
106110,104655
106105,104591
106142,104617
106100,104652
106132,104658
106133,104615
106182,104671
106147,104646
106162,104669
106179,104672
106162,104640
106197,104680
106174,104657
106236,104657
106182,104665
106212,104670
106200,104668
106207,104643
106213,104700
106190,104635
106219,104665
106185,104663
106211,104702
106224,104650
106238,104701
106202,104649
106254,104644
106224,104666
106238,104649
106243,104676
106205,104659
106236,104670
106231,104667
106243,104701
106224,104646
106246,104684
106232,104656
106269,104686
106221,104674
106253,104673
106265,104692
106239,104707
106239,104662
106266,104718
106269,104694
106260,104726
106286,104681
106305,104728
106282,104726
106303,104689
106308,104700
106369,104741
106347,104740
106372,104683
106413,104745
106378,104781
106397,104748
106434,104743
106467,104743
106467,104778
106425,104780
106486,104780
106491,104794
106492,104777
106524,104779
106508,104774
106534,104796
106508,104798
106542,104825
106573,104799
106549,104814
106592,104828
106596,104829
106659,104826
106682,104837
106632,104834
106690,104834
106676,104855
106697,104836
106667,104873
106700,104844
106727,104869
106716,104896
106743,104865
106765,104897
106735,104872
106798,104897
106771,104875
106765,104890
106792,104913
106823,104931
106798,104896
106817,104883
106793,104937
106791,104915
106830,104931
106841,104924
106889,104929
106862,104916
106880,104941
106900,104944
106901,104934
106930,104947
106908,104951
106932,104977
106886,104966
106945,104943
106953,105011
106935,104940
106947,104971
106918,104960
106925,104955
106877,104967
106881,104935
106845,104894
106775,104910
106769,104879
106683,104857
106697,104821
106576,104810
106511,104741
106495,104765
106417,104732
106309,104703
106288,104638
106261,104679
106186,104614
106154,104597
106110,104561
106059,104554
106004,104567
105947,104518
105940,104509
105896,104505
105883,104501
105809,104497
105800,104458
105834,104475
105765,104459
105755,104467
105756,104453
105763,104445
105720,104414
105742,104442
105712,104418
105720,104423
105705,104411
105702,104420
105693,104438
105680,104390
105725,104417
105700,104385
105674,104403
105727,104437
105669,104397
105711,104413
105681,104434
105697,104411
105745,104429
105720,104418
105731,104426
105693,104439
105701,104403
105741,104439
105721,104421
105763,104440
105741,104456
105765,104439
105772,104454
105764,104457
105806,104447
105791,104466
105827,104459
105889,104467
105819,104465
105872,104492
105832,104495
105897,104504
105865,104493
105851,104471
105891,104510
105879,104521
105856,104510
105894,104509
105903,104497
105850,104494
105906,104527
105918,104493
105912,104501
105923,104466
105872,104499
105887,104486
105920,104498
105875,104470
105904,104513
105889,104465
105918,104498
105951,104499
105898,104489
105941,104503
105958,104496
105951,104530
105927,104530
105984,104525
105963,104532
105947,104512
105953,104523
106015,104530
105981,104517
106009,104529
106030,104551
106034,104528
106055,104539
106045,104569
106020,104542
106084,104571
106094,104537
106107,104565
106090,104575
106099,104558
106131,104560
106149,104595
106161,104619
106177,104590
106184,104614
106184,104627
106175,104604
106194,104572
106234,104624
106228,104624
106234,104622
106235,104633
106274,104612
106245,104662
106265,104658
106293,104640
106320,104660
106301,104659
106360,104693
106332,104670
106344,104653
106380,104695
106410,104660
106389,104691
106423,104686
106440,104710
106429,104719
106450,104723
106488,104723
106512,104716
106517,104744
106544,104742
106540,104737
106562,104723
106583,104758
106587,104766
106621,104766
106635,104776
106616,104764
106626,104778
106650,104793
106650,104787
106659,104806
106674,104792
106673,104813
106690,104810
106693,104841
106691,104812
106728,104811
106696,104829
106718,104829
106748,104833
106754,104835
106722,104832
106757,104856
106785,104852
106755,104854
106778,104823
106766,104838
106763,104826
106727,104820
106734,104828
106658,104796
106636,104790
106620,104757
106536,104723
106478,104695
106423,104689
106396,104669
106332,104633
106251,104609
106179,104591
106144,104564
106103,104514
106037,104504
105967,104498
105900,104429
105913,104453
105843,104405
105836,104416
105785,104376
105743,104367
105754,104380
105729,104362
105693,104351
105686,104373
105671,104355
105651,104356
105666,104373
105674,104355
105650,104334
105699,104336
105626,104371
105668,104308
105682,104353
105631,104361
105672,104353
105697,104352
105659,104329
105689,104355
105675,104357
105704,104350
105712,104336
105725,104378
105697,104374
105700,104381
105728,104393
105747,104355
105771,104390
105762,104404
105783,104392
105791,104409
105844,104422
105803,104427
105860,104389
105874,104455
105891,104425
105893,104485
105925,104450
105930,104437
105941,104452
105962,104461
105953,104476
105953,104467
105996,104512
106001,104471
105991,104472
106024,104494
106038,104481
106010,104454
106004,104471
106018,104477
106031,104509
106036,104488
105993,104486
106023,104490
105996,104474
106024,104506
106026,104480
105997,104481
106010,104490
106019,104489
106010,104508
106031,104479
106009,104494
106036,104491
106045,104478
106079,104482
106042,104503
106054,104515
106083,104496
106074,104515
106104,104526
106092,104520
106123,104514
106113,104534
106157,104555
106150,104555
106148,104546
106140,104558
106166,104556
106207,104574
106215,104561
106177,104560
106247,104599
106225,104579
106251,104602
106266,104582
106265,104598
106300,104588
106312,104618
106335,104626
106337,104634
106340,104618
106393,104638
106385,104651
106385,104654
106401,104657
106431,104655
106468,104673
106466,104672
106482,104686
106475,104695
106497,104679
106519,104703
106508,104706
106544,104722
106534,104709
106547,104752
106585,104744
106586,104732
106572,104746
106576,104734
106606,104723
106623,104737
106605,104761
106631,104771
106634,104750
106662,104760
106653,104776
106680,104753
106655,104771
106711,104796
106710,104794
106703,104798
106734,104817
106745,104794
106775,104829
106753,104799
106798,104816
106751,104818
106815,104824
106787,104832
106783,104828
106825,104831
106821,104853
106857,104847
106850,104825
106858,104850
106845,104843
106870,104861
106835,104880
106880,104864
106920,104873
106896,104883
106905,104875
106903,104878
106917,104909
106884,104870
106917,104868
106859,104850
106838,104838
106785,104822
106772,104786
106694,104805
106671,104763
106605,104743
106554,104704
106488,104674
106442,104652
106344,104603
106312,104589
106231,104564
106182,104550
106128,104517
106049,104505
106001,104469
106004,104473
105957,104418
105898,104442
105891,104411
105807,104383
105827,104369
105834,104401
105785,104381
105779,104367
105807,104368
105733,104349
105773,104338
105722,104380
105742,104351
105722,104334
105756,104378
105731,104373
105725,104337
105757,104340
105769,104367
105739,104370
105726,104370
105745,104363
105732,104368
105749,104337
105739,104371
105760,104355
105775,104360
105771,104388
105745,104354
105775,104412
105776,104389
105776,104408
105785,104365
105807,104387
105815,104383
105836,104412
105867,104382
105853,104440
105879,104398
105871,104439
105900,104417
105894,104421
105930,104443
105962,104453
105934,104424
105977,104460
105948,104488
105981,104453
105964,104454
106016,104487
106008,104444
105995,104498
106004,104472
106035,104493
106022,104467
106038,104481
105994,104441
106027,104479
106017,104469
105990,104480
106036,104477
106028,104456
106016,104472
106030,104483
106014,104478
106051,104462
106009,104486
106019,104483
106046,104496
106054,104470
106034,104477
106082,104522
106066,104481
106094,104479
106100,104527
106091,104540
106134,104482
106121,104517
106093,104513
106122,104519
106163,104549
106131,104522
106145,104540
106186,104547
106160,104581
106205,104538
106219,104594
106219,104583
106257,104579
106236,104576
106262,104572
106261,104619
106274,104607
106335,104611
106304,104608
106338,104644
106384,104628
106356,104643
106398,104644
106419,104669
106404,104662
106469,104647
106478,104687
106471,104687
106465,104702
106496,104653
106525,104722
106526,104717
106539,104710
106518,104693
106581,104711
106548,104729
106563,104716
106624,104741
106604,104726
106593,104707
106638,104744
106602,104743
106676,104766
106641,104778
106665,104761
106708,104726
106718,104807
106674,104769
106721,104769
106697,104758
106727,104767
106752,104777
106713,104808
106763,104773
106793,104810
106764,104799
106763,104803
106808,104819
106806,104829
106812,104852
106869,104829
106837,104836
106854,104866
106849,104834
106877,104860
106875,104849
106923,104871
106951,104862
106955,104892
106949,104866
106935,104894
106958,104870
106953,104868
106999,104894
106983,104875
106980,104924
106983,104895
107033,104910
107006,104924
106993,104892
106982,104917
106975,104907
106934,104887
106955,104837
106892,104859
106850,104819
106801,104813
106779,104776
106725,104789
106624,104716
106594,104728
106524,104682
106460,104644
106399,104655
106325,104602
106267,104548
106189,104519
106113,104535
106093,104493
106000,104448
106023,104471
105973,104431
105910,104409
105903,104363
105842,104366
105821,104371
105809,104350
105818,104348
105766,104376
105762,104309
105692,104349
105721,104321
105716,104314
105741,104320
105712,104368
105751,104313
105708,104333
105709,104346
105733,104337
105684,104325
105721,104364
105698,104346
105732,104325
105718,104327
105742,104345
105707,104301
105756,104329
105734,104332
105752,104352
105743,104321
105764,104380
105750,104342
105785,104357
105813,104351
105776,104368
105809,104364
105801,104367
105813,104387
105828,104370
105852,104390
105881,104383
105888,104427
105917,104409
105924,104421
105905,104391
105937,104437
105924,104404
105992,104445
105939,104442
105972,104433
105945,104437
105989,104447
105985,104428
106010,104454
105959,104443
106009,104472
105985,104452
105973,104444
105980,104436
106017,104439
105999,104432
105997,104445
106019,104427
106021,104469
106022,104425
106006,104447
106038,104441
106014,104457
106069,104462
106042,104468
106066,104450
106056,104460
106040,104454
106082,104486
106102,104473
106078,104493
106082,104495
106096,104494
106122,104522
106153,104495
106113,104490
106154,104512
106153,104516
106181,104513
106206,104527
106194,104509
106244,104542
106264,104539
106256,104539
106270,104559
106267,104553
106303,104586
106336,104607
106313,104584
106347,104600
106368,104594
106397,104619
106374,104624
106434,104642
106450,104612
106462,104635
106427,104665
106516,104652
106478,104654
106493,104634
106511,104677
106549,104637
106514,104664
106547,104687
106550,104708
106559,104657
106568,104704
106629,104720
106605,104707
106593,104725
106650,104720
106666,104747
106656,104738
106699,104721
106681,104751
106690,104727
106743,104771
106752,104753
106758,104775
106739,104776
106774,104774
106797,104799
106819,104766
106825,104787
106823,104793
106839,104787
106872,104808
106858,104821
106865,104788
106900,104852
106904,104801
106933,104848
106902,104819
106944,104825
106969,104893
106963,104849
106976,104842
106977,104879
106972,104862
107020,104888
107035,104886
107016,104891
107038,104856
107008,104897
107041,104879
107068,104860
107031,104887
107073,104878
107026,104883
107057,104883
107023,104876
106985,104842
106932,104853
106877,104813
106874,104795
106823,104780
106736,104782
106664,104711
106626,104675
106559,104714
106498,104667
106406,104605
106354,104609
106296,104548
106289,104565
106203,104536
106153,104508
106071,104469
106078,104436
105966,104452
105971,104436
105938,104372
105884,104372
105885,104348
105842,104372
105831,104358
105846,104329
105854,104369
105815,104342
105806,104360
105801,104373
105807,104346
105804,104385
105802,104346
105832,104361
105842,104367
105812,104346
105854,104375
105828,104388
105850,104354
105861,104381
105831,104384
105874,104390
105860,104343
105879,104417
105918,104389
105914,104390
105903,104414
105925,104366
105928,104414
105906,104395
105963,104390
105993,104401
105930,104418
106012,104421
106032,104430
106015,104448
106048,104419
106056,104462
106101,104436
106111,104479
106112,104507
106120,104467
106140,104469
106146,104483
106133,104473
106176,104482
106193,104515
106196,104465
106168,104514
106219,104519
106192,104529
106167,104494
106204,104489
106178,104512
106189,104487
106210,104495
106238,104519
106205,104535
106241,104472
106229,104489
106223,104538
106221,104519
106209,104478
106206,104559
106201,104508
106218,104510
106237,104521
106237,104499
106256,104514
106274,104528
106291,104512
106237,104536
106290,104559
106319,104538
106329,104557
106321,104561
106336,104550
106357,104583
106348,104551
106385,104594
106391,104580
106409,104569
106455,104628
106438,104583
106464,104618
106465,104608
106480,104642
106465,104611
106509,104652
106485,104627
106513,104637
106538,104668
106513,104658
106609,104681
106587,104673
106572,104663
106601,104652
106619,104695
106629,104670
106646,104703
106663,104699
106661,104715
106662,104699
106668,104684
106717,104732
106716,104743
106700,104718
106733,104722
106727,104741
106746,104747
106790,104738
106784,104784
106765,104747
106820,104774
106808,104747
106852,104766
106847,104783
106820,104768
106901,104828
106868,104772
106895,104793
106911,104798
106941,104822
106937,104822
106930,104809
106977,104837
106973,104841
107003,104833
106966,104830
106996,104813
106999,104870
107016,104851
107046,104859
107014,104875
107042,104850
107077,104901
107042,104895
107096,104843
107120,104899
107082,104892
107127,104895
107104,104907
107133,104903
107117,104889
107088,104905
107091,104907
107103,104880
107058,104896
107044,104852
106991,104846
106942,104808
106950,104817
106843,104818
106787,104766
106719,104736
106675,104717
106634,104666
106569,104679
106519,104636
106424,104597
106417,104600
106351,104587
106300,104509
106237,104503
106212,104473
106181,104460
106152,104484
106091,104411
106041,104425
106046,104425
106034,104410
106019,104394
105968,104405
105992,104404
105979,104398
105994,104408
105961,104404
105969,104372
105972,104395
105993,104389
105993,104398
105963,104426
105998,104364
105964,104398
106010,104411
106020,104419
106012,104406
106031,104434
106043,104420
106014,104406
106053,104436
106052,104451
106086,104426
106094,104418
106066,104454
106085,104434
106086,104442
106088,104447
106103,104465
106126,104462
106093,104453
106150,104478
106117,104491
106166,104485
106196,104513
106202,104516
106216,104524
106223,104488
106255,104506
106243,104552
106252,104530
106274,104536
106267,104538
106294,104534
106276,104575
106327,104540
106328,104540
106275,104563
106306,104538
106307,104545
106311,104560
106322,104528
106316,104528
106291,104555
106350,104549
106282,104549
106302,104524
106317,104557
106289,104524
106316,104559
106333,104533
106298,104552
106284,104509
106319,104548
106339,104530
106337,104555
106321,104557
106359,104536
106348,104544
106365,104588
106381,104566
106332,104564
106371,104562
106386,104560
106389,104572
106380,104602
106424,104591
106447,104606
106422,104593
106439,104570
106433,104632
106451,104617
106469,104610
106485,104611
106502,104626
106482,104597
106538,104624
106506,104665
106529,104622
106573,104665
106579,104667
106566,104680
106601,104660
106613,104689
106641,104658
106636,104704
106653,104684
106674,104703
106690,104706
106678,104688
106718,104730
106702,104723
106723,104735
106751,104719
106723,104742
106753,104767
106750,104732
106786,104762
106789,104761
106752,104768
106777,104757
106806,104760
106779,104767
106826,104770
106830,104763
106827,104791
106839,104780
106855,104804
106877,104813
106889,104775
106875,104801
106900,104801
106913,104782
106902,104812
106942,104823
106951,104815
106945,104792
106980,104825
106958,104855
106961,104819
106977,104825
106990,104851
106987,104858
106975,104842
107028,104877
107013,104842
107028,104875
107049,104897
107022,104891
107083,104882
107042,104877
107067,104905
107080,104914
107057,104879
107052,104874
107053,104853
106994,104853
106958,104868
106933,104814
106885,104801
106837,104776
106748,104747
106707,104735
106637,104683
106602,104669
106481,104630
106445,104634
106428,104593
106326,104583
106279,104519
106188,104510
106154,104485
106099,104489
106049,104437
106061,104447
106003,104397
105986,104412
105927,104381
105903,104358
105904,104382
105900,104352
105876,104353
105856,104369
105834,104375
105860,104321
105906,104365
105898,104375
105874,104325
105912,104372
105891,104346
105914,104395
105866,104358
105920,104363
105906,104376
105921,104346
105955,104406
105929,104414
105950,104362
105940,104393
105962,104394
105972,104390
105961,104390
105994,104419
105979,104417
105972,104398
106020,104418
106023,104428
106040,104414
106036,104451
106076,104406
106056,104443
106077,104471
106097,104461
106072,104455
106097,104488
106096,104452
106163,104467
106150,104489
106167,104500
106158,104481
106215,104507
106187,104527
106205,104491
106219,104535
106244,104522
106240,104510
106242,104497
106234,104526
106219,104541
106260,104511
106278,104538
106248,104547
106269,104494
106229,104517
106275,104520
106278,104492
106240,104496
106268,104506
106248,104503
106301,104530
106248,104526
106258,104517
106274,104553
106261,104541
106271,104519
106262,104506
106325,104532
106295,104530
106322,104537
106285,104535
106334,104522
106328,104573
106358,104532
106366,104582
106369,104582
106382,104569
106423,104566
106407,104600
106438,104591
106421,104614
106459,104585
106503,104611
106474,104643
106482,104606
106542,104641
106494,104643
106550,104648
106561,104626
106598,104674
106571,104658
106607,104648
106605,104674
106617,104647
106633,104685
106654,104683
106691,104704
106652,104709
106697,104684
106688,104706
106699,104710
106727,104699
106708,104746
106724,104694
106765,104752
106744,104703
106774,104724
106810,104750
106804,104725
106781,104764
106823,104762
106823,104790
106831,104753
106847,104801
106883,104774
106848,104759
106895,104792
106881,104806
106954,104836
106922,104797
106956,104835
106917,104796
106952,104821
106960,104782
106979,104845
106983,104842
106952,104847
106996,104821
106986,104836
107021,104871
107001,104867
107009,104867
107048,104896
107033,104824
107065,104871
107041,104857
107105,104883
107061,104900
107054,104855
107101,104876
107093,104879
107106,104902
107092,104913
107109,104877
107094,104883
107024,104846
107035,104873
107026,104837
106932,104837
106893,104786
106871,104796
106757,104723
106706,104708
106661,104680
106569,104674
106508,104607
106442,104581
106349,104570
106292,104537
106230,104507
106163,104465
106088,104451
106033,104394
105961,104357
105944,104395
105863,104312
105829,104324
105762,104325
105757,104271
105771,104303
105706,104246
105721,104295
105662,104257
105704,104254
105648,104282
105653,104230
105634,104241
105673,104258
105645,104236
105661,104231
105624,104244
105638,104217
105658,104235
105628,104255
105656,104262
105666,104244
105677,104238
105643,104281
105672,104273
105643,104254
105667,104262
105687,104236
105646,104281
105695,104253
105683,104303
105709,104284
105681,104278
105699,104287
105719,104261
105730,104309
105698,104278
105759,104299
105790,104325
105765,104325
105760,104327
105765,104303
105810,104353
105798,104322
105821,104358
105811,104308
105851,104373
105857,104356
105878,104339
105877,104340
105852,104355
105901,104349
105889,104374
105875,104323
105893,104358
105888,104362
105906,104352
105876,104377
105865,104322
105889,104364
105888,104365
105874,104326
105870,104348
105846,104363
105847,104316
105845,104363
105842,104322
105854,104341
105824,104339
105831,104297
105892,104357
105819,104334
105857,104354
105883,104350
105864,104329
105864,104368
105856,104334
105906,104356
105906,104363
105899,104358
105932,104361
105913,104388
105919,104356
105956,104382
105973,104360
105981,104374
105971,104390
106015,104397
105964,104376
106001,104409
106023,104417
106036,104415
106037,104412
106076,104427
106058,104459
106080,104391
106129,104421
106116,104488
106140,104434
106168,104459
106162,104491
106142,104437
106169,104458
106213,104498
106217,104501
106225,104487
106265,104492
106236,104532
106288,104509
106282,104541
106281,104528
106330,104532
106292,104561
106320,104510
106320,104557
106350,104541
106344,104561
106383,104564
106381,104537
106430,104567
106417,104592
106429,104592
106452,104584
106450,104607
106446,104587
106486,104601
106508,104606
106502,104635
106530,104650
106506,104639
106537,104614
106573,104651
106571,104633
106528,104637
106587,104663
106553,104619
106619,104669
106573,104664
106620,104660
106608,104658
106623,104673
106632,104682
106635,104712
106642,104660
106674,104690
106630,104717
106639,104711
106614,104689
106636,104706
106585,104664
106601,104666
106559,104656
106501,104652
106456,104579
106402,104566
106332,104532
106286,104495
106207,104476
106138,104434
106109,104437
105979,104360
105937,104352
105853,104347
105802,104304
105743,104261
105662,104237
105638,104241
105577,104185
105542,104179
105496,104166
105476,104143
105474,104150
105441,104131
105380,104106
105381,104109
105398,104126
105408,104135
105411,104120
105382,104129
105409,104142
105413,104116
105424,104142
105438,104145
105461,104159
105482,104144
105465,104165
105463,104130
105492,104156
105513,104152
105542,104206
105547,104166
105551,104163
105552,104224
105561,104194
105599,104192
105600,104221
105589,104206
105649,104228
105628,104189
105666,104234
105657,104239
105677,104277
105711,104239
105742,104281
105724,104275
105765,104289
105806,104299
105796,104321
105859,104335
105846,104341
105892,104340
105871,104373
105848,104334
105900,104346
105914,104349
105889,104372
105906,104368
105921,104358
105939,104355
105877,104365
105947,104366
105932,104342
105918,104380
105919,104325
105955,104338
105903,104346
105902,104348
105913,104353
105933,104342
105958,104370
105921,104323
105920,104341
105901,104361
105934,104326
105908,104374
105928,104334
105927,104355
105909,104341
105953,104369
105946,104347
105945,104333
105969,104357
105948,104374
105975,104368
106004,104391
106010,104358
106023,104388
106038,104367
106086,104409
106072,104448
106092,104386
106113,104403
106140,104419
106152,104468
106122,104447
106192,104437
106197,104468
106227,104481
106212,104476
106259,104467
106250,104526
106302,104505
106329,104509
106327,104499
106330,104544
106386,104527
106372,104534
106380,104521
106439,104555
106458,104553
106457,104539
106482,104563
106436,104558
106484,104546
106525,104595
106521,104579
106556,104600
106564,104612
106559,104620
106570,104607
106588,104635
106609,104641
106631,104628
106616,104649
106655,104646
106664,104689
106651,104645
106700,104692
106713,104685
106713,104669
106740,104693
106732,104693
106773,104692
106762,104719
106768,104704
106778,104693
106823,104712
106808,104746
106832,104721
106867,104750
106854,104711
106843,104741
106843,104761
106849,104719
106914,104771
106877,104755
106858,104767
106876,104761
106830,104743
106817,104710
106778,104732
106732,104679
106718,104673
106619,104644
106577,104631
106496,104616
106430,104575
106393,104534
106334,104510
106288,104474
106234,104485
106108,104449
106090,104395
106043,104363
105983,104367
105954,104346
105864,104346
105853,104277
105834,104294
105764,104246
105767,104284
105751,104258
105744,104234
105752,104257
105686,104225
105680,104238
105716,104225
105698,104212
105733,104229
105737,104259
105739,104242
105738,104224
105771,104252
105799,104269
105773,104239
105816,104300
105799,104259
105817,104273
105835,104287
105858,104297
105862,104300
105873,104284
105854,104340
105899,104323
105908,104341
105903,104356
105914,104320
105928,104388
105944,104331
105996,104342
105984,104374
105990,104355
106036,104408
106029,104363
