11111,11111
0,0
82155,82271
115939,114487
115907,114474
115862,114436
115722,114359
115656,114312
115525,114254
115515,114290
115539,114276
115481,114202
115395,114205
115310,114102
115384,114177
115363,114181
115328,114180
115304,114083
115264,114097
115280,114104
115351,114140
115369,114163
115293,114110
115256,114110
115302,114105
115395,114182
115336,114171
115326,114142
115249,114104
115363,114143
115398,114201
115376,114142
115348,114143
115295,114137
115363,114109
115431,114167
115377,114142
115349,114165
115280,114102
115388,114166
115394,114157
115379,114153
115376,114105
115280,114110
115326,114106
115411,114167
115400,114129
115342,114124
115268,114056
115352,114133
115363,114145
115349,114142
115337,114108
115290,114098
115299,114114
115396,114152
115357,114146
115351,114128
115314,114117
115312,114143
115392,114177
115358,114169
115342,114155
115328,114090
115356,114147
115436,114208
115432,114177
115361,114150
115323,114136
115422,114140
115442,114190
115443,114167
115387,114116
115387,114094
115461,114157
115452,114196
115436,114169
115428,114133
115378,114056
115472,114175
115459,114187
115466,114135
115461,114151
115353,114121
115432,114176
115433,114171
115443,114141
115429,114111
115354,114105
115400,114134
115463,114130
115409,114165
115373,114106
115358,114088
115411,114113
115464,114162
115414,114118
115420,114132
115387,114086
115444,114116
115505,114201
115467,114117
115461,114173
115371,114073
115525,114177
115489,114179
115510,114167
115460,114179
115421,114065
115501,114198
115512,114164
115558,114197
115485,114140
115446,114106
115549,114171
115537,114220
115543,114163
115522,114168
115483,114139
115539,114197
115563,114187
115535,114207
115502,114176
115495,114151
115532,114166
115560,114207
115674,114274
115681,114234
115733,114267
115660,114198
115676,114229
115682,114227
115153,113972
115122,113913
115165,113990
115220,113989
115226,113990
115225,114002
115180,113958
115166,113956
115200,113956
115251,114002
115203,113937
115190,113928
115135,113888
115208,113967
115207,114004
115238,113975
115184,113936
115137,113925
115180,113942
115256,113991
115248,114000
115192,113974
115177,113916
115239,113971
115283,114046
115231,113982
115265,113991
115164,113968
115236,114005
115335,114055
115266,114028
115272,113977
115228,113987
115292,114018
115315,114051
115314,114032
115270,114015
115233,113959
115314,114016
115315,114047
115280,114007
115255,113991
115213,113968
115283,114006
115323,114002
115271,114004
115240,113947
115224,113946
115245,113974
115315,114046
115280,113998
115231,113986
115191,113930
115265,114005
115261,114046
115284,114014
115201,113975
115174,113972
115252,113959
115325,114054
115255,113996
115242,113967
115177,113940
115269,113946
115311,114034
115294,113979
115268,113953
115233,113958
115287,114007
115351,114027
115300,114027
115288,113944
115237,113932
115338,114017
115352,114036
115347,114008
115319,114007
115299,113945
115356,114006
115350,114017
115407,114030
115340,114028
115331,113974
115397,114013
115445,114071
115398,114058
115348,113976
115327,114015
115377,114048
115434,114088
115442,114086
115379,114011
115347,113985
115423,114055
115441,114090
115416,114046
115364,114005
115377,114021
115419,114021
115491,114067
115459,114075
115402,114022
115374,114001
115427,114069
115495,114106
115460,114038
115430,114035
115395,113999
115448,114061
115507,114092
115482,114052
115443,114077
115395,114008
115502,114091
115527,114127
115511,114084
115462,114036
115418,114028
115461,114100
115503,114099
115458,114096
115467,114042
115376,114047
115452,114051
115543,114123
115486,114066
115441,114037
115454,114043
115492,114058
115540,114080
115472,114069
115492,114028
115467,113997
115541,114087
115537,114115
115573,114049
115512,114070
115476,114041
115535,114062
115607,114128
115585,114085
115532,114051
115546,114056
115591,114100
115620,114121
115626,114102
115604,114091
115544,114044
115612,114092
115686,114144
115656,114121
115576,114064
115583,114086
115624,114115
115713,114141
115637,114133
115562,114051
115543,114055
115549,114090
115584,114082
115471,114025
115387,113944
115293,113943
115289,113927
115336,113935
115256,113914
115180,113852
115086,113825
115140,113878
115125,113882
115100,113812
115051,113809
114966,113748
115037,113811
115048,113827
115021,113768
114984,113800
114945,113734
115000,113815
115028,113842
114998,113801
114974,113764
114909,113774
114988,113764
115026,113860
114995,113793
114990,113787
114931,113754
115026,113782
115026,113847
115033,113796
114979,113773
114967,113791
115014,113787
115068,113810
115045,113809
114970,113780
114981,113753
115012,113804
115052,113786
115071,113803
114958,113762
114953,113728
115012,113765
115044,113802
114996,113799
114953,113715
114917,113732
114974,113720
115011,113766
114987,113720
114963,113704
114922,113719
114962,113743
115041,113812
115016,113736
114937,113700
114945,113699
114958,113758
115051,113801
115009,113775
115002,113758
115015,113701
115055,113784
115115,113800
115053,113774
115057,113787
114992,113774
115087,113805
115128,113813
115110,113821
115039,113722
115012,113770
115085,113774
115130,113828
115125,113794
115032,113737
114999,113739
115026,113748
115113,113794
115099,113778
115029,113715
114970,113721
115084,113772
115060,113764
115031,113742
115031,113750
114999,113729
115055,113770
115084,113819
115023,113769
115037,113742
114988,113713
115049,113771
115088,113819
115054,113775
115038,113750
115014,113716
115087,113805
115151,113810
115068,113806
115075,113741
115013,113752
115074,113812
115151,113794
115103,113762
115090,113782
115069,113767
115105,113799
115171,113809
115159,113807
115102,113743
115124,113766
115145,113836
115212,113847
115182,113833
115185,113804
115151,113773
115222,113843
115255,113840
115282,113853
115214,113795
115183,113799
115294,113882
115303,113865
115298,113844
115221,113840
115241,113836
115279,113865
115354,113937
115318,113848
115294,113865
115283,113849
115375,113883
115373,113926
115363,113910
115335,113860
115355,113873
115412,113900
115448,113953
115449,113921
115407,113903
115408,113892
115476,113931
115509,113952
115497,113951
115467,113926
115432,113883
115516,113945
115562,113983
115549,113975
115508,113922
115476,113921
115543,113963
115582,113995
115591,113995
115565,113928
115523,113912
115585,113984
115622,113968
115654,114020
115523,113945
115552,113951
115634,114027
115644,114024
115638,114007
115602,114006
115580,113981
115669,114007
115702,114055
115674,114001
115645,114029
115636,113997
115734,114042
115746,114052
115730,114072
115697,113987
115702,114008
115724,114067
115806,114104
115767,114067
115752,114031
115728,114040
115838,114078
115850,114111
115834,114061
115829,114101
115790,114016
115862,114119
115923,114106
115952,114141
115884,114053
115859,114078
115892,114133
116008,114200
115943,114173
115937,114109
115933,114114
115967,114150
116054,114207
116001,114159
116026,114154
115958,114137
116046,114166
116077,114210
116042,114169
116017,114191
116007,114146
116078,114188
116080,114211
116074,114183
116007,114167
115950,114130
115985,114128
115984,114160
115859,114102
115740,114016
115597,113958
115587,113915
115567,113922
115371,113871
115272,113785
115172,113710
115182,113724
115127,113743
115055,113663
115004,113651
114930,113586
115000,113632
115023,113665
114956,113624
114907,113602
114912,113582
114939,113626
114974,113634
114965,113629
114924,113603
114915,113584
114962,113628
115017,113689
115024,113636
114969,113608
114941,113606
115032,113672
115073,113702
115035,113656
115007,113655
114975,113613
115039,113652
115093,113717
115070,113657
115007,113652
115004,113620
115103,113686
115068,113675
115077,113651
114992,113584
115019,113605
115046,113670
115067,113706
115086,113626
115003,113623
115003,113619
115029,113650
115063,113677
115038,113687
115014,113595
114986,113606
115000,113672
115034,113638
115034,113655
114961,113626
114969,113597
115027,113661
115097,113661
115063,113676
115046,113606
115012,113622
115125,113661
115142,113722
115124,113651
115061,113669
115085,113659
115171,113671
115189,113726
115188,113711
115094,113629
115127,113648
115163,113671
115241,113726
115158,113720
115139,113682
115098,113654
115203,113684
115208,113740
115125,113671
115147,113663
115094,113632
115157,113651
115202,113723
115144,113687
115077,113645
115099,113637
115179,113661
115165,113720
115140,113642
115116,113673
115088,113635
115158,113701
115196,113708
115168,113662
115116,113612
115110,113631
115194,113742
115189,113708
115210,113702
115153,113636
115161,113641
115214,113688
115262,113716
115243,113735
115181,113668
115234,113674
115239,113726
115284,113737
115330,113770
115281,113651
115269,113703
115304,113713
115385,113770
115380,113771
115341,113700
115316,113735
115370,113791
115421,113819
115438,113788
115399,113760
115397,113750
115432,113840
115484,113819
115480,113830
115442,113761
115439,113784
115541,113841
115535,113858
115507,113779
115466,113788
115490,113812
115537,113848
115592,113841
115558,113875
115573,113838
115538,113816
115632,113882
115669,113880
115615,113907
115597,113854
115588,113848
115696,113898
115735,113922
115681,113882
115664,113884
115663,113863
115754,113932
115783,113964
115715,113943
115674,113877
115697,113886
115755,113923
115794,113987
115766,113934
115691,113914
115676,113885
115768,113933
115782,113984
115788,113927
115735,113921
115732,113860
115788,113974
115803,113977
115856,113937
115762,113903
115789,113915
115881,113974
115900,113999
115877,113983
115846,113928
115868,113980
115905,113955
115949,114033
115922,113996
115891,113939
115859,113963
115969,114032
115918,114031
115938,113998
115899,113961
115879,113972
115999,114021
115977,114059
115962,113976
115888,113975
115940,113971
115991,114020
116005,114026
116040,114040
116005,113983
115972,113983
116057,114025
116130,114089
116156,114094
116086,114040
116086,114004
116164,114116
116171,114129
116203,114121
116133,114027
116162,114060
116198,114083
116287,114135
116268,114125
116190,114077
116188,114101
116291,114125
116317,114178
116250,114105
116213,114086
116249,114112
116329,114146
116336,114173
116279,114104
116232,114062
116209,114070
116173,114077
116149,114059
116005,114017
115820,113852
115725,113857
115688,113814
115625,113811
115488,113730
115285,113671
115222,113562
115197,113649
115176,113612
115126,113568
114990,113471
115003,113482
115002,113497
115045,113532
115014,113513
114935,113470
114917,113442
115008,113524
115003,113521
115033,113522
114989,113476
114971,113464
115061,113552
115078,113535
115085,113553
115026,113466
115019,113508
115113,113575
115136,113567
115168,113552
115112,113539
115092,113529
115161,113598
115223,113599
115173,113570
115157,113573
115099,113532
115204,113612
115216,113591
115219,113607
115149,113511
115147,113576
115227,113578
115212,113618
115210,113553
115152,113518
115117,113511
115195,113562
115197,113580
115190,113583
115105,113510
115154,113486
115206,113580
115210,113570
115190,113594
115143,113518
115173,113555
115229,113595
115277,113647
115283,113597
115207,113592
115260,113565
115348,113630
115378,113676
115370,113673
115286,113605
115333,113659
115400,113671
115422,113675
115443,113679
115362,113615
115343,113648
115400,113656
115426,113696
115409,113664
115336,113628
115317,113621
115384,113663
115392,113638
115350,113658
115259,113588
115320,113613
115351,113615
115374,113655
115328,113605
115306,113619
115333,113614
115356,113675
115406,113671
115350,113681
115345,113578
115330,113653
115422,113674
115418,113700
115393,113682
115339,113661
115379,113667
115448,113671
115458,113713
115489,113697
115398,113686
115406,113650
115484,113767
115507,113743
115514,113733
115439,113684
115497,113689
115508,113783
115571,113731
115569,113772
115530,113715
115547,113765
115618,113771
115692,113808
115648,113765
115636,113772
115635,113775
115746,113826
115768,113867
115771,113797
115673,113797
115734,113814
115799,113852
115832,113894
115782,113862
115757,113831
115810,113867
115858,113883
115856,113913
115854,113898
115773,113821
115847,113854
115885,113935
115919,113892
115884,113908
115871,113850
115903,113862
115992,113969
115981,113934
115980,113948
115915,113872
115990,113914
115987,113975
116054,113955
116020,113960
115991,113910
115989,113931
116066,113976
116091,113996
116045,113968
116009,113898
116016,113950
116072,113984
116115,113984
116080,114000
116018,113902
116079,113977
116143,113996
116150,114011
116152,113994
116063,113958
116124,113962
116128,114007
116160,114022
116157,114013
116074,113952
116147,113979
116162,113988
116224,114013
116193,113994
116151,113995
116174,113984
116220,114022
116312,114025
116240,114060
116192,113991
116280,113986
116342,114059
116273,114087
116304,114043
116286,114018
116288,114001
116391,114108
116365,114077
116370,114106
116304,114013
116329,114064
116389,114078
116399,114105
116409,114107
116337,114038
116366,114070
116409,114091
116448,114103
116409,114114
116381,114034
116379,114056
116447,114149
116479,114114
116400,114122
116334,114060
116352,114067
116292,114055
116273,113999
116092,113952
115956,113837
115841,113784
115806,113797
115689,113774
115629,113687
115424,113607
115362,113564
115343,113553
115323,113544
115243,113513
115103,113430
115141,113430
115181,113455
115180,113486
115130,113448
115032,113387
115038,113412
115159,113458
115126,113503
115139,113467
115060,113429
115100,113407
115199,113495
115188,113489
115216,113510
115179,113460
115171,113476
115288,113511
115308,113578
115304,113515
115274,113499
115268,113511
115345,113570
115390,113535
115337,113566
115316,113490
115314,113523
115387,113592
115420,113581
115421,113551
115314,113514
115357,113556
115429,113604
115396,113586
115393,113569
115351,113517
115341,113527
115474,113593
115425,113618
115410,113595
115352,113535
115387,113545
115423,113613
115474,113566
115472,113551
115389,113541
115429,113590
115468,113596
115602,113671
115551,113606
115528,113592
115555,113618
115647,113657
115675,113705
115718,113692
115672,113655
115692,113655
115766,113715
115800,113752
115776,113727
115696,113671
115716,113686
115779,113711
115765,113740
115759,113712
115694,113661
115684,113664
115741,113720
115755,113715
115706,113696
115641,113637
115658,113689
115751,113700
115766,113709
115716,113717
115686,113650
115657,113658
115750,113746
115778,113696
115716,113744
115715,113695
115724,113676
115769,113761
115792,113729
115781,113754
115724,113655
115777,113735
115877,113761
115875,113789
115848,113746
115836,113704
115808,113733
115951,113827
115933,113797
115964,113807
115864,113793
115936,113782
115993,113849
115990,113815
116034,113844
115909,113779
115984,113844
116038,113861
116086,113881
116064,113836
115981,113805
116045,113842
116113,113883
116141,113926
116085,113903
116085,113833
116069,113873
116171,113929
116177,113911
116192,113920
116114,113892
116138,113881
116184,113936
116262,113927
116232,113967
116142,113868
116211,113915
116263,113946
116258,113920
116307,113951
116186,113912
116232,113940
116282,113959
116323,113985
116249,113951
116200,113921
116250,113925
116323,113995
116357,113969
116335,113962
116246,113918
116308,113954
116360,113995
116341,113948
116362,113995
116254,113931
116323,113948
116320,113987
116375,114009
116371,113964
116280,113928
116297,113914
116388,113975
116376,113997
116363,113962
116306,113937
116303,113932
116403,113967
116367,113973
116398,113998
116329,113915
116336,113908
116361,113974
116427,113997
116388,113966
116302,113929
116350,113959
116377,113979
116416,113994
116351,113976
116317,113929
116381,113956
116383,113988
116443,113992
116391,113960
116369,113942
116365,113928
116424,114034
116456,113979
116421,113984
116384,113920
116363,113941
116490,113995
116486,114009
116448,114028
116418,113963
116439,113985
116507,114006
116509,114013
116503,114035
116435,113944
116489,113997
116494,114013
116546,114076
116531,114043
116430,113966
116493,113971
116548,114074
116537,114017
116517,114001
116513,113980
116471,113973
116581,114043
116549,114042
116534,114018
116429,113972
116480,113962
116439,114028
116435,114017
116295,113875
116155,113803
116022,113750
115912,113727
115857,113700
115666,113600
115556,113509
115458,113482
115474,113518
115374,113437
115318,113413
115188,113335
115209,113340
115220,113385
115212,113416
115151,113356
115089,113281
115137,113329
115188,113352
115200,113397
115205,113353
115118,113330
115179,113333
115288,113429
115280,113401
115274,113418
115234,113395
115270,113381
115371,113479
115417,113470
115389,113475
115339,113401
115356,113425
115425,113515
115468,113549
115428,113474
115403,113459
115395,113454
115462,113505
115525,113523
115439,113469
115431,113421
115399,113445
115502,113500
115516,113552
115465,113479
115400,113439
115390,113443
115494,113501
115483,113495
115456,113465
115349,113412
115410,113451
115436,113523
115461,113483
115445,113474
115387,113385
115406,113431
115464,113490
115506,113516
115458,113489
115461,113433
115480,113471
115553,113532
115610,113559
115548,113529
115545,113463
115548,113501
115641,113589
115653,113584
115611,113593
115604,113499
115579,113512
115688,113557
115631,113561
115636,113561
115568,113491
115589,113518
115613,113593
115658,113569
115598,113530
115588,113486
115570,113538
115617,113531
115639,113568
115621,113523
115515,113457
115547,113514
115623,113521
115599,113557
115610,113507
115525,113471
115558,113489
115656,113547
115633,113526
115614,113582
115563,113446
115582,113503
115679,113572
115699,113584
115617,113563
115651,113530
115669,113543
115742,113588
115746,113625
115709,113600
115701,113563
115718,113567
115836,113637
115846,113652
115833,113644
115807,113562
115863,113649
115889,113661
115949,113729
115949,113683
115880,113655
115925,113699
115998,113689
116011,113770
116041,113698
115946,113694
115961,113714
116063,113778
116099,113760
116059,113772
116016,113676
116042,113738
116114,113761
116118,113780
116107,113799
116091,113693
116077,113778
116141,113776
116142,113793
116161,113781
116081,113702
116180,113764
116186,113817
116206,113795
116220,113819
116181,113773
116183,113809
116263,113833
116246,113808
116257,113831
116184,113762
116189,113805
116299,113844
116293,113850
116292,113836
116199,113743
116263,113804
116300,113849
116331,113886
116315,113814
116248,113804
116267,113834
116347,113875
116335,113841
116312,113850
116248,113830
116253,113810
116374,113899
116377,113846
116333,113875
116303,113814
116302,113893
116361,113866
116371,113882
116376,113873
116283,113793
116375,113887
116367,113873
116375,113908
116344,113867
116307,113839
116336,113849
116431,113889
116402,113901
116401,113828
116305,113841
116334,113845
116454,113918
116422,113908
116397,113843
116335,113833
116372,113868
116463,113896
116470,113898
116446,113919
116418,113829
116410,113903
116442,113913
116446,113936
116469,113887
116405,113880
116425,113849
116475,113943
116513,113939
116485,113889
116420,113846
116410,113885
116529,113952
116506,113879
116497,113907
116406,113829
116488,113883
116521,113963
116503,113893
116546,113908
116434,113812
116483,113905
116531,113966
116541,113893
116520,113928
116460,113825
116532,113883
116535,113937
116573,113930
116524,113935
116524,113870
116507,113896
116574,113960
116576,113953
116540,113910
116495,113857
116520,113915
116582,113942
116557,113899
116444,113883
116362,113832
116309,113780
116293,113844
116121,113689
115932,113602
115774,113540
115665,113488
115662,113507
115554,113424
115463,113387
115309,113292
115298,113279
115293,113314
115259,113323
115183,113214
115144,113228
115120,113224
115213,113273
115175,113249
115183,113271
115140,113202
115156,113241
115231,113304
115240,113297
115202,113321
115213,113237
115204,113298
115351,113342
115335,113341
115359,113334
115280,113252
115349,113342
115408,113360
115404,113415
115440,113375
115308,113334
115406,113342
115435,113398
115499,113427
115433,113357
115360,113385
115411,113368
115510,113412
115472,113421
115472,113393
115381,113311
115433,113381
115494,113415
115456,113424
115456,113391
115353,113304
115441,113369
115450,113380
115461,113386
115423,113406
115324,113306
115418,113369
115455,113392
115420,113357
115423,113424
115387,113307
115449,113413
115511,113396
115514,113450
115529,113402
115463,113407
115556,113396
115565,113474
115645,113469
115620,113467
115557,113432
115622,113443
115654,113505
115734,113490
115656,113505
115594,113428
115647,113452
115656,113473
115686,113482
115649,113475
115578,113413
115599,113452
115670,113484
115624,113481
115632,113460
115527,113380
115578,113443
115655,113469
115591,113464
115609,113466
115546,113392
115569,113437
115638,113474
115603,113438
115627,113463
115545,113398
115601,113426
115641,113477
115625,113463
115636,113480
115586,113408
115579,113454
115691,113500
115707,113508
115701,113480
115620,113410
115722,113472
115761,113468
115780,113544
115752,113534
115708,113439
115758,113527
115851,113511
115853,113546
115839,113522
115748,113525
115813,113511
115906,113597
115882,113594
115883,113556
115819,113519
115857,113568
115962,113620
115943,113591
115943,113546
115850,113526
115941,113580
115957,113643
115994,113615
115982,113612
115928,113545
116014,113606
116043,113634
116093,113664
116054,113637
116027,113624
116075,113653
116133,113689
116137,113710
116168,113643
116081,113627
116143,113685
116165,113717
116212,113683
116153,113728
116097,113640
116177,113686
116234,113740
116203,113714
116213,113733
116143,113668
116151,113701
116241,113767
116219,113713
116255,113749
116166,113668
116205,113703
116222,113726
116278,113720
116223,113744
116160,113673
116202,113693
116249,113762
116255,113712
116233,113739
116175,113697
116211,113708
116278,113733
116324,113771
116283,113694
116201,113694
116253,113723
116305,113773
116303,113758
116273,113738
116198,113710
116253,113683
116314,113762
116329,113763
116314,113701
116233,113716
116237,113693
116314,113788
116335,113756
116342,113754
116238,113703
116314,113711
116326,113767
116364,113775
116364,113754
116260,113707
116314,113722
116371,113803
116355,113740
116368,113795
116284,113713
116365,113748
116422,113798
116428,113757
116386,113766
116363,113729
116382,113749
116404,113804
116454,113803
116399,113804
116316,113677
116380,113774
116433,113801
116388,113791
116346,113747
116245,113668
116233,113713
116260,113715
116128,113651
115955,113553
115762,113409
115703,113435
115704,113472
115595,113345
115464,113320
115340,113229
115306,113228
115324,113253
115238,113232
115218,113166
115087,113079
115165,113173
115200,113128
115131,113178
115167,113188
115043,113112
115113,113142
115195,113162
115166,113156
115146,113163
115131,113133
115171,113166
115283,113220
115273,113206
115299,113201
115204,113219
115302,113195
115351,113272
115362,113269
115366,113243
115334,113216
115361,113253
115413,113312
115440,113281
115386,113289
115380,113237
115377,113253
115460,113346
115454,113294
115468,113329
115379,113243
115390,113259
115465,113303
115464,113329
115419,113261
115360,113273
115394,113284
115466,113355
115438,113299
115410,113255
115391,113261
115392,113255
115447,113301
115478,113319
115462,113256
115355,113256
115449,113319
115535,113324
115528,113360
115543,113343
115468,113296
115478,113292
115587,113390
115559,113352
115565,113372
115479,113306
115579,113353
115577,113372
115588,113370
115527,113315
115479,113265
115538,113341
115550,113341
115559,113351
115534,113296
115472,113287
115503,113319
115555,113348
115516,113322
115504,113304
115402,113259
115524,113299
115530,113358
115524,113326
115494,113337
115421,113242
115526,113335
115545,113325
115518,113356
115527,113313
115473,113275
115535,113355
115577,113328
115564,113372
115557,113323
115530,113299
115578,113347
115628,113356
115680,113386
115632,113341
115576,113328
115646,113373
115712,113443
115720,113361
115679,113413
115658,113341
115735,113430
115825,113464
115816,113428
115804,113424
115759,113438
115821,113411
115899,113510
115884,113486
115874,113515
115796,113405
115874,113487
115960,113501
115987,113514
115952,113499
115899,113489
115999,113485
116018,113560
116081,113552
116015,113548
115964,113506
116055,113508
116083,113600
116115,113537
116070,113572
116051,113489
116078,113546
116162,113621
116167,113582
116179,113605
116062,113560
116138,113592
116185,113646
116188,113610
116144,113613
116117,113528
116161,113600
116220,113643
116254,113650
116188,113622
116163,113556
116175,113628
116264,113663
116235,113663
116236,113647
116194,113558
116206,113638
116287,113658
116245,113653
116284,113659
116184,113599
116204,113629
116302,113670
116274,113639
116263,113647
116199,113587
116230,113658
116300,113700
116315,113686
116266,113637
116242,113576
116254,113644
116315,113659
116320,113647
116328,113664
116206,113631
116281,113665
116330,113651
116333,113676
116349,113689
116237,113637
116306,113646
116356,113671
116380,113721
116343,113653
116248,113640
116353,113692
116414,113699
116383,113693
116364,113703
116301,113604
116402,113645
116399,113715
116429,113674
116392,113657
116311,113637
116403,113672
116421,113691
116457,113723
116429,113657
116383,113660
116427,113678
116508,113757
116479,113700
116448,113735
116378,113618
116421,113715
116488,113734
116507,113719
116484,113748
116441,113685
116465,113699
116503,113719
116480,113739
116532,113750
116436,113612
116469,113725
116539,113723
116508,113747
116476,113695
116368,113633
116363,113676
116385,113646
116236,113654
116122,113565
115876,113404
115828,113412
115756,113395
115655,113316
115493,113235
115365,113168
115305,113186
115281,113160
115242,113131
115152,113068
115031,113014
115113,113057
115130,113085
115121,113040
115088,113084
114981,112970
115050,113058
115110,113056
115083,113102
115100,113065
115048,113031
115119,113075
115150,113078
115170,113109
115156,113096
115151,113048
115206,113076
115232,113160
115294,113105
115252,113159
115209,113086
115250,113143
115312,113150
115343,113209
115355,113170
115278,113119
115317,113174
115389,113216
115383,113191
115373,113189
115255,113157
115338,113176
115349,113211
115367,113177
115374,113166
115262,113151
115359,113174
115370,113193
115360,113170
115284,113182
115262,113113
115286,113113
115354,113196
115338,113182
115331,113159
115237,113111
115307,113165
115351,113160
115395,113224
115366,113169
115322,113154
115409,113205
115457,113238
115463,113204
115518,113254
115414,113178
115456,113251
115522,113262
115548,113265
115534,113243
115428,113211
115519,113216
115591,113297
115531,113265
115564,113275
115432,113188
115495,113263
115562,113288
115520,113262
115530,113268
115407,113167
115459,113265
115530,113232
115524,113268
115506,113225
115409,113183
115509,113238
115562,113296
115506,113248
115479,113272
115451,113174
115488,113203
115546,113273
115515,113289
115491,113229
115490,113203
115509,113234
115584,113296
115599,113279
115560,113269
115513,113229
115557,113232
115634,113291
115618,113288
115645,113289
115598,113236
115647,113302
115731,113358
115716,113331
115719,113317
115652,113282
115709,113333
115782,113379
115788,113397
115798,113360
115729,113305
115805,113382
115829,113392
115838,113395
115830,113398
115727,113327
115843,113403
115885,113437
115913,113432
115861,113417
115809,113342
115869,113427
115934,113469
115966,113452
115930,113456
115902,113368
115965,113400
115996,113477
115997,113503
116013,113434
115985,113410
116010,113469
116071,113525
116072,113471
116073,113493
115982,113415
116030,113479
116131,113532
116133,113495
116086,113502
116024,113405
116061,113494
116144,113536
116144,113518
116102,113500
116089,113484
116125,113487
116152,113540
116148,113513
116156,113516
116049,113478
116115,113518
116167,113546
116123,113520
116138,113493
116063,113484
116127,113530
116195,113559
116157,113520
116199,113533
116088,113436
116130,113553
116209,113558
116234,113559
116177,113519
116169,113460
116210,113531
116247,113578
116222,113552
116228,113508
116103,113495
116209,113549
116252,113568
116246,113561
116261,113567
116189,113468
116221,113540
116298,113597
116325,113574
116262,113573
116194,113531
116262,113570
116309,113595
116289,113588
116276,113570
116251,113538
116316,113584
116361,113607
116331,113589
116358,113550
116247,113557
116312,113595
116395,113627
116412,113618
116369,113612
116341,113512
116369,113560
116429,113628
116429,113636
116377,113581
116358,113578
116416,113608
116488,113651
116472,113625
116428,113637
116391,113559
116439,113601
116479,113665
116476,113649
116417,113615
116382,113589
116405,113624
116483,113646
116429,113653
116372,113557
116273,113542
116231,113542
116186,113508
116002,113396
115872,113359
115654,113218
115605,113244
115534,113222
115466,113158
115362,113058
115179,113031
115207,113012
115166,113023
115169,113036
115101,112964
115035,112918
115011,112931
115115,113017
115092,112948
115057,112970
115027,112911
115049,112951
115121,113025
115120,113024
115075,112975
115033,112940
115099,112989
115190,113061
115197,113011
115201,113041
115116,112950
115202,113038
115298,113100
115300,113061
115297,113061
115276,112992
115312,113091
115389,113125
115351,113119
115381,113089
115309,113047
115381,113086
115418,113146
115441,113122
115421,113118
115373,113046
115405,113133
115445,113136
115406,113149
115388,113107
115326,113082
115405,113076
115406,113178
115419,113133
115384,113098
115327,113022
115390,113084
115419,113134
115441,113132
115412,113098
115403,113096
115442,113114
115499,113194
115544,113168
115543,113165
115516,113146
115588,113189
115636,113220
115661,113232
115621,113224
115600,113196
115642,113198
115729,113281
115701,113268
115701,113243
115616,113194
115633,113229
115741,113297
115685,113219
115625,113197
115600,113209
115603,113210
115669,113237
115639,113196
115623,113224
115546,113145
115590,113186
115628,113256
115660,113212
115577,113212
115549,113182
115599,113175
115662,113267
115679,113210
115632,113227
115653,113180
115664,113202
115701,113250
115733,113263
115717,113225
115649,113213
115769,113275
115798,113301
115786,113292
115791,113307
115786,113257
115780,113288
115903,113380
115913,113326
115868,113306
115823,113282
115917,113356
115973,113372
116022,113411
115990,113344
115929,113319
115988,113368
116072,113425
116083,113420
116036,113397
116031,113363
116083,113425
116171,113450
116139,113455
116136,113398
116059,113400
116141,113446
116188,113474
116213,113461
116160,113467
116136,113407
116173,113434
116258,113504
116260,113513
116228,113465
116143,113380
116266,113496
116267,113487
116276,113509
116258,113465
116186,113418
116257,113457
116349,113533
116277,113530
116287,113463
116245,113434
116258,113470
116317,113526
116313,113487
116305,113527
116252,113450
116314,113500
116332,113546
116356,113541
116277,113517
116242,113483
116290,113481
116378,113539
116301,113543
116329,113460
116232,113436
116342,113508
116384,113544
116336,113528
116324,113510
116283,113460
116340,113495
116397,113499
116375,113537
116358,113477
116261,113463
116369,113538
116383,113536
116417,113538
116383,113544
116336,113484
116371,113522
116419,113532
116437,113583
116374,113506
116356,113495
116416,113540
116453,113617
116434,113548
116454,113577
116416,113524
116442,113558
116489,113623
116499,113569
116489,113606
116434,113546
116475,113581
116516,113617
116523,113604
116446,113565
116415,113548
116441,113572
116556,113619
116526,113567
116480,113577
116426,113546
116458,113532
116485,113628
116533,113581
116498,113573
116409,113499
116511,113583
116527,113631
116508,113584
116517,113592
116474,113528
116514,113576
116519,113610
116524,113580
116423,113551
116348,113505
116337,113507
116369,113532
116260,113452
116057,113350
115896,113267
115786,113201
115709,113226
115618,113139
115498,113096
115385,113013
115300,113024
115328,113014
115263,112964
115177,112938
115110,112856
115116,112950
115177,112924
115104,112912
115101,112890
115041,112866
115121,112893
115147,112916
115162,112951
115143,112877
115095,112892
115166,112929
115240,112989
115237,112972
115217,112966
115176,112892
115237,112981
115313,113016
115287,113006
115291,112969
115223,112953
115254,112941
115333,113057
115314,113006
115278,113004
115231,112928
115272,113013
115346,113031
115309,113007
115272,112982
115231,112942
115265,112989
115335,113031
115308,112973
115250,112974
115210,112948
115285,112980
115271,113005
115282,112982
115270,112987
115175,112925
115267,112941
115311,112988
115306,113007
115261,112979
115244,112945
115310,112996
115377,113033
115373,113035
115359,112988
115294,113001
115381,112995
115461,113062
115442,113061
115391,113047
115376,112989
115407,113023
115486,113118
115459,113074
115423,113049
115347,113011
115423,113080
115502,113100
115446,113102
115379,113036
115343,113007
115401,113036
115437,113040
115447,113070
115342,112978
115326,112963
115382,113019
115444,113076
115372,113060
115380,113017
115290,112928
115397,113012
115429,113042
115395,113042
115422,113048
115355,112958
115403,113046
115472,113077
115431,113049
115455,113014
115398,112994
115453,113049
115534,113115
115496,113095
115515,113101
115482,113068
115526,113057
115585,113152
115589,113107
115580,113114
115531,113051
115594,113133
115686,113200
115618,113164
115671,113183
115570,113126
115666,113188
115766,113212
115718,113207
115697,113173
115639,113144
115721,113171
115764,113217
115787,113221
115750,113196
115720,113170
115833,113229
115881,113277
115877,113252
115865,113263
115823,113198
115888,113255
115972,113294
115929,113302
115953,113288
115923,113255
115960,113285
116046,113346
115993,113322
115988,113304
115954,113268
116011,113334
116097,113329
116054,113365
116040,113310
115972,113282
116026,113322
116084,113337
116099,113367
116064,113294
116032,113290
116050,113339
116142,113375
116102,113381
116142,113306
116069,113320
116099,113350
116143,113365
116164,113409
116135,113306
116076,113322
116150,113366
116208,113428
116200,113393
116198,113358
116142,113348
116205,113355
116232,113426
116200,113374
116171,113403
116119,113336
116209,113397
116273,113396
116224,113433
116240,113367
116153,113297
116228,113384
116288,113439
116297,113431
116226,113384
116186,113385
116223,113416
116336,113476
116285,113428
116249,113416
116174,113366
116300,113434
116321,113442
116299,113440
116255,113445
116232,113372
116284,113471
116342,113499
116309,113459
116300,113420
116261,113415
116297,113430
116339,113494
116347,113459
116296,113430
116240,113386
116308,113469
116383,113468
116352,113491
116314,113432
116300,113402
116326,113456
116367,113508
116337,113444
116365,113466
116294,113382
116339,113451
116398,113496
116425,113482
116347,113439
116315,113445
116371,113446
116412,113496
116414,113488
116373,113502
116330,113391
116356,113489
116436,113508
116430,113493
116340,113470
116257,113394
116299,113415
116245,113396
116159,113381
115946,113252
115772,113150
115687,113137
115657,113111
115470,113085
115341,112961
115205,112874
115174,112874
115183,112905
115067,112818
115037,112846
114961,112737
114984,112817
115056,112812
114959,112804
114989,112790
114894,112706
114977,112798
115036,112808
114996,112800
115000,112765
114943,112755
115017,112810
115061,112839
115092,112825
115055,112800
115008,112814
115125,112790
115107,112900
115139,112860
115121,112847
115040,112794
115129,112858
115142,112919
115139,112851
115078,112847
115073,112810
115082,112841
115148,112894
115099,112846
115094,112862
115029,112809
115078,112836
115149,112871
115071,112879
115076,112839
114957,112754
115054,112848
115078,112857
115051,112812
115045,112828
114952,112800
115050,112814
115062,112840
115042,112822
114980,112819
114972,112769
115020,112847
115105,112847
115045,112877
115031,112873
114975,112817
115053,112853
115134,112895
115117,112883
115130,112886
115064,112848
115162,112899
115180,112920
115211,112919
115165,112886
115112,112886
115172,112907
115220,112950
115233,112906
115185,112921
115109,112859
115195,112918
115217,112940
115208,112929
115171,112878
115143,112888
115179,112854
115202,112935
115188,112926
115133,112891
115140,112857
115142,112881
115240,112937
115202,112907
115192,112905
115138,112854
115186,112914
115235,112915
115243,112955
115184,112884
115160,112878
115182,112914
115280,112963
115262,112943
115217,112922
115168,112890
115247,112936
115273,112989
115284,112966
115237,112921
115222,112941
115266,112953
115318,112999
115295,112998
115306,112938
115231,112962
115345,112949
115346,113027
115371,113010
115307,112977
115313,112926
115359,112954
115431,113058
115384,113022
115362,113028
115337,112972
115429,113027
115469,113056
115463,113097
115436,113055
115408,112979
115426,113051
115489,113097
115497,113085
115483,113014
115456,113026
115490,113042
115576,113103
115533,113094
115502,113114
115468,113018
115589,113111
115605,113119
115644,113103
115573,113092
115545,113044
115564,113143
115638,113165
115664,113132
115631,113144
115619,113090
115625,113127
115654,113131
115642,113158
115638,113133
115580,113068
115656,113096
115701,113200
115685,113142
115622,113113
115634,113096
115703,113140
115702,113200
115720,113144
115680,113148
115648,113115
115730,113158
115759,113198
115732,113197
115749,113170
115663,113109
115725,113168
115780,113213
115798,113200
115800,113180
115715,113163
115769,113180
115832,113193
115808,113218
115811,113211
115733,113158
115837,113242
115846,113217
115859,113207
115824,113214
115793,113175
115847,113250
115909,113245
115911,113252
115884,113234
115872,113184
115892,113233
115999,113300
115957,113249
115947,113268
115907,113226
116024,113296
116051,113298
115988,113330
116035,113289
115923,113226
116021,113285
116095,113334
116052,113301
116035,113290
116024,113240
116028,113307
116144,113344
116092,113362
116104,113331
116082,113279
116127,113343
116145,113361
116136,113352
116134,113332
116107,113270
116135,113321
116250,113367
116178,113370
116152,113323
116135,113313
116190,113363
116250,113374
116212,113392
116229,113334
116208,113319
116211,113374
116314,113413
116276,113399
116292,113356
116196,113356
116281,113363
116362,113430
116340,113407
116293,113391
116256,113326
116274,113363
116337,113414
116243,113366
116201,113277
116100,113282
116077,113230
115932,113249
115762,113108
115604,113071
115491,112979
115434,112984
115377,112934
115240,112852
115144,112812
115004,112735
115056,112780
115065,112773
114967,112769
114972,112735
114859,112701
114915,112747
114929,112749
114962,112743
114890,112680
114880,112701
114930,112728
114981,112771
114966,112739
115006,112741
114912,112726
115012,112775
115033,112803
115081,112803
115018,112758
115019,112773
115072,112777
115144,112876
115080,112796
115067,112790
115065,112800
115115,112828
115129,112882
115151,112864
115121,112826
115063,112766
115139,112872
115130,112850
115156,112867
115116,112786
115074,112767
115105,112818
115116,112837
115124,112834
115030,112741
115016,112779
115069,112770
115092,112817
115078,112791
115006,112782
115001,112717
115032,112775
115092,112819
115076,112794
115004,112742
115002,112735
115101,112804
115117,112817
115134,112800
115097,112770
115117,112743
115172,112875
115227,112853
115215,112870
115197,112847
115202,112850
115283,112865
115295,112957
115324,112868
115248,112865
115252,112823
115261,112906
115346,112919
115292,112875
115291,112869
115204,112852
115276,112891
115266,112916
115273,112876
115239,112854
115214,112808
115242,112867
115295,112885
115233,112855
115248,112869
115168,112784
115216,112892
115278,112889
115271,112856
115241,112823
115153,112833
115263,112852
115295,112923
115309,112858
115250,112840
115233,112839
115324,112897
115308,112910
115334,112921
115314,112862
115298,112845
115302,112905
115403,112963
115384,112893
115363,112925
115364,112868
115400,112938
115470,112990
115461,112961
115423,112932
115392,112905
115445,112969
115531,113005
115514,112986
115479,112954
115473,112914
115541,113017
115589,113043
115565,113001
115572,112987
115521,112984
115592,113032
115673,113080
115616,113043
115606,113004
115586,113010
115663,113077
115744,113076
115711,113107
115704,113029
115693,113027
115772,113111
115820,113139
115811,113122
115776,113096
115746,113077
115831,113132
115892,113184
115882,113169
115824,113124
115801,113081
115886,113130
115929,113198
115911,113164
115875,113145
115866,113113
115885,113167
115957,113200
115962,113185
115902,113150
115889,113119
115934,113193
115988,113199
115976,113193
115906,113160
115895,113141
115957,113198
115993,113231
115966,113213
115932,113174
115879,113145
115972,113231
115987,113215
115995,113238
115962,113163
115918,113176
116017,113210
116011,113229
116041,113245
115957,113202
115949,113127
116040,113234
116025,113261
116095,113284
116023,113210
116031,113190
116043,113235
116126,113262
116071,113297
116049,113214
116066,113209
116133,113255
116154,113288
116145,113269
116134,113244
116100,113181
116162,113262
116197,113312
116193,113292
116121,113242
116112,113257
116192,113309
116240,113321
116191,113301
116196,113259
116151,113254
116231,113291
116268,113319
116229,113329
116192,113267
116175,113279
116254,113308
116291,113343
116288,113327
116214,113292
116249,113287
116297,113338
116331,113349
116305,113328
116272,113310
116221,113260
116334,113322
116331,113376
116298,113318
116314,113300
116255,113261
116324,113333
116335,113354
116274,113317
116229,113258
116107,113273
116110,113252
116081,113257
115897,113104
115704,113061
115561,112932
115540,112928
115449,112944
115290,112821
115219,112776
115100,112676
115097,112747
115095,112784
115019,112677
114948,112672
114898,112606
114946,112693
114966,112676
114907,112666
114902,112658
114846,112647
114912,112640
114969,112737
114929,112691
114918,112673
114908,112629
114977,112724
115024,112704
114990,112693
114980,112677
114959,112675
114991,112710
115103,112812
115055,112704
114995,112717
114988,112673
115043,112734
115078,112766
115035,112738
115057,112728
114968,112644
115041,112762
115094,112745
115022,112736
114987,112654
114919,112712
115003,112718
115055,112736
115015,112733
114932,112662
114950,112692
114978,112700
114992,112718
114994,112672
114930,112683
114933,112644
114975,112709
115036,112738
114979,112702
114927,112658
114909,112682
114988,112703
115060,112767
115054,112739
114988,112661
115045,112725
115056,112767
115118,112789
115137,112779
115057,112762
115086,112733
115166,112782
115163,112795
115189,112822
115115,112770
115140,112778
115197,112791
115233,112828
115190,112814
115155,112744
115100,112703
115175,112783
115189,112795
115161,112773
115103,112778
115096,112728
115124,112790
115180,112806
115140,112766
115062,112725
115060,112746
115100,112747
115173,112784
115128,112787
115061,112693
115059,112736
115116,112761
115174,112798
115118,112763
115117,112748
115082,112704
115176,112797
115192,112802
115166,112742
115160,112803
115143,112729
115186,112824
115239,112822
115211,112811
115221,112788
115172,112795
115256,112850
115339,112853
115307,112865
115256,112815
115216,112792
115340,112879
115326,112876
115324,112885
115278,112844
115296,112842
115353,112844
115377,112936
115374,112896
115319,112875
115326,112879
115398,112905
115433,112968
115419,112883
115423,112938
115392,112853
115462,112936
115522,112967
115508,112975
115434,112891
115399,112901
115492,112970
115537,112977
115521,112966
115465,112890
115438,112935
115558,112955
115532,112992
115527,113018
115534,112959
115494,112913
115569,112987
115554,113022
115588,112980
115520,112927
115536,112992
115606,113009
115577,113048
115596,112985
115566,113001
115542,112987
115601,113028
115612,113032
115601,113027
115520,112998
115477,112983
115598,112994
115603,113044
115591,113009
115524,113004
115522,112981
115583,113006
115660,113067
115620,113027
115587,112979
115548,112969
115663,113031
115658,113074
115640,113047
115652,113025
115615,113053
115682,113048
115725,113117
115732,113076
115697,113067
115682,113045
115717,113052
115770,113141
115759,113096
115669,113076
115684,113080
115734,113110
115782,113115
115724,113108
115730,113084
115719,113045
115778,113130
115880,113159
115821,113127
115805,113077
115790,113121
115864,113142
115874,113210
115843,113175
115858,113128
115862,113106
115901,113193
115950,113200
115894,113149
115906,113155
115866,113113
115955,113217
115982,113196
115958,113198
115915,113129
115915,113159
115999,113197
116057,113246
116065,113243
115999,113147
116024,113151
116067,113249
116149,113266
116129,113249
116064,113207
116102,113238
116149,113261
116174,113305
116164,113283
116094,113257
116162,113238
116169,113303
116248,113293
116263,113293
116146,113272
116171,113238
116234,113342
116295,113325
116259,113311
116206,113271
116214,113257
116236,113293
116246,113353
116166,113246
116082,113179
115922,113169
115890,113135
115797,113058
115678,113036
115513,112906
115410,112838
115361,112866
115288,112854
115211,112769
115070,112725
115025,112675
115022,112697
115047,112741
114955,112659
114917,112649
114843,112580
114928,112687
114966,112657
114933,112672
114835,112614
114843,112627
114924,112663
114949,112694
114932,112652
114919,112635
114852,112640
114965,112655
114962,112718
115000,112702
114919,112644
114943,112664
114981,112664
115030,112755
115036,112687
114940,112677
114952,112682
115038,112718
115040,112708
115045,112713
114975,112635
114981,112676
115037,112699
115039,112744
115012,112678
114968,112678
114951,112658
115009,112708
115007,112716
115004,112704
114934,112601
114920,112676
114947,112650
115003,112700
114961,112634
114922,112660
114910,112627
114967,112659
114934,112680
114936,112643
114901,112634
114888,112626
114958,112663
114981,112657
114985,112686
114909,112612
114894,112627
115007,112694
115011,112712
115048,112683
114957,112656
114959,112674
115058,112745
115098,112728
115082,112700
114990,112629
115017,112694
115069,112702
115081,112735
115047,112703
115009,112674
114995,112638
115070,112734
115077,112695
115037,112718
114967,112645
114997,112649
115001,112714
115062,112720
114999,112677
114957,112632
114971,112642
115005,112652
115061,112751
115006,112663
114940,112662
114926,112667
115043,112716
115056,112724
115046,112685
114943,112625
114988,112657
115041,112691
115060,112726
115056,112725
115004,112676
114996,112672
115056,112714
115100,112738
115090,112728
115050,112684
115023,112667
115115,112728
115131,112746
115129,112755
115074,112682
115077,112724
115168,112783
115178,112786
115156,112773
115086,112720
115124,112717
115180,112772
115211,112812
115225,112791
115147,112753
115165,112759
115236,112816
115262,112808
115220,112782
115180,112712
115232,112781
115310,112792
115289,112820
115302,112812
115245,112770
115279,112774
115342,112840
115387,112850
115373,112842
115312,112809
115313,112784
115423,112897
115454,112855
115439,112856
115355,112791
115353,112847
115467,112880
115458,112899
115457,112880
115385,112817
115456,112857
115465,112922
115523,112954
115494,112895
115460,112876
115454,112859
115528,112951
115585,112974
115518,112916
115502,112877
115492,112920
115582,112946
115600,112941
115566,112951
115532,112899
115507,112901
115596,112942
115591,112994
115614,112969
115570,112899
115580,112926
115647,112994
115670,112995
115651,112981
115621,112953
115627,112948
115721,113055
115756,113018
115753,113011
115639,112948
115723,112970
115773,113031
115805,113068
115825,113034
115740,112966
115800,113045
115864,113043
115875,113075
115862,113080
115827,113032
115813,113057
115901,113110
115930,113089
115870,113078
115852,113069
115899,113035
115977,113140
115981,113144
115928,113122
115896,113006
115956,113097
116003,113122
116033,113140
116023,113137
115960,113053
116007,113089
116045,113145
116070,113163
116067,113139
116057,113146
116042,113106
116108,113205
116162,113198
116110,113176
116067,113096
116122,113173
116173,113159
116208,113222
116180,113213
116118,113183
116143,113140
116225,113232
116204,113223
116219,113184
116131,113188
116182,113160
116279,113263
116287,113234
116278,113235
116171,113168
116232,113180
116272,113259
116285,113245
116286,113239
116246,113203
116227,113211
116305,113275
116322,113238
116312,113269
116241,113186
116245,113247
116308,113206
116259,113221
116219,113180
116072,113125
115929,113050
115826,113017
115733,112956
115583,112855
115382,112790
115306,112720
115265,112765
115211,112712
115131,112659
114961,112571
114990,112561
115002,112568
114996,112585
114906,112569
114893,112504
114877,112538
114925,112559
114976,112584
114924,112539
114854,112547
114900,112505
114941,112564
115019,112619
114970,112560
114910,112534
114948,112559
115046,112647
115072,112665
115044,112603
114970,112575
115032,112598
115138,112666
115111,112692
115120,112637
115057,112588
115073,112624
115127,112665
115188,112690
115110,112629
115042,112627
115073,112592
115126,112686
115142,112685
115128,112671
115040,112552
115100,112648
115125,112649
115125,112654
115098,112641
115023,112560
115043,112593
115105,112638
115081,112618
115045,112608
115013,112574
115033,112586
115065,112636
115089,112668
115036,112607
114995,112557
115052,112604
115078,112679
115118,112627
115112,112662
115090,112606
115114,112654
115183,112681
115254,112713
115183,112693
115135,112650
115162,112652
115244,112727
115253,112744
115224,112687
115155,112665
115171,112674
115250,112707
115229,112705
115203,112696
115124,112604
115170,112691
115217,112674
115209,112705
115173,112668
115142,112606
115100,112655
115196,112723
115171,112664
115171,112677
115131,112596
115154,112630
115183,112643
115222,112702
115158,112640
115098,112630
115138,112646
115231,112669
115231,112737
115193,112651
115132,112624
115221,112650
115219,112731
115238,112693
115249,112686
115197,112643
115220,112665
115303,112725
115310,112729
115316,112724
115211,112655
115320,112734
115382,112732
115357,112767
115374,112760
115329,112722
115320,112688
115411,112831
115438,112765
115406,112803
115366,112754
115434,112767
115499,112825
115474,112821
115531,112839
115423,112740
115490,112805
115579,112843
115522,112823
115530,112854
115510,112806
115560,112816
115630,112902
115665,112872
115661,112900
115588,112817
115685,112888
115753,112921
115749,112939
115733,112912
115710,112891
115726,112906
115779,112979
115800,112943
115787,112940
115719,112904
115745,112897
115836,113000
115840,112945
115806,112946
115762,112893
115785,112941
115843,112970
115840,112966
115802,112984
115758,112914
115822,112963
115840,112945
115872,112990
115855,112967
115817,112912
115830,112940
115893,113027
115933,112998
115892,113006
115850,112896
115934,113009
115964,113022
115973,113004
115935,112964
115905,112974
115924,112944
115979,113058
115963,113041
115968,113026
115925,112983
115989,113014
116023,113065
116005,113043
115983,113000
115927,112954
115992,113028
116035,113049
116084,113051
116037,113037
115922,112998
116003,113028
116090,113084
116055,113058
116090,113097
116017,112983
116064,113018
116107,113077
116154,113110
116109,113058
116059,113049
116087,113020
116137,113106
116163,113096
116137,113066
116086,113033
116133,113023
116174,113120
116183,113102
116177,113108
116124,113048
116136,113074
116215,113151
116233,113093
116196,113128
116111,113063
116221,113114
116255,113122
116278,113142
116240,113082
116188,113057
116277,113101
116305,113144
116289,113162
116309,113161
116198,113065
116281,113109
116331,113148
116301,113161
116287,113151
116228,113053
116269,113132
116341,113163
116292,113140
116245,113131
116114,113026
116068,113067
116057,113040
115903,112979
115775,112884
115592,112775
115519,112785
115549,112752
115382,112733
115301,112655
115203,112569
115190,112601
115154,112588
115124,112573
115080,112516
115013,112469
115013,112513
115029,112533
115096,112555
115040,112510
114978,112521
115046,112511
115111,112544
115082,112558
115087,112546
115047,112509
115080,112508
115166,112597
115147,112591
115119,112559
115122,112538
115140,112567
115215,112646
115227,112601
115213,112593
115167,112572
115209,112553
115246,112654
115261,112631
115224,112613
115195,112548
115224,112627
115263,112618
115273,112649
115242,112598
115164,112566
115199,112593
115218,112627
115226,112633
115217,112581
115123,112564
115180,112571
115205,112629
115205,112582
115142,112598
115110,112501
115105,112599
115224,112629
115169,112580
115175,112577
115128,112512
115152,112608
115248,112617
115281,112644
115209,112620
115195,112567
115225,112580
115338,112692
115320,112654
115302,112633
115264,112623
115288,112643
115359,112707
115412,112686
115328,112633
115303,112626
115351,112632
115393,112697
115375,112718
115374,112655
115275,112652
115327,112642
115399,112694
115352,112660
115352,112634
115259,112607
115357,112665
115350,112703
115335,112675
115324,112653
115272,112604
115308,112628
115348,112665
115327,112637
115307,112655
115253,112593
115306,112641
115342,112668
115361,112693
115361,112658
115288,112601
115346,112653
115405,112723
115397,112697
115371,112667
115329,112628
115396,112672
115438,112746
115404,112707
115413,112693
115359,112645
115427,112690
115511,112779
115468,112721
115447,112734
115434,112646
115477,112732
115558,112778
115531,112768
115506,112746
115451,112682
115525,112759
115570,112788
115585,112777
115584,112757
115487,112694
115582,112812
115625,112821
115661,112820
115618,112766
115595,112781
115659,112774
115699,112865
115709,112851
115661,112805
115624,112758
115685,112812
115767,112862
115754,112868
115763,112841
115710,112796
115774,112873
115833,112906
115821,112897
115805,112872
115749,112824
115829,112888
115877,112924
115878,112871
115845,112878
115772,112847
115875,112900
115907,112937
115881,112922
115871,112896
115812,112849
115868,112908
115916,112934
115904,112922
115872,112905
115809,112858
115863,112877
115952,112932
115917,112935
115925,112934
115854,112859
115894,112935
115974,112972
115964,112950
115950,112914
115874,112862
115938,112949
115987,112959
115980,112968
115969,112943
115908,112899
115953,112961
116020,112995
116033,112979
115959,112944
115904,112903
115992,112947
116059,112995
116002,113001
115990,112943
115957,112937
116049,112998
116083,112996
116072,113027
116058,112975
115990,112923
116054,113022
116113,112985
116142,113043
116098,112979
116068,112948
116102,112983
116199,113053
116150,113027
116160,113018
116079,112953
116128,112968
116249,113049
116202,113052
116147,113028
116151,112963
116178,113024
116252,113077
116201,113069
116198,113013
116119,113024
116244,113039
116285,113080
116273,113067
116217,113012
116186,113024
116263,113039
116288,113089
116256,113069
116235,113072
116210,113004
116260,113024
116326,113086
116279,113092
116294,113073
116201,113039
116309,113111
116340,113124
116338,113068
116317,113114
116235,113039
116338,113113
116353,113133
116343,113116
116326,113042
116237,113085
116311,113121
116357,113108
116373,113111
116318,113112
116302,113033
116320,113076
116410,113129
116372,113151
116374,113077
116323,113082
116416,113169
116447,113130
116387,113118
116389,113117
116315,113053
116400,113147
116464,113165
116386,113125
116356,113082
116249,113054
116301,113099
116290,113069
116191,113001
116054,112969
115882,112840
115799,112883
115801,112852
115703,112760
115551,112750
115455,112591
115440,112659
115438,112647
115346,112605
115275,112558
115231,112539
115278,112536
115261,112559
115246,112579
115207,112534
115159,112519
115196,112539
115284,112584
115250,112571
115252,112555
115200,112503
115269,112559
115339,112604
115298,112599
115286,112580
115250,112541
115347,112614
115388,112640
115357,112649
115355,112606
115294,112569
115374,112624
115403,112643
115406,112626
115348,112597
115306,112579
115365,112621
115403,112653
115404,112619
115320,112591
115292,112583
115354,112625
115392,112634
115366,112610
115302,112578
115273,112555
115321,112579
115353,112645
115343,112603
115264,112557
115217,112516
115279,112580
115329,112579
115285,112595
115268,112545
115202,112519
115273,112568
115324,112621
115318,112610
115298,112574
115246,112535
115338,112588
115380,112669
115391,112623
115326,112620
115300,112570
115389,112640
115449,112671
115389,112654
115395,112599
115337,112585
115418,112636
115458,112684
115439,112665
115395,112613
115348,112609
115419,112626
115438,112663
115419,112627
115374,112627
115341,112575
115386,112631
115436,112670
115400,112640
115361,112598
115336,112598
115422,112629
115437,112674
115411,112652
115359,112600
115368,112562
115389,112619
115446,112673
115422,112662
115404,112617
115353,112569
115424,112654
115466,112682
115468,112655
115427,112631
115404,112591
115460,112655
115512,112702
115493,112669
115485,112659
115446,112617
115495,112663
115541,112705
115540,112716
115539,112682
115516,112642
115568,112705
115644,112755
115587,112728
115578,112681
115550,112672
115625,112742
115654,112760
115662,112741
115621,112725
115604,112712
115678,112763
115699,112795
115719,112770
115682,112742
115658,112707
115672,112773
115778,112829
115743,112785
115727,112754
115701,112751
115724,112803
115801,112840
115801,112824
115718,112771
115766,112762
115789,112822
115849,112859
115826,112820
115781,112796
115732,112796
115822,112795
115878,112898
115860,112824
115823,112826
115782,112781
115849,112875
115868,112843
115842,112867
115824,112818
115794,112787
115905,112878
115884,112873
115865,112889
115843,112824
115812,112810
115903,112852
115891,112901
115892,112867
115865,112840
115857,112797
115906,112871
115969,112905
115932,112881
115887,112856
115876,112822
115925,112879
116012,112920
115974,112879
115908,112904
115911,112841
115963,112888
116011,112919
115997,112925
115951,112850
115909,112818
115995,112897
116039,112956
115984,112890
116012,112874
115926,112863
115990,112893
116062,112957
116073,112928
115959,112926
115995,112899
116054,112945
116127,112966
116096,112950
116043,112924
116050,112910
116094,112939
116133,113005
116128,112965
116086,112927
116102,112927
116116,112975
116219,113002
116194,112985
116116,112938
116093,112939
116178,112992
116209,113016
116234,113022
116185,112958
116148,112982
116205,113007
116305,113061
116257,112997
116199,112995
116184,112950
116222,113005
116300,113048
116273,113005
116243,113004
116232,112950
116288,113041
116325,113049
116325,113059
116288,112991
116260,112997
116363,113044
116362,113077
116363,113064
116294,113020
116296,113003
116369,113051
116421,113096
116410,113042
116319,113035
116319,113024
116402,113079
116437,113099
116395,113071
116377,113045
116340,113025
116425,113071
116443,113090
116411,113078
116367,113053
116352,113030
116394,113070
116424,113068
116372,113034
116306,113024
116252,112958
116264,112999
116205,112978
116045,112893
115917,112820
115806,112769
115828,112804
115762,112767
115685,112707
115592,112637
115518,112611
115513,112647
115519,112613
115468,112627
115387,112545
115335,112541
115401,112579
115429,112604
115384,112583
115312,112537
115346,112533
115384,112570
115484,112623
115456,112625
115403,112581
115411,112551
115475,112639
115529,112615
115517,112614
115456,112591
115491,112609
115571,112662
115575,112687
115549,112634
115550,112653
115546,112609
115637,112693
115602,112699
115608,112697
115544,112625
115561,112661
115638,112682
115647,112678
115621,112693
115600,112638
115549,112657
115605,112651
115612,112722
115608,112669
115570,112632
115515,112649
115603,112636
115601,112670
115576,112647
115512,112633
115530,112595
115567,112708
115597,112670
115572,112662
115523,112610
115523,112635
115611,112697
115614,112668
115647,112665
115569,112637
115592,112651
115651,112701
115707,112738
115684,112741
115656,112672
115619,112654
115751,112737
115764,112749
115747,112729
115662,112678
115694,112718
115737,112722
115725,112788
115718,112728
115682,112705
115654,112652
115758,112768
115752,112718
115744,112724
115678,112668
115628,112683
115718,112715
115720,112736
115714,112708
115629,112675
115621,112686
115702,112725
115734,112772
115705,112712
115701,112662
115663,112719
115737,112734
115728,112776
115705,112720
115694,112708
115724,112687
115744,112771
115770,112783
115751,112745
115733,112716
115709,112706
115832,112767
115803,112738
115813,112775
115770,112729
115752,112712
115845,112787
115845,112759
115851,112753
115773,112709
115847,112771
115919,112811
115905,112811
115918,112814
115823,112775
115869,112782
115933,112828
115943,112877
115930,112817
115929,112783
115894,112840
115995,112894
116026,112845
116045,112866
115984,112792
115962,112870
116074,112868
116061,112911
116058,112871
115999,112827
116054,112850
116110,112945
116139,112944
116109,112894
116090,112839
116057,112896
116140,112931
116172,112962
116157,112922
116098,112880
116084,112873
116209,112954
116188,112906
116194,112934
116128,112872
116131,112859
116211,112980
116250,112944
116207,112935
116161,112876
116160,112937
116238,112932
116218,112956
116233,112941
116119,112894
116176,112930
116219,112957
116260,112974
116260,112971
116231,112895
116209,112959
116277,113005
116307,112988
116257,112986
116228,112896
116255,112961
116279,112956
116305,113032
116269,112981
116242,112937
116253,112909
116328,113028
116355,112982
116303,112989
116301,112953
116285,112972
116352,112982
116338,113020
116326,112998
116250,112973
116282,112964
116371,113009
116358,113027
116336,113010
116280,112920
116352,112983
116375,113015
116392,113023
116356,112973
116300,112940
116300,112990
116433,113013
116378,113020
116368,113001
116327,112921
116364,113008
116394,112978
116420,113037
116425,112996
116320,112974
116353,112956
116438,113058
116476,113054
116427,113012
116374,112965
116374,112996
116453,113011
116435,113044
116458,113046
116395,112987
116384,113033
116487,113068
116492,113019
116430,113044
116386,113014
116428,113005
116459,113036
116455,113030
116461,113038
116384,113041
116424,112999
116475,113103
116507,113067
116470,113035
116432,113012
116409,113022
116518,113075
116503,113046
116500,113099
116413,112991
116489,113040
116511,113067
116481,113100
116488,113062
116426,112992
116470,113057
116534,113090
116492,113080
116500,113050
116467,112991
116444,113036
116480,113057
116536,113073
116530,113060
116427,112981
116495,113030
116531,113080
116514,113058
116530,113034
116480,113009
116461,113029
116598,113084
116567,113059
116532,113068
116454,113039
116485,113026
116540,113122
116588,113108
116542,113082
116509,113034
116495,113083
116600,113103
116580,113062
116531,113076
116490,113034
116556,113040
116559,113114
116591,113094
116585,113053
116491,112992
116525,113041
116600,113112
116598,113078
116564,113089
116536,113040
116531,113060
116594,113089
116572,113082
116558,113059
116505,113040
116499,112997
116534,113094
116533,113042
116446,113014
116300,112936
116254,112885
116194,112935
116128,112877
116052,112811
115889,112733
115912,112732
115866,112761
115792,112734
115774,112696
115696,112615
115640,112650
115700,112684
115689,112630
115615,112638
115576,112550
115589,112597
115675,112624
115636,112593
115611,112621
115584,112535
115625,112626
115678,112631
115669,112651
115679,112631
115649,112600
115650,112627
115775,112724
115741,112672
115723,112677
115666,112625
115725,112664
115796,112719
115818,112718
115761,112679
115731,112655
115761,112669
115843,112743
115834,112721
115812,112712
115745,112650
115739,112685
115848,112733
115811,112734
115808,112700
115724,112632
115769,112700
115825,112743
115811,112719
115762,112690
115744,112630
115734,112672
115811,112722
115775,112694
115768,112671
115691,112625
115705,112684
115806,112697
115770,112689
115731,112693
115681,112650
115762,112657
115828,112730
115824,112725
115837,112713
115750,112679
115827,112686
115860,112797
115857,112777
115902,112755
115838,112704
115858,112711
115898,112814
115882,112769
115899,112780
115846,112699
115863,112743
115886,112775
115883,112767
115857,112737
115817,112686
115828,112715
115886,112740
115882,112749
115859,112760
115801,112651
115857,112738
115880,112720
115857,112737
115860,112744
115778,112645
115847,112746
115907,112729
115885,112749
115865,112718
115776,112738
115814,112685
115885,112779
115899,112777
115889,112753
115798,112722
115883,112729
115948,112765
115969,112777
115879,112745
115855,112724
115923,112780
116005,112805
115969,112797
115965,112780
115929,112748
115931,112753
115992,112839
115993,112788
115998,112831
115964,112741
115995,112820
116101,112835
116050,112821
116072,112862
115973,112740
116040,112823
116113,112845
116097,112867
116061,112849
116063,112795
116060,112831
116177,112916
116118,112859
116144,112867
116056,112815
116132,112873
116223,112914
116158,112927
116193,112869
116102,112802
116132,112863
116249,112921
116198,112939
116205,112881
116139,112810
116177,112886
116247,112912
116243,112954
116236,112912
116145,112864
116196,112888
116211,112907
116267,112952
116257,112909
116194,112852
116222,112900
116243,112965
116299,112953
116280,112902
116216,112847
116211,112940
116325,112957
116304,112938
116292,112915
116247,112858
116235,112933
116324,112997
116305,112945
116315,112961
116219,112887
116291,112939
116359,112938
116322,112968
116318,112919
116233,112891
116278,112892
116380,112954
116343,112949
116337,112953
116248,112895
116333,112930
116393,112939
116401,112959
116327,112956
116321,112911
116370,112924
116384,112982
116407,112979
116380,112962
116352,112917
116346,112958
116419,113014
116401,112993
116427,113010
116353,112909
116387,112988
116450,113024
116409,113002
116406,112990
116365,112910
116446,113003
116508,112995
116458,113013
116447,112985
116371,112952
116435,112941
116488,113017
116474,113009
116466,112988
116394,112934
116471,112978
116473,113027
116476,112999
116444,112974
116424,112939
116449,113020
116513,113073
116462,113041
116486,112979
116409,112986
116459,112968
116465,113025
116517,113032
116468,113011
116458,112956
116451,113006
116563,113105
116513,113038
116498,112967
116451,112988
116473,113017
116540,113084
116532,113013
116493,113016
116425,112944
116471,113022
116502,113021
116540,113033
116517,113026
116426,112962
116509,113002
116531,113041
116532,113029
116496,113040
116450,112926
116492,113047
116561,113073
116510,113030
116532,112998
116472,112994
116509,113000
116537,113085
116568,113063
116526,113045
116463,112976
116564,112985
116579,113055
116586,113071
116549,113047
116450,112998
116517,113033
116599,113071
116570,113043
116521,113050
116480,112958
116533,113030
116613,113064
116541,113047
116581,113031
116490,112971
116560,113022
116628,113064
116601,113054
116563,112981
116510,112990
116570,113024
116570,113052
116571,113005
116487,112972
116389,112925
116424,112982
116408,112985
116289,112896
116113,112843
115967,112721
116016,112761
116002,112755
115882,112748
115845,112688
115690,112619
115744,112598
115733,112608
115631,112577
115583,112598
115547,112479
115590,112559
115615,112599
115598,112540
115550,112541
115500,112487
115524,112525
115643,112608
115595,112571
115589,112557
115550,112522
115604,112534
115681,112619
115693,112614
115629,112584
115655,112568
115655,112635
115754,112670
115766,112674
115727,112614
115695,112614
115763,112624
115794,112670
115779,112646
115755,112676
115721,112590
115785,112638
115813,112680
115804,112679
115772,112642
115736,112592
115787,112661
115825,112687
115787,112656
115751,112671
115719,112595
115753,112687
115830,112711
115771,112665
115744,112634
115713,112619
115764,112643
115820,112675
115785,112664
115760,112672
115657,112612
115759,112673
115806,112687
115790,112689
115764,112650
115699,112610
115771,112715
115857,112735
115843,112700
115832,112655
115760,112655
115830,112710
115899,112739
115899,112720
115845,112646
115823,112667
115890,112697
115933,112734
115886,112709
115878,112700
115829,112670
115861,112690
115914,112740
115905,112732
115889,112697
115787,112682
115883,112725
115918,112754
115873,112687
115839,112708
115770,112609
115871,112747
115907,112738
115887,112706
115849,112700
115772,112661
115902,112734
115931,112747
115888,112727
115866,112702
115819,112660
115879,112731
115934,112753
115944,112746
115915,112693
115829,112687
115945,112735
115988,112752
115949,112792
115963,112726
115894,112712
115994,112747
116018,112802
115970,112805
115975,112764
115928,112712
116018,112756
116071,112850
116042,112757
115989,112738
116026,112732
116031,112819
116123,112789
116072,112846
116081,112817
116055,112765
116100,112844
116151,112867
116156,112843
116105,112809
116124,112752
116133,112826
116224,112881
116181,112874
116177,112837
116134,112811
116217,112885
116235,112902
116254,112877
116189,112834
116204,112824
116223,112844
116287,112932
116264,112877
116266,112858
116175,112849
116278,112906
116291,112917
116296,112917
116253,112839
116215,112860
