11111,11111
0,0
82186,82237
114306,113959
114314,113947
114275,113906
114184,113895
114142,113875
114157,113866
114124,113821
113996,113773
113840,113687
113698,113657
113652,113589
113573,113561
113458,113528
113302,113426
113214,113415
113172,113379
113157,113373
113029,113336
112906,113265
112887,113224
112916,113280
112837,113232
112826,113240
112743,113198
112749,113187
112809,113245
112815,113226
112833,113258
112744,113193
112822,113258
112943,113322
112937,113272
113019,113326
112950,113298
113063,113351
113159,113398
113178,113397
113200,113415
113179,113428
113251,113431
113373,113520
113380,113513
113416,113497
113350,113463
113431,113490
113547,113558
113493,113536
113555,113555
113495,113520
113541,113559
113590,113617
113585,113553
113618,113586
113525,113566
113579,113566
113631,113636
113617,113596
113611,113576
113546,113563
113576,113555
113674,113628
113681,113604
113680,113609
113601,113555
113678,113617
113745,113630
113738,113642
113774,113608
113671,113636
113768,113606
113816,113694
113812,113687
113796,113661
113728,113653
113785,113633
113786,113707
113803,113662
113814,113664
113702,113636
113707,113626
113785,113637
113745,113655
113696,113609
113644,113565
113671,113582
113712,113620
113720,113620
113664,113614
113587,113557
113658,113618
113672,113605
113674,113632
113632,113597
113578,113573
113631,113597
113683,113630
113690,113641
113658,113608
113640,113583
113675,113605
113774,113649
113759,113639
113772,113645
113742,113592
113744,113651
113849,113656
113880,113698
113831,113694
113784,113609
113855,113670
113944,113711
113925,113734
113864,113693
113876,113670
113951,113704
113967,113722
114013,113769
113974,113715
113936,113699
113986,113753
114065,113772
114056,113760
114053,113768
113941,113737
114024,113750
113951,113689
114320,113836
114295,113839
114251,113789
113875,113607
113713,113554
113571,113475
113387,113368
112950,113196
113046,113234
113149,113313
113184,113332
113156,113329
113147,113259
113217,113350
113351,113397
113379,113397
113372,113393
113343,113360
113459,113453
113558,113458
113602,113483
113610,113497
113573,113477
113639,113492
113716,113540
113753,113558
113744,113564
113690,113491
113746,113583
113762,113564
113782,113561
113747,113566
113649,113521
113696,113519
113786,113576
113739,113577
113680,113551
113653,113531
113701,113562
113747,113563
113762,113583
113721,113571
113716,113556
113805,113556
113866,113616
113869,113609
113880,113609
113843,113605
113890,113611
113966,113663
113986,113655
113907,113643
113822,113585
113904,113644
113941,113661
113906,113661
113848,113599
113767,113540
113819,113599
113833,113602
113775,113580
113760,113546
113665,113526
113703,113553
113756,113585
113737,113547
113687,113557
113630,113471
113665,113555
113713,113559
113729,113560
113701,113547
113675,113521
113731,113563
113785,113559
113781,113549
113758,113563
113730,113558
113805,113571
113908,113599
113865,113603
113845,113590
113844,113568
113940,113621
114043,113658
114003,113650
114016,113642
114001,113650
114080,113659
114186,113716
114151,113691
114164,113695
114146,113674
114213,113743
114282,113746
114241,113711
114247,113727
114228,113687
114290,113744
114333,113783
114289,113722
114283,113750
114271,113756
114338,113745
114360,113771
114398,113794
114318,113742
114312,113713
114412,113778
114419,113798
114408,113790
114356,113725
114356,113716
114413,113791
114429,113767
114445,113795
114378,113757
114376,113761
114473,113804
114476,113804
114471,113812
114386,113756
114389,113753
114456,113802
114487,113791
114485,113803
114389,113773
114416,113747
114486,113808
114515,113825
114477,113812
114361,113758
114405,113742
114468,113810
114494,113811
114429,113738
114404,113775
114401,113781
114411,113812
114458,113750
114420,113766
114366,113753
114351,113743
114429,113793
114470,113774
114432,113784
114340,113730
114370,113753
114432,113779
114430,113806
114424,113776
114364,113755
114375,113762
114419,113792
114423,113770
114449,113790
114353,113771
114356,113746
114443,113815
114429,113775
114418,113760
114363,113754
114369,113743
114453,113798
114423,113777
114377,113763
114326,113725
114372,113754
114433,113764
114502,113840
114407,113766
114363,113722
114407,113771
114449,113793
114498,113805
114439,113799
114359,113737
114448,113759
114493,113792
114488,113819
114459,113775
114411,113742
114451,113764
114520,113807
114474,113830
114468,113762
114436,113759
114433,113799
114468,113811
114493,113797
114456,113773
114379,113735
114341,113710
114381,113737
114273,113729
114183,113621
113993,113567
113894,113516
113787,113485
113716,113428
113553,113362
113419,113279
113412,113283
113364,113279
113266,113228
113244,113202
113133,113158
113140,113166
113190,113217
113199,113175
113148,113193
113087,113161
113166,113208
113258,113247
113242,113249
113234,113211
113220,113203
113308,113278
113425,113314
113407,113314
113443,113336
113408,113345
113529,113339
113635,113411
113638,113391
113640,113401
113614,113393
113701,113430
113758,113473
113803,113451
113774,113468
113726,113429
113792,113483
113857,113507
113904,113513
113838,113499
113824,113478
113880,113505
113925,113564
113894,113508
113881,113512
113822,113486
113889,113543
113935,113544
113911,113542
113858,113512
113842,113490
113883,113524
113935,113563
113954,113545
113935,113496
113919,113509
113955,113563
113988,113544
114011,113553
113947,113520
113939,113538
113967,113548
114010,113540
113991,113574
113954,113505
113894,113515
113951,113502
113988,113582
113924,113521
113864,113500
113843,113482
113859,113510
113900,113523
113843,113474
113793,113466
113762,113452
113798,113471
113872,113506
113789,113474
113765,113443
113691,113457
113758,113463
113801,113489
113800,113476
113731,113468
113702,113399
113808,113497
113813,113482
113815,113468
113755,113456
113755,113480
113825,113489
113863,113518
113836,113493
113749,113440
113823,113475
113862,113537
113906,113537
113931,113516
113855,113494
113881,113504
113961,113533
113998,113572
113965,113532
113918,113516
113926,113526
114017,113584
114031,113593
114018,113567
113971,113523
113977,113570
114033,113561
114082,113597
114058,113596
113987,113535
114008,113557
114060,113594
114088,113587
114095,113604
114020,113563
114007,113565
114099,113570
114128,113623
114118,113588
114010,113570
114080,113585
114126,113590
114193,113648
114144,113584
114081,113563
114120,113603
114181,113630
114182,113637
114205,113612
114100,113583
114179,113596
114233,113672
114281,113644
114234,113612
114191,113602
114213,113653
114284,113664
114321,113652
114293,113662
114231,113610
114301,113619
114337,113701
114349,113654
114337,113666
114255,113633
114343,113643
114365,113717
114382,113675
114398,113698
114347,113662
114339,113702
114432,113697
114443,113701
114400,113700
114356,113650
114401,113662
114488,113710
114464,113749
114426,113671
114392,113656
114427,113705
114453,113727
114497,113728
114490,113703
114430,113687
114444,113711
114526,113759
114515,113744
114475,113725
114445,113691
114493,113755
114543,113745
114539,113758
114532,113753
114459,113715
114524,113743
114555,113786
114523,113751
114525,113765
114477,113720
114535,113733
114588,113775
114559,113767
114564,113756
114479,113736
114536,113758
114581,113774
114558,113765
114560,113757
114492,113727
114556,113766
114613,113788
114601,113779
114538,113740
114499,113713
114593,113772
114613,113790
114616,113792
114589,113760
114498,113759
114612,113791
114633,113812
114597,113796
114576,113757
114472,113724
114519,113755
114513,113735
114418,113706
114308,113643
114176,113578
114070,113531
113967,113500
113847,113414
113652,113357
113547,113285
113472,113272
113428,113237
113335,113168
113236,113188
113151,113089
113201,113151
113220,113153
113179,113153
113196,113110
113124,113100
113196,113159
113258,113175
113245,113157
113244,113168
113234,113174
113386,113221
113439,113274
113445,113246
113443,113280
113486,113261
113580,113335
113691,113385
113674,113375
113681,113369
113674,113376
113824,113431
113861,113479
113855,113424
113822,113460
113842,113449
113910,113464
113980,113489
113990,113526
113905,113448
113925,113464
114010,113510
114017,113555
114032,113490
113944,113493
113960,113484
114008,113517
114027,113523
114055,113557
113991,113476
113977,113505
114034,113545
114058,113544
114005,113570
114003,113488
113975,113510
114037,113567
114094,113565
114088,113537
114008,113510
114034,113518
114084,113546
114119,113570
114050,113542
114024,113503
114048,113507
114082,113527
114076,113551
114033,113535
113949,113467
113984,113482
114026,113500
114031,113530
113988,113513
113869,113455
113846,113452
113951,113496
113919,113505
113882,113462
113785,113425
113811,113427
113883,113494
113875,113469
113822,113461
113784,113438
113835,113453
113895,113471
113912,113449
113947,113503
113871,113437
113856,113467
113934,113482
113989,113498
113969,113516
113898,113475
113939,113464
114040,113540
114009,113524
114001,113498
113970,113495
114014,113529
114055,113540
114099,113570
114078,113542
114014,113518
114045,113518
114164,113584
114178,113594
114136,113547
114106,113537
114160,113564
114187,113589
114244,113577
114206,113603
114140,113559
114175,113583
114244,113631
114246,113596
114267,113628
114169,113562
114194,113575
114277,113634
114276,113631
114229,113584
114189,113590
114244,113619
114283,113661
114294,113611
114258,113629
114216,113575
114295,113619
114328,113648
114304,113647
114300,113608
114247,113595
114304,113629
114349,113650
114334,113646
114357,113668
114237,113600
114323,113637
114385,113680
114354,113648
114357,113659
114285,113604
114358,113667
114388,113663
114404,113656
114350,113669
114317,113610
114369,113658
114418,113665
114394,113667
114364,113678
114338,113619
114374,113649
114465,113687
114404,113700
114408,113655
114342,113649
114406,113660
114473,113714
114425,113681
114433,113664
114393,113654
114479,113681
114466,113733
114507,113700
114422,113648
114407,113673
114486,113682
114503,113734
114498,113693
114513,113697
114457,113674
114487,113709
114572,113716
114552,113735
114479,113680
114458,113691
114513,113693
114556,113710
114563,113752
114507,113691
114458,113717
114497,113689
114583,113755
114551,113717
114502,113703
114454,113674
114533,113724
114585,113703
114569,113723
114538,113702
114460,113687
114537,113686
114608,113750
114535,113714
114549,113692
114496,113692
114576,113703
114601,113731
114581,113726
114560,113678
114545,113699
114629,113747
114631,113761
114609,113720
114588,113731
114566,113716
114662,113724
114618,113758
114596,113761
114567,113706
114558,113738
114609,113736
114636,113791
114585,113734
114572,113721
114559,113725
114589,113733
114556,113748
114507,113708
114388,113601
114314,113592
114208,113584
114140,113520
113976,113467
113719,113360
113617,113270
113560,113294
113468,113222
113402,113196
113207,113110
113188,113094
113215,113114
113223,113108
113163,113081
113093,113074
113062,113054
113143,113061
113140,113105
113154,113118
113102,113055
113135,113105
113209,113113
113233,113147
113280,113138
113210,113139
113269,113174
113363,113226
113391,113218
113443,113226
113370,113209
113476,113248
113536,113338
113616,113313
113596,113341
113597,113278
113648,113323
113739,113349
113824,113404
113800,113414
113765,113341
113809,113403
113898,113450
113909,113488
113880,113406
113846,113396
113862,113435
113910,113459
113946,113444
113972,113453
113840,113419
113928,113439
114001,113481
114051,113484
113997,113481
113914,113413
114021,113465
114049,113504
114052,113514
114078,113509
114034,113466
114073,113491
114175,113554
114164,113539
114124,113551
114074,113513
114123,113521
114224,113544
114162,113586
114134,113512
114059,113485
114107,113505
114156,113537
114144,113551
114077,113488
114023,113489
114059,113490
114080,113516
114070,113509
114048,113504
113940,113431
113982,113477
114026,113496
114002,113503
113978,113452
113910,113457
113934,113458
114022,113508
114018,113497
113995,113484
113953,113463
114006,113495
114107,113507
114095,113528
114062,113502
114067,113509
114090,113523
114141,113593
114144,113533
114137,113567
114117,113524
114171,113541
114222,113593
114248,113590
114246,113601
114189,113536
114264,113595
114325,113597
114334,113591
114290,113623
114278,113561
114358,113622
114411,113647
114410,113630
114384,113616
114364,113600
114381,113646
114436,113694
114414,113670
114438,113652
114405,113656
114431,113634
114515,113693
114452,113679
114447,113647
114392,113605
114488,113647
114478,113720
114460,113647
114455,113668
114411,113631
114445,113680
114519,113661
114486,113694
114407,113663
114396,113631
114405,113666
114489,113662
114456,113698
114398,113624
114366,113659
114433,113673
114474,113675
114464,113675
114408,113651
114359,113616
114444,113653
114453,113679
114429,113653
114386,113629
114388,113640
114445,113685
114435,113641
114438,113644
114412,113647
114395,113630
114448,113684
114505,113656
114481,113672
114437,113627
114419,113608
114461,113671
114525,113723
114480,113684
114448,113630
114409,113655
114500,113671
114492,113711
114481,113655
114468,113655
114425,113655
114485,113667
114543,113673
114494,113678
114478,113625
114448,113682
114510,113655
114560,113681
114546,113677
114470,113651
114469,113635
114553,113685
114556,113725
114566,113692
114479,113646
114486,113651
114578,113714
114569,113715
114549,113667
114499,113663
114511,113659
114578,113699
114583,113684
114586,113668
114490,113683
114534,113650
114576,113692
114629,113717
114568,113716
114531,113643
114541,113701
114573,113698
114634,113731
114596,113665
114525,113677
114565,113658
114623,113719
114625,113698
114619,113702
114541,113658
114552,113671
114632,113702
114592,113715
114557,113673
114483,113638
114506,113644
114500,113648
114423,113622
114299,113548
114099,113457
114024,113438
113946,113425
113790,113328
113633,113248
113419,113138
113355,113131
113299,113105
113244,113052
113163,113025
113014,112946
113049,112963
113051,113001
113001,112985
112970,112961
112825,112901
112902,112919
112950,112958
112930,112989
112983,112977
112915,112934
112987,112969
113104,113031
113095,113063
113129,113042
113073,113031
113158,113056
113274,113120
113280,113119
113323,113138
113266,113114
113340,113176
113444,113211
113433,113212
113469,113194
113419,113163
113475,113235
113565,113273
113539,113235
113524,113225
113484,113211
113556,113267
113567,113272
113586,113251
113548,113254
113491,113210
113534,113271
113607,113280
113557,113282
113581,113272
113532,113231
113602,113293
113609,113287
113629,113315
113596,113278
113586,113293
113641,113332
113721,113336
113697,113353
113696,113333
113677,113301
113741,113362
113782,113376
113786,113396
113757,113349
113675,113335
113733,113342
113790,113377
113737,113335
113672,113308
113648,113297
113657,113320
113705,113323
113626,113283
113560,113268
113511,113203
113540,113253
113527,113271
113485,113199
113429,113194
113360,113165
113437,113217
113434,113245
113407,113185
113396,113196
113343,113181
113421,113216
113470,113226
113456,113239
113430,113210
113403,113204
113475,113223
113572,113291
113514,113237
113518,113236
113480,113251
113565,113271
113630,113302
113583,113285
113562,113278
113561,113264
113613,113320
113694,113318
113636,113298
113608,113303
113619,113254
113691,113350
113701,113354
113729,113367
113682,113316
113711,113318
113774,113397
113811,113388
113809,113381
113783,113350
113752,113384
113825,113382
113886,113437
113870,113411
113849,113384
113816,113399
113849,113442
113904,113404
113899,113423
113820,113393
113840,113408
113869,113424
113935,113468
113905,113425
113868,113370
113846,113413
113932,113407
113954,113462
113957,113411
113909,113427
113888,113392
113982,113431
113963,113458
113939,113439
113907,113428
113931,113411
113990,113472
113972,113435
113978,113436
113918,113432
113902,113406
113976,113460
114010,113479
113960,113441
113949,113399
113929,113442
113988,113449
114052,113465
114021,113446
113956,113439
114004,113437
114062,113469
114105,113485
114076,113486
113987,113399
114054,113462
114105,113482
114106,113503
114092,113474
114030,113440
114041,113475
114138,113474
114113,113504
114093,113474
114050,113463
114083,113489
114109,113486
114152,113521
114131,113476
113993,113432
114081,113489
114112,113496
114116,113531
114119,113501
114076,113482
114116,113463
114156,113524
114199,113545
114137,113479
114112,113456
114134,113498
114238,113512
114226,113524
114217,113512
114116,113470
114197,113492
114257,113558
114244,113524
114245,113530
114198,113491
114222,113528
114303,113540
114286,113563
114286,113541
114251,113510
114248,113530
114359,113552
114340,113579
114306,113537
114257,113508
114261,113549
114351,113547
114357,113579
114270,113524
114184,113479
114212,113480
114152,113468
114045,113435
113886,113351
113747,113252
113659,113242
113526,113191
113416,113139
113277,113049
113124,112947
113111,112978
113086,112963
112978,112909
112924,112880
112784,112845
112843,112836
112868,112878
112819,112831
112781,112834
112783,112828
112823,112856
112915,112880
112960,112930
112937,112933
112941,112900
113051,112957
113133,113019
113164,113044
113165,113007
113162,113043
113274,113073
113342,113108
113363,113117
113371,113120
113347,113083
113442,113145
113475,113192
113511,113167
113439,113171
113395,113100
113501,113178
113530,113195
113474,113188
113462,113169
113365,113110
113453,113173
113459,113197
113436,113148
113415,113130
113357,113130
113380,113163
113464,113156
113410,113194
113405,113156
113359,113106
113412,113169
113490,113157
113464,113204
113441,113143
113433,113153
113521,113208
113552,113209
113596,113241
113557,113224
113533,113154
113618,113225
113661,113252
113661,113255
113598,113239
113584,113170
113641,113258
113638,113236
113636,113241
113555,113222
113555,113167
113598,113252
113596,113218
113579,113199
113515,113172
113487,113176
113558,113188
113556,113231
113504,113183
113478,113168
113487,113143
113550,113210
113600,113218
113516,113216
113452,113156
113496,113159
113525,113178
113597,113215
113513,113206
113484,113128
113504,113171
113558,113199
113574,113222
113606,113199
113502,113193
113504,113171
113611,113226
113611,113254
113601,113213
113574,113215
113549,113182
113644,113263
113648,113242
113617,113233
113602,113211
113580,113213
113693,113278
113680,113285
113700,113267
113648,113235
113692,113262
113764,113304
113782,113273
113791,113313
113681,113265
113743,113251
113813,113302
113803,113330
113790,113298
113785,113260
113770,113309
113843,113326
113869,113319
113877,113338
113776,113309
113836,113323
113925,113364
113949,113321
113896,113348
113875,113321
113927,113335
113971,113427
113990,113357
113965,113385
113922,113344
113929,113353
114024,113394
114007,113417
113997,113388
113936,113343
113972,113405
113997,113416
114008,113378
113947,113367
113926,113318
113951,113381
113993,113402
114009,113385
113927,113370
113872,113298
113963,113359
113973,113388
113988,113381
113952,113370
113861,113342
113891,113334
113982,113367
113934,113380
113908,113361
113870,113292
113855,113366
113917,113339
113943,113372
113908,113337
113828,113311
113893,113338
113925,113370
113893,113341
113902,113351
113822,113310
113886,113313
113918,113374
113913,113338
113898,113354
113807,113293
113918,113318
113964,113375
113930,113338
113868,113320
113864,113322
113887,113337
113968,113367
113946,113347
113929,113345
113871,113299
113942,113343
114032,113367
113994,113380
113987,113351
113931,113347
114006,113352
114036,113386
114034,113391
114014,113366
113996,113347
114055,113391
114065,113413
114088,113450
114067,113364
114059,113382
114100,113399
114139,113440
114140,113417
114111,113426
114112,113378
114149,113415
114226,113465
114189,113457
114166,113428
114129,113395
114225,113475
114258,113462
114267,113491
114221,113430
114169,113450
114239,113445
114287,113502
114253,113466
114205,113450
114204,113427
114217,113459
114291,113481
114228,113443
114163,113420
114083,113386
114100,113381
114021,113373
113894,113303
113734,113210
113591,113147
113531,113113
113426,113101
113275,112983
113101,112896
112971,112868
112940,112836
112896,112819
112793,112764
112673,112711
112592,112679
112643,112683
112626,112691
112603,112701
112534,112651
112535,112660
112625,112692
112671,112757
112668,112753
112697,112701
112689,112749
112803,112807
112817,112848
112855,112836
112840,112804
112815,112850
112928,112886
112989,112931
112992,112924
112972,112880
113003,112946
113073,112945
113114,112996
113137,112992
113077,112982
113120,112954
113194,112994
113239,113021
113216,112997
113188,112988
113189,113008
113243,113044
113286,113048
113243,113003
113207,112985
113160,113012
113243,113033
113258,113015
113191,113035
113153,112981
113130,112970
113228,113015
113253,113016
113220,113040
113191,113006
113243,112992
113300,113064
113305,113048
113346,113073
113253,113046
113316,113065
113407,113113
113460,113120
113408,113089
113356,113071
113421,113095
113456,113135
113486,113116
113441,113151
113408,113077
113393,113072
113456,113111
113449,113153
113452,113106
113412,113074
113374,113076
113465,113104
113489,113124
113457,113120
113355,113069
113429,113093
113445,113116
113507,113143
113470,113125
113408,113095
113419,113087
113490,113133
113519,113133
113478,113093
113417,113077
113506,113118
113536,113131
113532,113166
113543,113111
113483,113112
113529,113129
113560,113184
113591,113170
113561,113173
113506,113132
113580,113166
113648,113190
113614,113196
113630,113182
113582,113126
113638,113210
113718,113227
113722,113237
113679,113215
113612,113142
113703,113215
113734,113234
113770,113254
113747,113213
113686,113194
113719,113199
113811,113256
113808,113241
113772,113254
113733,113214
113766,113229
113817,113264
113859,113285
113793,113237
113727,113230
113841,113261
113868,113277
113827,113267
113838,113232
113760,113232
113809,113266
113864,113290
113877,113296
113854,113274
113811,113240
113914,113283
113929,113317
113923,113300
113902,113320
113860,113254
113929,113283
113944,113309
113968,113324
113938,113322
113913,113268
113989,113335
114029,113363
113981,113323
113990,113330
113944,113302
114023,113318
114054,113354
114031,113352
114028,113307
114010,113317
114063,113335
114109,113353
114102,113358
114072,113361
114021,113314
114109,113336
114134,113369
114102,113368
114085,113322
114048,113322
114065,113347
114172,113383
114130,113384
114088,113337
114036,113337
114163,113350
114151,113406
114144,113344
114070,113339
114094,113335
114164,113402
114159,113407
114177,113414
114128,113341
114129,113336
114182,113420
114207,113418
114225,113404
114174,113407
114159,113352
114229,113415
114253,113434
114273,113432
114180,113412
114175,113370
114273,113430
114285,113419
114295,113430
114242,113407
114222,113364
114293,113432
114302,113432
114304,113415
114229,113409
114263,113415
114313,113419
114358,113454
114333,113469
114246,113367
114285,113413
114330,113431
114400,113477
114310,113479
114281,113425
114309,113455
114346,113474
114419,113469
114360,113499
114287,113416
114311,113468
114365,113468
114417,113503
114324,113494
114295,113415
114344,113455
114381,113498
114377,113491
114374,113448
114322,113454
114310,113449
114393,113502
114416,113473
114361,113479
114306,113446
114305,113466
114400,113498
114399,113524
114365,113468
114278,113446
114285,113438
114295,113446
114256,113441
114121,113401
113982,113290
113844,113243
113737,113214
113541,113125
113387,113024
113140,112923
113012,112846
112933,112813
112784,112753
112619,112700
112462,112581
112368,112561
112359,112548
112314,112542
112239,112501
112172,112424
112200,112480
112217,112491
112253,112504
112223,112509
112146,112471
112230,112477
112272,112558
112263,112532
112301,112570
112289,112552
112317,112555
112429,112623
112451,112654
112440,112605
112424,112621
112505,112682
112585,112716
112639,112727
112630,112764
112614,112677
112689,112768
112787,112783
112811,112823
112772,112814
112766,112781
112786,112807
112900,112879
112917,112858
112847,112876
112804,112809
112842,112842
112909,112883
112918,112861
112864,112829
112803,112820
112845,112834
112911,112847
112911,112861
112836,112832
112773,112795
112847,112871
112884,112844
112880,112853
112819,112849
112800,112816
112837,112865
112925,112913
112889,112894
112884,112888
112809,112854
112884,112878
112934,112891
112913,112914
112888,112872
112850,112868
112862,112881
112924,112915
112898,112899
112880,112842
112827,112839
112868,112842
112935,112886
112858,112892
112853,112873
112781,112803
112856,112839
112872,112891
112847,112834
112805,112848
112759,112800
112828,112861
112885,112900
112875,112864
112870,112879
112837,112814
112928,112903
112970,112897
113002,112899
112949,112898
112931,112871
113057,112945
113099,112950
113131,112967
113082,112948
113113,112966
113179,113039
113256,113034
113194,113034
113205,113029
113203,113003
113324,113076
113357,113108
113337,113071
113356,113084
113347,113074
113381,113123
113445,113141
113428,113113
113401,113091
113386,113100
113468,113148
113498,113167
113464,113140
113439,113114
113437,113114
113481,113154
113533,113195
113528,113150
113509,113152
113465,113132
113524,113164
113594,113193
113582,113179
113542,113162
113513,113135
113584,113175
113603,113217
113584,113210
113538,113139
113568,113171
113593,113201
113612,113235
113607,113208
113545,113174
113534,113162
113594,113229
113611,113205
113596,113205
113515,113179
113523,113180
113573,113220
113592,113197
113607,113212
113482,113135
113501,113172
113567,113187
113540,113184
113528,113165
113445,113164
113441,113136
113514,113174
113533,113197
113507,113170
113406,113128
113452,113131
113476,113193
113535,113202
113495,113184
113449,113133
113469,113159
113483,113161
113526,113211
113536,113173
113413,113139
113474,113138
113577,113224
113527,113177
113529,113176
113431,113115
113487,113179
113511,113217
113546,113166
113553,113213
113454,113142
113543,113173
113589,113219
113629,113197
113574,113218
113555,113161
113587,113212
113656,113256
113689,113259
113690,113232
113594,113191
113658,113225
113723,113280
113692,113263
113717,113266
113620,113218
113686,113259
113758,113285
113748,113313
113698,113297
113664,113265
113702,113272
113784,113310
113769,113288
113767,113306
113705,113254
113807,113298
113882,113339
113886,113326
113887,113329
113815,113300
113907,113315
113960,113378
113928,113370
113968,113362
113880,113333
113954,113360
113994,113399
113977,113405
113972,113361
113918,113344
113974,113371
114030,113383
114006,113373
113978,113379
113842,113297
113864,113330
113812,113312
113707,113267
113571,113194
113381,113097
113255,113021
113154,113003
112998,112875
112808,112803
112624,112673
112531,112669
112423,112590
112347,112570
112229,112522
112092,112449
112063,112473
112044,112419
112028,112427
111921,112376
111869,112362
111902,112391
111920,112378
111895,112388
111877,112380
111799,112347
111927,112405
111954,112459
111960,112449
111952,112428
111940,112410
112023,112495
112054,112484
112080,112483
112070,112481
112069,112505
112140,112535
112252,112594
112236,112589
112230,112561
112233,112572
112319,112642
112366,112644
112416,112652
112366,112649
112358,112603
112471,112684
112505,112696
112524,112715
112483,112662
112470,112690
112513,112698
112547,112755
112528,112729
112538,112710
112484,112697
112562,112719
112634,112774
112610,112762
112612,112750
112564,112733
112655,112786
112700,112810
112724,112836
112697,112784
112724,112787
112788,112846
112850,112839
112865,112857
112795,112875
112795,112841
112821,112870
112901,112894
112862,112891
112783,112832
112774,112825
112819,112859
112882,112879
112809,112862
112726,112776
112740,112803
112733,112817
112773,112838
112729,112807
112681,112768
112640,112752
112715,112768
112735,112817
112705,112793
112685,112759
112644,112764
112761,112815
112746,112804
112776,112825
112737,112821
112731,112758
112856,112850
112857,112879
112864,112833
112803,112845
112836,112865
112917,112889
112994,112947
112952,112951
112928,112871
112975,112935
113029,112966
113061,112988
113048,112945
113053,112958
113051,112960
113137,112999
113198,113030
113186,113015
113173,112989
113181,112987
113283,113043
113320,113074
113313,113062
113295,113028
113331,113056
113438,113133
113437,113118
113447,113123
113395,113082
113461,113100
113535,113181
113544,113160
113584,113166
113496,113121
113515,113138
113614,113200
113617,113200
113614,113185
113531,113139
113613,113165
113676,113213
113674,113235
113662,113199
113595,113162
113668,113181
113711,113240
113736,113233
113709,113247
113609,113183
113663,113210
113763,113240
113729,113230
113730,113232
113619,113191
113637,113211
113726,113217
113709,113256
113688,113227
113605,113192
113694,113234
113714,113218
113758,113240
113705,113267
113634,113193
113681,113230
113804,113273
113790,113280
113754,113239
113706,113209
113723,113242
113832,113255
113799,113275
113786,113245
113697,113193
113773,113212
113821,113261
113795,113276
113784,113226
113728,113198
113805,113259
113816,113288
113857,113275
113822,113269
113759,113212
113821,113261
113900,113309
113855,113299
113875,113295
113801,113240
113877,113266
113998,113332
113957,113313
113930,113317
113889,113256
113984,113296
114053,113331
114054,113330
114030,113347
113949,113292
114041,113319
114125,113368
114104,113367
114064,113355
114021,113308
114115,113374
114172,113403
114156,113376
114108,113365
114084,113367
114144,113383
114225,113412
114205,113422
114194,113369
114116,113379
114194,113382
114267,113439
114275,113394
114254,113423
114202,113378
114258,113401
114309,113439
114296,113453
114262,113445
114217,113379
114299,113429
114345,113488
114291,113449
114286,113395
114224,113400
114250,113419
114291,113439
114171,113410
114031,113270
113906,113272
113801,113218
113746,113209
113568,113089
113377,113001
113177,112905
113138,112870
113031,112878
112917,112773
112755,112690
112616,112650
112591,112645
112614,112642
112493,112608
112403,112552
112362,112493
112422,112555
112425,112587
112418,112566
112391,112536
112369,112539
112498,112598
112566,112658
112573,112666
112502,112627
112590,112646
112681,112710
112728,112724
112745,112774
112721,112705
112766,112761
112851,112803
112918,112842
112911,112858
112878,112799
112921,112818
112974,112873
113025,112850
113051,112878
112953,112860
112949,112826
113064,112896
113092,112949
113072,112886
113038,112861
113009,112870
113112,112919
113092,112944
113066,112887
113017,112884
113001,112858
113087,112883
113130,112914
113074,112909
113003,112857
113026,112876
113111,112929
113147,112964
113153,112919
113108,112905
113122,112933
113223,112961
113296,112982
113283,112972
113228,112935
113256,112987
113326,113004
113351,113010
113295,113005
113250,112961
113260,112953
113344,113009
113313,113037
113329,112983
113252,112934
113263,112969
113341,112991
113350,113000
113290,112959
113262,112939
113289,112951
113345,112978
113371,113000
113308,112974
113260,112928
113312,112951
113368,113029
113373,113007
113359,112988
113256,112987
113308,112952
113414,113041
113414,113017
113396,113025
113336,112980
113384,112973
113491,113081
113501,113102
113502,113046
113449,113027
113481,113060
113570,113086
113604,113123
113555,113067
113502,113038
113596,113101
113637,113151
113650,113120
113637,113145
113568,113077
113666,113130
113701,113179
113734,113149
113721,113142
113636,113126
113702,113150
113791,113227
113777,113173
113773,113183
113701,113145
113763,113174
113843,113230
113832,113201
113814,113164
113759,113142
113837,113197
113862,113266
113880,113213
113841,113225
113804,113183
113838,113219
113925,113219
113897,113264
113873,113207
113814,113177
113892,113243
113960,113272
113927,113255
113879,113214
113819,113203
113898,113241
113984,113254
113945,113295
113887,113232
113839,113198
113930,113263
113985,113283
113963,113251
113958,113252
113867,113191
113987,113260
113987,113288
113978,113277
113976,113240
113953,113225
114009,113290
114036,113298
114030,113303
114005,113270
113964,113256
114059,113298
114083,113332
114092,113295
114042,113290
113983,113290
114096,113336
114123,113352
114108,113319
114092,113323
114014,113270
114098,113345
114152,113341
114115,113342
114105,113322
114047,113289
114076,113335
114147,113367
114128,113322
114041,113310
114018,113290
114104,113317
114180,113367
114112,113319
114054,113289
114038,113280
114125,113326
114152,113334
114144,113325
114110,113299
114061,113287
114144,113314
114221,113385
114155,113337
114090,113300
114084,113305
114165,113360
114203,113382
114138,113323
114113,113302
114094,113315
114153,113336
114199,113368
114147,113342
114134,113339
114089,113282
114145,113357
114220,113387
114172,113369
114163,113314
114130,113307
114220,113367
114264,113399
114226,113341
114189,113340
114205,113347
114312,113382
114285,113414
114274,113402
114269,113353
114271,113365
114329,113438
114370,113399
114371,113423
114288,113372
114299,113355
114413,113409
114384,113458
114382,113436
114322,113388
114318,113380
114406,113432
114412,113458
114406,113447
114273,113374
114305,113370
114324,113414
114289,113395
114214,113368
114027,113266
113966,113238
113865,113209
113759,113135
113609,113060
113360,112978
113232,112864
113170,112837
113050,112795
112884,112723
112699,112608
112660,112601
112615,112591
112515,112552
112452,112489
112304,112407
112285,112432
112294,112467
112278,112456
112252,112423
112106,112377
112175,112419
112235,112459
112243,112459
112236,112434
112189,112401
112220,112449
112350,112492
112372,112527
112383,112517
112342,112523
112419,112521
112538,112601
112553,112620
112574,112642
112533,112591
112620,112670
112710,112713
112741,112700
112764,112712
112686,112681
112754,112739
112834,112757
112905,112785
112875,112797
112832,112754
112900,112778
112950,112831
112959,112806
112930,112837
112850,112750
112932,112776
112979,112841
112954,112810
112952,112808
112886,112777
112937,112780
113016,112865
113035,112860
112991,112817
112948,112786
112987,112848
113077,112855
113099,112894
113055,112857
113008,112819
113096,112899
113138,112893
113157,112917
113122,112883
113072,112849
113133,112897
113193,112935
113158,112931
113133,112846
113060,112826
113135,112895
113159,112935
113179,112918
113092,112864
113044,112814
113150,112860
113207,112934
113154,112905
113132,112855
113082,112825
113123,112885
113205,112922
113175,112927
113155,112877
113131,112860
113167,112879
113242,112910
113255,112953
113223,112910
113154,112872
113255,112948
113364,112949
113333,112976
113316,112948
113277,112913
113360,113000
113436,113011
113463,113029
113429,112992
113394,112999
113506,113044
113617,113104
113559,113039
113569,113051
113507,113049
113591,113080
113665,113133
113662,113097
113645,113077
113643,113097
113677,113105
113746,113150
113739,113114
113704,113139
113681,113094
113783,113137
113834,113186
113823,113155
113784,113135
113729,113116
113846,113175
113888,113213
113853,113159
113796,113183
113801,113153
113856,113194
113897,113174
113905,113228
113831,113151
113844,113157
113891,113212
113944,113205
113946,113235
113853,113184
113865,113160
113932,113177
114004,113244
113970,113224
113910,113197
113892,113200
113930,113220
114005,113238
113986,113217
113913,113202
113870,113148
113995,113245
113983,113250
113989,113202
113914,113179
113905,113171
113977,113220
113991,113266
113973,113228
113915,113178
113910,113198
113976,113206
114022,113232
113973,113220
113913,113165
113932,113206
113949,113201
114001,113221
113951,113241
113887,113153
113918,113201
113976,113242
114019,113238
113937,113213
113882,113196
113918,113172
113976,113254
114047,113241
113982,113250
113902,113187
113953,113170
114044,113250
114040,113241
114036,113257
113950,113201
113983,113210
114081,113256
114081,113282
114054,113231
113963,113187
114014,113193
114089,113252
114116,113289
114070,113217
114009,113204
114076,113235
114126,113275
114148,113281
114104,113267
114048,113221
114098,113240
114186,113293
114175,113288
114160,113310
114093,113226
114170,113274
114204,113283
114220,113308
114210,113287
114137,113235
114191,113295
114284,113310
114290,113328
114285,113338
114184,113293
114271,113333
114321,113345
114368,113361
114333,113360
114235,113301
114319,113332
114384,113380
114363,113352
114400,113342
114274,113315
114325,113315
114376,113357
114416,113380
114373,113341
114313,113305
114328,113324
114401,113368
114349,113341
114282,113320
114159,113214
114145,113244
114081,113215
113981,113180
113868,113097
113646,113013
113566,112968
113572,112985
113410,112917
113253,112817
113072,112751
113043,112750
113041,112733
112970,112714
112876,112638
112745,112578
112773,112581
112824,112642
112758,112649
112695,112543
112646,112557
112739,112597
112782,112627
112851,112651
112815,112644
112786,112620
112911,112683
113002,112743
113031,112754
113022,112752
113019,112751
113093,112796
113193,112838
113246,112847
113243,112837
113222,112829
113289,112856
113415,112917
113374,112917
113354,112929
113322,112906
113425,112943
113486,112983
113469,112944
113440,112958
113379,112900
113466,112969
113512,112980
113533,112967
113433,112949
113389,112922
113466,112947
113519,112997
113476,112967
113431,112944
113358,112927
113441,112971
113521,113020
113527,112984
113471,112958
113428,112936
113522,113015
113541,113037
113554,113012
113537,113000
113491,112991
113555,113032
113636,113033
113604,113035
113555,113000
113530,112990
113611,113010
113629,113060
113554,113040
113493,113007
113432,112962
113526,113003
113514,113032
113466,112966
113406,112980
113351,112942
113390,112967
113436,112987
113375,112939
113314,112953
113303,112921
113350,112956
113366,112969
113390,112959
113342,112924
113306,112924
113398,112931
113440,113010
113438,112975
113416,112963
113433,112936
113487,113002
113568,113023
113553,113046
113536,112996
113528,113013
113623,113029
113677,113099
113659,113060
113592,113039
113624,113051
113748,113095
113772,113133
113718,113077
113705,113073
113718,113104
113778,113122
113840,113150
113794,113110
113775,113080
113753,113148
113840,113129
113889,113173
113871,113109
113803,113104
113789,113134
113919,113135
113922,113162
113908,113150
113817,113126
113819,113133
113916,113182
113910,113174
113909,113204
113865,113137
113887,113137
113958,113185
113995,113193
113991,113189
113895,113149
113943,113194
114015,113227
114010,113224
114004,113227
113945,113157
113967,113174
114009,113213
114042,113243
114025,113199
113920,113161
113971,113174
114051,113206
114016,113223
114007,113211
113942,113148
113978,113174
114008,113217
114041,113222
113987,113178
113934,113137
113959,113187
114031,113216
114022,113242
113992,113186
113907,113151
113983,113191
114042,113229
114051,113257
113989,113200
113918,113163
113993,113179
114044,113265
114012,113242
114047,113250
113939,113164
113994,113180
114110,113249
114111,113237
114071,113202
114043,113191
114066,113235
114156,113296
114131,113272
114123,113246
114036,113229
114097,113216
114170,113291
114142,113256
114136,113259
114084,113203
114175,113268
114210,113300
114226,113283
114215,113270
114158,113210
114226,113325
114326,113329
114271,113306
114270,113324
114231,113260
114300,113326
114380,113348
114354,113350
114350,113307
114287,113318
114373,113354
114404,113344
114397,113370
114356,113341
114283,113310
114337,113302
114373,113342
114288,113320
114204,113294
114062,113189
114098,113187
114034,113190
113912,113146
113795,113028
113624,112985
113631,112971
113576,112960
113490,112922
113313,112836
113174,112742
113170,112776
113144,112742
113053,112713
112952,112669
112880,112608
112872,112656
112936,112674
112891,112645
112843,112636
112783,112581
112886,112672
112944,112703
112938,112685
112945,112703
112930,112664
113089,112770
113176,112797
113167,112828
113184,112799
113190,112800
113293,112843
113391,112925
113377,112913
113350,112878
113368,112859
113466,112966
113534,112965
113556,112969
113514,112984
113496,112971
113565,112986
113661,113008
113615,113024
113551,112961
113504,112966
113608,112977
113690,113033
113608,113038
113604,112969
113583,112987
113662,113033
113716,113045
113646,113037
113659,113014
113595,113009
113710,113027
113744,113088
113754,113064
113726,113048
113681,113041
113806,113042
113828,113122
113816,113092
113778,113080
113737,113043
113824,113077
113846,113124
113808,113080
113771,113023
113750,113038
113779,113056
113794,113077
113796,113041
113683,113024
113662,113010
113757,113038
113747,113040
113744,113019
113661,112969
113650,113003
113707,113022
113769,113033
113748,113047
113637,112966
113704,112989
113765,113056
113795,113070
113736,113018
113713,112993
113755,113030
113802,113050
113867,113075
113823,113063
113764,113039
113800,113017
113878,113104
113870,113097
113877,113067
113831,113075
113852,113061
113938,113101
113927,113131
113963,113114
113911,113064
113924,113076
114013,113156
114034,113142
114031,113135
113957,113140
114017,113103
114121,113174
114115,113220
114062,113144
114066,113134
114084,113188
114150,113179
114171,113201
114217,113219
114113,113152
114149,113154
114228,113243
114224,113246
114252,113214
114154,113144
114226,113203
114235,113271
114276,113244
114290,113236
114162,113170
114238,113205
114300,113270
114281,113263
114294,113262
114184,113204
114257,113211
114368,113291
114354,113282
114335,113239
114265,113236
114283,113226
114354,113310
114378,113293
114308,113259
114265,113200
114343,113261
114386,113284
114398,113291
114381,113288
114274,113228
114259,113253
114387,113308
114361,113309
114304,113256
114268,113210
114285,113276
114338,113279
114378,113294
114338,113284
114262,113196
114303,113281
114373,113328
114336,113294
114339,113252
114268,113242
114320,113271
114339,113305
114340,113289
114350,113270
114241,113243
114315,113269
114392,113322
114374,113315
114299,113266
114266,113226
114292,113280
114364,113320
114343,113307
114296,113284
114255,113240
114290,113264
114420,113293
114380,113293
114334,113296
114264,113228
114309,113275
114384,113334
114370,113303
114352,113257
114284,113247
114393,113309
114435,113310
114460,113341
114394,113302
114345,113256
114438,113293
114466,113332
114485,113297
114444,113355
114405,113271
114498,113319
114559,113373
114536,113355
114476,113349
114447,113310
114570,113339
114578,113360
114592,113387
114534,113387
114469,113311
114566,113365
114593,113434
114603,113380
114522,113360
114514,113351
114570,113348
114599,113427
114518,113352
114428,113317
114334,113266
114356,113264
114299,113268
114148,113171
114000,113103
113840,113025
113829,113033
113788,113019
113606,112904
113495,112865
113339,112782
113316,112777
113255,112757
113181,112721
113044,112664
112999,112607
113038,112662
113072,112680
112965,112645
112912,112599
112893,112580
113010,112675
113027,112653
113016,112660
112979,112671
112995,112661
113112,112693
113172,112784
113172,112765
113156,112716
113171,112750
113311,112849
113345,112828
113339,112850
113360,112829
113362,112816
113484,112922
113492,112933
113545,112909
113470,112916
113488,112892
113575,113000
113638,112970
113632,112967
113520,112892
113576,112947
113614,113016
113654,112971
113641,112985
113564,112931
113527,112962
113634,112958
113656,113022
113610,112970
113537,112962
113580,112924
113649,113007
113650,112988
113694,113001
113572,112956
113598,112975
113712,113010
113700,113025
113699,113040
113626,112968
113669,112978
113729,113041
113734,113026
113698,112995
113657,112979
113640,112974
113743,113015
113700,113020
113649,113000
113601,112939
113584,112983
113656,112982
113641,112965
113613,112980
113518,112916
113533,112947
113565,112935
113580,112988
113558,112979
113439,112911
113507,112936
113559,112942
113592,112969
113527,112953
113449,112916
113502,112922
113555,112958
113596,112960
113601,112983
113502,112910
113600,112959
113666,112993
113703,112991
113675,113014
113594,112927
113678,113018
113772,113057
113783,113053
113754,113055
113742,113004
113778,113055
113860,113085
113864,113127
113858,113072
113787,113036
113847,113079
113902,113092
113913,113130
113911,113107
113821,113049
113907,113102
113964,113147
113938,113126
113956,113113
113908,113086
113957,113127
114032,113179
113990,113149
113974,113111
113919,113110
113982,113149
114092,113175
114038,113178
113999,113138
113969,113107
114019,113154
114085,113181
114098,113192
114060,113145
114008,113127
114077,113157
114112,113205
114139,113192
114091,113177
114035,113130
114095,113164
114173,113217
114152,113192
114084,113172
114068,113177
114125,113186
114153,113193
114135,113190
114118,113179
114038,113157
114101,113161
114151,113236
114128,113191
114111,113175
114037,113143
114097,113180
114168,113212
114154,113198
114110,113172
114017,113126
114129,113202
114159,113233
114158,113198
114131,113181
114040,113134
114171,113191
114180,113212
114187,113210
114090,113202
114098,113161
114141,113209
114232,113254
114196,113239
114154,113154
114076,113188
114179,113171
114245,113223
114218,113225
114166,113182
114131,113206
114205,113199
114270,113247
114247,113258
114221,113234
114201,113171
114255,113238
114319,113296
114271,113246
114285,113200
114227,113220
114328,113258
114380,113275
114379,113295
114283,113265
114285,113252
114359,113285
114437,113306
114429,113294
114348,113282
114377,113247
114397,113301
114494,113335
114478,113312
114393,113251
114387,113281
114460,113310
114486,113347
114452,113288
114416,113274
114393,113292
114476,113307
114550,113345
114507,113334
114450,113311
114442,113287
114496,113337
114551,113390
114510,113350
114490,113279
114438,113302
114534,113343
114574,113364
114542,113334
114518,113339
114493,113294
114575,113360
114618,113381
114553,113332
114521,113322
114499,113293
114593,113358
114631,113395
114588,113371
114482,113301
114483,113346
114523,113328
114551,113384
114421,113314
114285,113211
114224,113221
114178,113191
114089,113147
113947,113083
113751,112940
113633,112942
113615,112925
113535,112863
113412,112782
113216,112756
113159,112661
113156,112687
113135,112686
113027,112662
112944,112557
112945,112592
112985,112611
113002,112610
112984,112628
112874,112588
112949,112614
113029,112645
113069,112691
113057,112697
112994,112637
113058,112695
113182,112752
113187,112761
113195,112746
113203,112722
113260,112794
113369,112856
113372,112844
113382,112877
113323,112802
113424,112859
113475,112899
113517,112932
113488,112930
113433,112837
113510,112927
113585,112960
113553,112960
113582,112949
113444,112869
113514,112939
113618,112969
113570,112979
113580,112949
113461,112903
113529,112915
113626,112967
113602,112985
113604,112946
113502,112911
113559,112914
113642,112991
113640,112972
113661,112980
113589,112935
113653,112950
113705,113035
113737,113013
113735,113012
113640,112943
113701,112995
113777,113036
113719,113025
113719,112962
113626,112973
113689,112988
113725,113041
113657,112995
113612,112969
113540,112900
113583,112961
113613,112944
113607,112941
113533,112923
113467,112890
113497,112938
113519,112916
113509,112947
113481,112897
113393,112861
113459,112882
113519,112948
113473,112898
113477,112885
113404,112852
113473,112884
113502,112922
113522,112913
113501,112901
113440,112849
113504,112876
113596,112970
113576,112951
113560,112948
113526,112883
113593,112961
113651,112996
113679,112980
113611,112955
113637,112927
113698,113008
113757,113012
113771,113023
113751,113023
113712,113002
113787,113041
113861,113068
113858,113087
113862,113043
113811,113021
113880,113080
113994,113122
113961,113109
113937,113069
113887,113047
113979,113131
114074,113136
114029,113117
113991,113130
113997,113070
114085,113146
114087,113171
114115,113145
114069,113143
114039,113086
114115,113161
114163,113200
114114,113184
114077,113107
114101,113140
114124,113173
114206,113192
114156,113198
114103,113140
114087,113146
114163,113140
114242,113234
114174,113179
114118,113164
114138,113164
114204,113189
114245,113226
114222,113175
114176,113176
114122,113126
114241,113183
114269,113246
114209,113197
114170,113134
114154,113167
114234,113185
114274,113229
114210,113193
114186,113127
114181,113187
114226,113179
114286,113215
114248,113220
114150,113136
114213,113174
114222,113213
114301,113208
114274,113209
114163,113142
114182,113166
114270,113238
114306,113215
114281,113211
114234,113178
114204,113168
114293,113234
114357,113244
114309,113236
114244,113185
114258,113218
114356,113247
114365,113268
114350,113225
114307,113181
114312,113256
114402,113268
114404,113274
114407,113224
114333,113222
114347,113191
114435,113279
114454,113286
114428,113244
114371,113227
114410,113232
114471,113304
114464,113302
114453,113266
114438,113239
114444,113271
114505,113312
114546,113303
114498,113317
114427,113277
114439,113304
114521,113313
114552,113337
114506,113309
114465,113247
114530,113316
114565,113325
114588,113316
114571,113324
114477,113301
114499,113291
114556,113326
114587,113344
114563,113287
114487,113279
114465,113244
114513,113315
114455,113288
114344,113214
114170,113147
114146,113123
114090,113122
113923,113058
113806,112979
113649,112859
113634,112907
113562,112904
113476,112798
113349,112766
113225,112679
113206,112672
113244,112687
113158,112695
113106,112624
113038,112590
113063,112640
113117,112662
113140,112697
113108,112677
113055,112618
113116,112674
113233,112735
113271,112767
113224,112732
113230,112739
113292,112734
113384,112810
113441,112821
113397,112826
113398,112794
113453,112869
113519,112880
113556,112915
113543,112893
113513,112827
113580,112926
113639,112961
113682,112950
113646,112930
113612,112897
113675,112920
113741,113002
113718,112941
113681,112942
113624,112884
113677,112952
113753,112966
113750,112977
113683,112952
113648,112908
113752,112961
113794,113007
113760,113010
113730,112951
113703,112949
113763,112986
113857,113033
113806,113018
113815,113023
113756,112936
113866,113059
113893,113029
113891,113042
113832,113012
113804,112951
113892,113016
113906,113079
113907,113035
113871,113026
113786,112984
113833,113035
113880,113036
113891,113006
113819,112994
113765,112949
113807,112970
113859,113027
113788,112992
113756,112958
113713,112953
113769,113004
113813,113024
113794,112988
113794,112976
113710,112962
113795,112983
113861,113017
113824,112993
113784,112955
113763,112991
113832,112989
113911,113027
113880,113005
113856,112986
113824,112947
113926,113032
113976,113078
113955,113038
113937,113009
113905,113019
114000,113048
114046,113111
114026,113093
113999,113066
113975,113046
114063,113101
114106,113143
114085,113113
114032,113092
114038,113103
114137,113099
114156,113145
114128,113139
114095,113092
114055,113091
114136,113115
114195,113162
114163,113139
114106,113086
114114,113131
114170,113128
114222,113186
114190,113168
114150,113111
114145,113135
114222,113160
114288,113199
114240,113174
114202,113129
114179,113138
114284,113197
114323,113203
114263,113187
114265,113142
114236,113141
114321,113218
114368,113234
114322,113193
114260,113152
114277,113178
114340,113219
114375,113249
114337,113213
114265,113168
114293,113167
114355,113221
114370,113226
114376,113215
114285,113181
114309,113180
114347,113216
114398,113230
114330,113205
114278,113158
114295,113195
114363,113206
114361,113223
114368,113228
114283,113177
114310,113178
114379,113229
114377,113243
114346,113218
114311,113193
114303,113171
114385,113227
114418,113247
114384,113228
114299,113149
114362,113192
114391,113248
114424,113244
114363,113240
114304,113158
114362,113215
114394,113239
114420,113266
114417,113226
114335,113182
114359,113204
114461,113261
114477,113300
114420,113268
114363,113194
114420,113198
114494,113300
114464,113279
114452,113265
114366,113198
114431,113242
114473,113281
114492,113262
114452,113245
114395,113191
114450,113224
114504,113279
114528,113303
114450,113238
114410,113210
114448,113258
114508,113278
114510,113303
114475,113258
114405,113230
114451,113225
114516,113286
114504,113263
114446,113262
114392,113209
114394,113201
114409,113250
114342,113191
114227,113105
114093,113082
114025,113029
113999,113042
113818,112979
113666,112898
113497,112793
113413,112779
113357,112738
113185,112648
113098,112595
112914,112522
112878,112486
112892,112507
112799,112459
112709,112421
112584,112385
112633,112407
112638,112430
112645,112395
112605,112390
112568,112366
112637,112394
112724,112471
112706,112438
112697,112475
112660,112408
112817,112504
112884,112569
112893,112525
112885,112533
112856,112546
112956,112568
113032,112629
113078,112629
113053,112627
113043,112604
113109,112687
113176,112712
113211,112708
113167,112705
113093,112660
113209,112731
113233,112760
113223,112744
113199,112694
113177,112691
113199,112741
113277,112785
113252,112751
113178,112715
113153,112682
113230,112710
113224,112756
113255,112732
113166,112695
113141,112696
113219,112733
113289,112749
113283,112755
113202,112732
113203,112726
113292,112760
113321,112813
113321,112816
113300,112760
113250,112722
113337,112792
113369,112811
113362,112780
113262,112744
113263,112738
113317,112760
113377,112812
113345,112781
113258,112719
113236,112738
113327,112779
113341,112791
113295,112769
113241,112738
113221,112735
113271,112764
113308,112782
113316,112763
113218,112710
113204,112725
113304,112775
113325,112786
113313,112759
113248,112716
113265,112725
113304,112793
113389,112804
113379,112781
113336,112765
113323,112761
113404,112812
113468,112861
113461,112823
113398,112792
113436,112810
113523,112854
113559,112879
113556,112866
113478,112843
113538,112850
113643,112901
113623,112918
113628,112900
113588,112856
113558,112870
113687,112927
113711,112921
113652,112912
113611,112900
113655,112900
113688,112924
113771,112965
113727,112944
113692,112898
113677,112901
113785,112970
113808,112991
113771,112977
113716,112917
113741,112938
113836,112985
113842,112994
113806,112967
113787,112955
113816,112960
113855,112998
113888,113019
113873,112994
113797,112969
113847,112983
113932,113022
113932,113016
113918,113019
113842,112978
113890,112994
113956,113034
113984,113039
113986,113035
113892,112974
113932,113007
114026,113077
114025,113065
114009,113059
113938,112984
113987,113034
114027,113072
114089,113082
114069,113046
113978,113009
114018,113031
114049,113093
114094,113080
114062,113079
113987,113021
114019,113033
114095,113093
114116,113092
114057,113045
114042,113002
114049,113047
114135,113091
114165,113103
114091,113080
114057,113027
114105,113066
114151,113118
114180,113104
114119,113101
114084,113041
114109,113112
114215,113125
114153,113114
114170,113073
114113,113078
114148,113064
114201,113123
114218,113133
114207,113081
114154,113065
114198,113113
114269,113152
114259,113181
114252,113106
114159,113101
114233,113111
114328,113186
114277,113173
114312,113136
114232,113089
114321,113152
114347,113178
114378,113188
114329,113139
114291,113137
114319,113182
114412,113175
114421,113181
114357,113201
114306,113145
114424,113169
114484,113226
114458,113190
114415,113208
114387,113166
114464,113179
114551,113260
114469,113243
114486,113199
114421,113210
114495,113253
114559,113242
114536,113261
114490,113207
114453,113181
114512,113239
114592,113270
114574,113282
114537,113236
114481,113218
114566,113226
114600,113263
114600,113255
114517,113204
114500,113193
114526,113251
114593,113265
114596,113267
114538,113200
114502,113196
114565,113247
114573,113268
114546,113262
114484,113202
114398,113165
114429,113197
114380,113183
114258,113115
114098,113034
113960,112951
113908,112931
113831,112911
113677,112826
113480,112770
113396,112712
113354,112679
113287,112662
113201,112611
113088,112550
112984,112512
113001,112540
113025,112514
112966,112520
112937,112497
112910,112483
112966,112504
113062,112583
113028,112565
113032,112561
113034,112557
113139,112621
113253,112675
113224,112661
113217,112670
113251,112686
113333,112712
113435,112737
113488,112783
113444,112745
113434,112761
113538,112793
113605,112846
113607,112835
113577,112802
113567,112821
113638,112842
113738,112906
113688,112844
113639,112854
113640,112842
113706,112879
113766,112910
113710,112873
113612,112833
113643,112860
113704,112877
113718,112892
113682,112856
113573,112811
113621,112828
113675,112863
113679,112876
113657,112856
113620,112813
113601,112837
113689,112884
113736,112909
113700,112874
113644,112856
113666,112858
113747,112909
113813,112938
113769,112879
113732,112860
113761,112875
113833,112942
113861,112931
113851,112940
113782,112909
113778,112903
113859,112942
113885,112955
113834,112930
113764,112867
113774,112898
113835,112931
113848,112936
113804,112920
113709,112872
113718,112870
113786,112906
113773,112907
113711,112870
113666,112847
113681,112841
113712,112891
113733,112917
113711,112870
113642,112831
113668,112859
113700,112876
113772,112908
113753,112896
113646,112849
113694,112883
113800,112922
113780,112914
113792,112909
113684,112863
113780,112920
113846,112943
113857,112950
113835,112958
113789,112881
113828,112930
113939,112977
113926,112966
113915,112948
113836,112918
113929,112963
114015,113017
114018,113008
113953,112995
113940,112955
113992,113002
114047,113012
114067,113033
114048,113030
113980,112965
114034,113011
114137,113045
114087,113050
114115,113049
114014,112995
114101,113023
114144,113067
114143,113068
114116,113022
114035,112999
114118,113049
114173,113077
114135,113075
114124,113054
114062,112999
114127,113040
114172,113069
114180,113076
114156,113063
114076,113023
114146,113049
114228,113103
114192,113085
114126,113057
114083,113016
114127,113046
114225,113089
114144,113071
114126,113048
114055,113020
114124,113057
114219,113090
114140,113089
114119,113061
114061,113016
114119,113067
114189,113143
114197,113083
114101,113067
114056,113025
114137,113059
114158,113096
114187,113062
114165,113048
114099,113018
114116,113055
114210,113090
114165,113103
114154,113055
114105,113047
114131,113085
114215,113102
114218,113096
114148,113053
114108,113029
114156,113090
114197,113102
114154,113076
114140,113101
114112,113070
114163,113064
114217,113132
114184,113090
114136,113092
114109,113056
114174,113080
114242,113130
114198,113090
114154,113087
114112,113055
114166,113092
114257,113135
114235,113103
114155,113078
114148,113066
114192,113101
114270,113142
114246,113112
114205,113085
114168,113038
114239,113120
114306,113150
114260,113115
114211,113100
114190,113079
114283,113133
114301,113168
114303,113124
114262,113102
114233,113083
114286,113142
114372,113166
114320,113138
114252,113116
114273,113117
114313,113152
114374,113192
114352,113172
114294,113112
114306,113125
114373,113161
114419,113198
114393,113166
114328,113141
114328,113126
114404,113188
114442,113216
114421,113188
114375,113162
114358,113144
114417,113185
114469,113219
114436,113188
114387,113160
114390,113148
114409,113173
114454,113201
114395,113176
114268,113076
114186,113070
114189,113072
114102,113035
113940,112962
113776,112907
113651,112834
113606,112797
113492,112773
113330,112638
113159,112601
113070,112519
113051,112514
113000,112482
112922,112481
112780,112387
112747,112395
112794,112438
112802,112418
112741,112416
112721,112345
112711,112359
112816,112444
112791,112450
112809,112443
112793,112404
112831,112464
112925,112511
113017,112563
113001,112565
112995,112534
113084,112584
113183,112658
113202,112653
113226,112620
113192,112633
113245,112643
113348,112728
113358,112727
113353,112712
113298,112684
113370,112703
113449,112793
113449,112753
113406,112768
113366,112708
113412,112724
113471,112785
113466,112772
113436,112728
113349,112711
113409,112708
113485,112761
113444,112755
113432,112755
113359,112724
113418,112756
113508,112784
113498,112778
113514,112792
113447,112732
113493,112780
113621,112835
113626,112872
113580,112796
113555,112798
113607,112825
113690,112867
113697,112880
113652,112812
113559,112817
113639,112829
113648,112840
113641,112836
113578,112797
113508,112781
113553,112790
113578,112822
113529,112797
113478,112786
113394,112711
113409,112731
113437,112749
113413,112702
113407,112718
113283,112624
113343,112707
113398,112722
113389,112739
113331,112713
113248,112665
113333,112712
113438,112747
113406,112762
113341,112694
113299,112669
113396,112718
113458,112755
113460,112763
113402,112767
113349,112737
113436,112762
113534,112811
113527,112818
113512,112765
113431,112751
113537,112797
113630,112851
113619,112843
113604,112841
113591,112788
113648,112857
113684,112880
113730,112857
113660,112856
113625,112838
113737,112882
113764,112900
113774,112898
113699,112893
113676,112857
113794,112883
113828,112945
113770,112914
113759,112890
113745,112843
113830,112935
113872,112949
113871,112931
113793,112879
113798,112875
113904,112918
113919,112977
113910,112933
113894,112951
113829,112886
113926,112993
113992,112981
113952,112978
113882,112922
113865,112941
113942,112931
114013,112990
113958,113011
113935,112954
113909,112957
113977,112971
114009,113020
114000,112962
113969,112986
113938,112943
113982,112993
114038,113010
114024,112990
113936,112996
113927,112963
114013,113011
114037,113036
114011,112977
114003,113011
113974,112977
114031,113019
114099,113032
114029,113011
114029,112968
114003,112964
114081,113025
114091,113026
114065,113030
114015,112977
114020,112968
114062,113019
114096,113045
114119,113058
114059,112994
114024,112986
114085,113023
114134,113041
114097,113019
114047,112984
114024,112996
114152,113020
114139,113068
114153,113046
114057,112984
114054,113001
114146,113081
114180,113071
114133,113048
114056,113049
114083,112999
114182,113084
114199,113075
114160,113058
114065,113029
114126,113030
114214,113095
114208,113099
114192,113063
114126,113020
114150,113058
114236,113100
114264,113114
114243,113090
114154,113073
114185,113048
114295,113116
114271,113115
114269,113080
114242,113082
114233,113070
114343,113114
114349,113147
114307,113129
114271,113078
114289,113093
114314,113136
114376,113141
114358,113133
114252,113052
114280,113092
114390,113142
114368,113140
114369,113133
114261,113075
114266,113096
114366,113122
114335,113137
114237,113062
114109,113001
114056,112966
114045,112990
113953,112932
113784,112865
113579,112749
113510,112699
113478,112736
113347,112632
113196,112591
113044,112488
112955,112480
112926,112432
112859,112438
112781,112368
112629,112303
112671,112312
112677,112369
112662,112347
112606,112323
112544,112288
112587,112309
112654,112349
112700,112367
112700,112377
112615,112315
112722,112364
112833,112444
112836,112452
112865,112461
112810,112450
112920,112482
113023,112531
113071,112546
113065,112583
113026,112533
113064,112602
113217,112631
113193,112658
113184,112601
113135,112591
113225,112637
113233,112693
113249,112662
113269,112645
113165,112626
113269,112663
113297,112704
113273,112651
113236,112666
113182,112590
113271,112676
113270,112702
113281,112658
113219,112634
113151,112619
113192,112616
113278,112673
113250,112666
113222,112635
113168,112589
113248,112660
113320,112734
113340,112712
113293,112682
113235,112650
113306,112723
113353,112713
113341,112717
113315,112686
113231,112623
113305,112658
113351,112731
113331,112702
113263,112676
113203,112632
113270,112661
113314,112711
113284,112686
113223,112629
113175,112618
113239,112669
113239,112702
113237,112637
113197,112638
113169,112632
113236,112629
113260,112673
113255,112684
113188,112642
113148,112613
113212,112658
113243,112685
113261,112684
113210,112647
113194,112643
113247,112667
113353,112713
113305,112677
113280,112689
113251,112629
113359,112683
113442,112762
113423,112745
113393,112702
113377,112720
113459,112739
113557,112769
113530,112774
113491,112764
113489,112742
113591,112798
113640,112823
113616,112831
113548,112797
113546,112751
113682,112818
113682,112882
113650,112848
113644,112809
113621,112833
113707,112846
113770,112884
113760,112865
113703,112838
113698,112846
113747,112849
113840,112933
113811,112910
113769,112875
113756,112846
113874,112916
113865,112896
113854,112908
113820,112868
113782,112863
113887,112903
113910,112969
113877,112943
113854,112904
113798,112882
113883,112903
113932,112966
113887,112928
113864,112879
113838,112896
113921,112950
113902,112969
113879,112950
113818,112887
113830,112896
113890,112946
113923,112935
113904,112943
113806,112883
113850,112889
113882,112945
113927,112937
113885,112898
113806,112865
113856,112885
113900,112959
113942,112942
113925,112923
113819,112908
113813,112907
113929,112943
113941,112946
113947,112951
113840,112899
113863,112890
113939,112941
113926,112957
113924,112940
113857,112890
113875,112897
113981,112979
113938,112940
113923,112961
113865,112930
113886,112920
113982,112962
113960,112978
113968,112948
113888,112878
113957,112944
113972,113002
114038,112980
114001,112962
113916,112898
113987,112934
114012,112991
114071,113003
113998,112981
113975,112932
114011,112993
114094,112995
114065,113015
114066,112984
113991,112945
114023,112989
114104,112976
114109,112999
114105,113004
114042,112965
114077,113012
114155,113015
114149,113036
114131,113021
114056,112946
114150,113007
114186,113082
114199,113023
114173,113017
114093,112984
114158,113030
114218,113032
114234,113064
114181,113021
114134,113007
114196,113024
114245,113082
114292,113080
114229,113043
114191,112989
114233,113074
114309,113062
114287,113096
114281,113057
114219,112992
114303,113059
114326,113112
114342,113086
114296,113085
114269,113039
114329,113104
114381,113097
114376,113122
114361,113085
114283,113049
114341,113078
114445,113127
114396,113128
114397,113118
114336,113044
114398,113111
114426,113142
114409,113118
114319,113093
114271,113028
114299,113058
114264,113090
114197,113008
114050,112948
113862,112864
113841,112821
113757,112825
113595,112734
113440,112644
113271,112571
113203,112546
113144,112515
113029,112471
112879,112395
112769,112336
112763,112298
112792,112368
112702,112287
112616,112290
112583,112228
112588,112288
112653,112285
112617,112276
112606,112266
112577,112259
112677,112305
112710,112405
112741,112350
112739,112356
112748,112383
112856,112427
112974,112461
112932,112484
112964,112473
112959,112470
113102,112566
113169,112600
113173,112562
113131,112560
113147,112538
113241,112614
113313,112647
113316,112658
113294,112606
113259,112613
113338,112648
113432,112722
113414,112684
113362,112639
113305,112623
113422,112699
113421,112723
113401,112681
113338,112655
113314,112660
113332,112669
113402,112682
113339,112690
113260,112623
113274,112628
113309,112630
113356,112684
113354,112636
113288,112632
113276,112615
113359,112667
113381,112723
113347,112670
113320,112631
113281,112652
113322,112664
113417,112692
113349,112663
113280,112603
113205,112616
113251,112618
113303,112676
113255,112607
113146,112561
113128,112575
113124,112600
113159,112567
113114,112552
113020,112509
113008,112509
113046,112565
113077,112519
113015,112504
112950,112470
112954,112503
113006,112506
113054,112549
113007,112526
112933,112468
112967,112513
113043,112521
113080,112591
113074,112562
112994,112530
113071,112531
113167,112590
113159,112631
113188,112625
113110,112545
113155,112585
113235,112627
113300,112644
113309,112656
113219,112594
113251,112633
113389,112662
113398,112745
113404,112689
113321,112665
113376,112684
113444,112731
113528,112728
113505,112728
113430,112697
113462,112716
113528,112776
113567,112782
113556,112772
113440,112701
113552,112738
113606,112786
113626,112761
113568,112755
113508,112743
113538,112776
113583,112787
113636,112796
113587,112794
113481,112745
113562,112755
113614,112800
113588,112786
113561,112768
113514,112721
113540,112764
113608,112786
113596,112817
113584,112793
113484,112761
113533,112800
113602,112792
113640,112817
113593,112777
113493,112708
113556,112762
113649,112827
113592,112764
113564,112767
113518,112740
113593,112755
113643,112836
113584,112808
113562,112785
113493,112735
113598,112771
113621,112834
113616,112791
113609,112773
113568,112727
113591,112798
113661,112797
113679,112839
113649,112795
113560,112745
113604,112779
113708,112817
113694,112852
113643,112792
113604,112757
113699,112824
113733,112816
113742,112866
113719,112818
113648,112776
113735,112812
113805,112871
113803,112827
113755,112839
113717,112809
113798,112834
113877,112875
113859,112905
113839,112855
113789,112819
113898,112869
113979,112939
113937,112897
113929,112875
113885,112830
113987,112931
114004,112956
114014,112925
113991,112906
113936,112866
114025,112923
114075,112947
114061,112993
114021,112936
113993,112904
114059,112931
114136,112989
114076,112968
114052,112940
114052,112897
114086,112970
114121,112955
114143,113012
114076,112942
114017,112924
114134,112953
114204,113032
114135,112969
114086,112947
114057,112903
114168,112988
