11111,11111
0,0
81047,80562
101941,100088
101909,100052
101882,100031
101838,100018
101974,100070
101994,100095
101948,100101
101948,100063
101943,100101
102042,100086
102098,100126
102057,100144
102045,100082
102012,100099
102118,100136
102169,100164
102126,100128
102128,100123
102135,100143
102185,100197
102258,100167
102209,100210
102184,100164
102209,100164
102294,100190
102270,100219
102307,100207
102273,100222
102241,100169
102364,100263
102385,100284
102345,100207
102341,100219
102295,100190
102414,100282
102443,100303
102366,100256
102404,100235
102358,100249
102500,100307
102474,100325
102450,100279
102457,100293
102458,100268
102525,100337
102485,100302
102545,100336
102487,100331
102439,100263
102561,100333
102588,100341
102534,100324
102489,100290
102471,100288
102576,100334
102592,100349
102555,100359
102483,100286
102543,100321
102642,100367
102599,100352
102623,100352
102527,100344
102583,100328
102649,100391
102644,100376
102673,100398
102588,100343
102640,100384
102702,100365
102717,100422
102679,100390
102648,100384
102654,100381
102756,100434
102799,100436
102766,100437
102738,100424
102730,100407
102855,100461
102872,100500
102857,100440
102803,100450
102827,100451
102901,100492
102853,100492
102817,100413
102727,100415
102638,100320
102623,100356
102484,100277
102330,100183
102156,100100
102069,100098
102030,100062
101964,99966
101784,99907
101686,99833
101576,99840
101606,99820
101513,99802
101382,99731
101286,99663
101266,99658
101230,99672
101179,99591
101069,99615
100962,99534
100892,99486
100923,99529
100905,99470
100806,99485
100708,99410
100737,99418
100753,99448
100731,99401
100672,99435
100583,99350
100620,99403
100688,99439
100685,99409
100645,99385
100622,99384
101082,99609
101313,99706
101220,99666
101305,99720
101321,99708
101280,99693
101730,99934
101761,99934
101747,99921
101717,99900
102005,100012
102092,100103
102153,100109
102125,100088
102163,100095
102076,100088
102180,100118
102199,100166
102210,100130
102209,100142
102132,100106
102270,100174
102271,100192
102278,100171
102291,100170
102212,100131
102317,100217
102333,100228
102367,100191
102350,100203
102302,100154
102374,100243
102410,100202
102416,100246
102393,100231
102354,100179
102439,100220
102441,100285
102454,100232
102454,100239
102400,100210
102474,100261
102515,100258
102455,100267
102455,100228
102415,100237
102535,100255
102532,100286
102532,100284
102496,100270
102477,100249
102551,100276
102592,100324
102591,100306
102539,100295
102502,100273
102601,100329
102619,100339
102575,100322
102622,100315
102576,100328
102681,100362
102682,100389
102701,100346
102699,100346
102655,100323
102776,100358
102781,100414
102761,100403
102729,100362
102709,100367
102802,100406
102797,100398
102716,100354
102631,100305
102477,100252
102474,100267
102360,100189
102209,100079
102082,100005
101879,99984
101873,99915
101852,99915
101667,99858
101529,99762
101430,99706
101462,99747
101347,99720
101296,99638
101187,99597
101076,99533
101067,99547
100987,99543
100959,99470
100825,99455
100738,99390
100791,99400
100693,99408
100675,99384
100564,99331
100505,99324
100560,99339
100505,99328
100541,99340
100454,99301
100415,99257
100507,99318
100477,99314
100463,99336
100448,99272
100436,99292
100510,99348
100528,99319
100537,99356
100498,99311
100522,99305
100638,99398
100613,99416
100628,99388
100611,99385
100594,99372
100730,99418
100742,99422
100704,99441
100663,99400
100699,99414
100772,99462
100837,99481
100771,99500
100727,99442
100808,99450
100881,99520
100854,99519
100877,99520
100869,99502
100851,99482
100990,99550
100991,99573
100980,99568
100924,99539
100987,99544
101060,99609
101025,99589
101049,99589
101033,99566
100995,99577
101073,99588
101076,99593
101090,99574
101009,99591
101005,99546
101051,99593
101101,99599
101029,99589
100977,99532
100987,99529
101074,99581
101037,99592
101033,99556
100959,99551
100941,99501
101026,99577
100986,99562
100965,99551
100948,99505
100902,99533
100976,99530
100984,99546
100936,99561
100905,99516
100950,99509
101000,99595
100983,99522
100995,99554
100907,99521
100957,99542
101030,99602
101000,99538
101037,99572
101003,99538
101005,99563
101060,99594
101125,99609
101067,99607
101032,99563
101096,99600
101157,99650
101172,99613
101158,99671
101100,99582
101181,99650
101218,99684
101257,99692
101273,99696
101157,99637
101251,99658
101308,99717
101336,99697
101303,99721
101304,99681
101304,99728
101415,99783
101402,99748
101435,99775
101397,99733
101404,99764
101512,99795
101501,99831
101487,99808
101487,99773
101526,99795
101597,99851
101637,99826
101592,99875
101560,99793
101620,99877
101678,99891
101713,99879
101710,99876
101656,99890
101727,99866
101824,99968
101753,99943
101808,99921
101700,99923
101808,99907
101886,99994
101851,99952
101839,99946
101811,99944
101876,99956
101924,99992
101929,99995
101905,99974
101863,99962
101922,99990
101993,100019
101981,100035
101981,99996
101954,99989
101989,100028
102049,100024
102055,100062
102018,100009
102006,100033
102083,100032
102109,100101
102079,100078
102050,100064
102021,100028
102076,100057
102145,100096
102090,100110
102095,100095
102067,100034
102101,100069
102192,100101
102178,100133
102160,100095
102095,100057
102133,100118
102199,100092
102187,100134
102186,100120
102124,100026
102216,100130
102242,100174
102216,100101
102220,100163
102170,100041
102234,100127
102304,100147
102262,100176
102284,100162
102237,100118
102296,100183
102371,100197
102367,100223
102347,100184
102310,100127
102379,100220
102419,100234
102354,100169
102366,100182
102190,100140
102220,100098
102169,100088
101991,100006
101883,99970
101747,99846
101657,99855
101624,99792
101472,99771
101398,99706
101219,99600
101220,99650
101148,99591
101055,99562
100981,99494
100831,99435
100834,99419
100794,99443
100673,99334
100610,99350
100436,99244
100447,99283
100471,99279
100373,99245
100304,99206
100210,99113
100237,99207
100258,99189
100205,99170
100130,99131
100084,99074
100102,99158
100178,99129
100113,99156
100070,99142
100059,99091
100181,99130
100184,99199
100180,99133
100170,99139
100134,99132
100231,99160
100246,99244
100262,99182
100282,99217
100258,99181
100292,99237
100371,99245
100343,99290
100383,99228
100327,99243
100435,99309
100467,99327
100451,99260
100463,99309
100380,99263
100507,99346
100529,99348
100507,99325
100525,99301
100483,99326
100598,99346
100655,99399
100608,99342
100630,99375
100574,99370
100713,99394
100680,99420
100721,99423
100685,99394
100675,99393
100731,99456
100759,99429
100747,99463
100725,99410
100683,99403
100732,99475
100767,99426
100774,99445
100697,99420
100671,99366
100748,99443
100700,99437
100729,99427
100644,99394
100651,99356
100690,99390
100714,99417
100643,99416
100634,99365
100565,99374
100655,99380
100701,99416
100629,99358
100619,99369
100569,99338
100653,99386
100647,99398
100637,99371
100619,99383
100592,99356
100656,99401
100678,99422
100663,99393
100663,99386
100629,99369
100737,99440
100742,99439
100747,99422
100711,99412
100667,99383
100794,99447
100783,99446
100790,99449
100770,99423
100765,99448
100847,99474
100904,99482
100824,99499
100852,99465
100862,99456
100943,99551
100967,99534
100962,99480
100940,99507
100911,99474
101058,99587
101003,99563
101051,99573
100993,99552
101036,99565
101126,99644
101111,99605
101153,99632
101097,99600
101101,99594
101229,99621
101250,99690
101203,99631
101196,99638
101169,99631
101313,99683
101273,99718
101321,99702
101264,99668
101275,99670
101366,99716
101401,99772
101387,99702
101361,99684
101354,99744
101427,99747
101462,99775
101415,99753
101422,99734
101402,99733
101456,99771
101514,99776
101453,99796
101442,99748
101405,99798
101504,99799
101569,99797
101504,99781
101482,99793
101473,99772
101553,99841
101541,99801
101556,99842
101497,99787
101530,99771
101600,99859
101591,99787
101575,99839
101556,99798
101529,99782
101661,99848
101642,99867
101666,99860
101578,99829
101611,99796
101709,99890
101688,99873
101680,99879
101666,99844
101652,99832
101762,99930
101718,99917
101724,99893
101708,99882
101712,99871
101786,99947
101756,99882
101787,99933
101750,99889
101758,99930
101820,99949
101894,99960
101862,99926
101822,99919
101879,99951
101927,99993
101971,99973
101926,99987
101914,99954
101953,99966
102023,100052
102011,99998
101972,100005
101933,99950
101919,99942
101911,99983
101808,99892
101670,99848
101555,99764
101434,99710
101427,99746
101260,99631
101165,99567
101005,99472
100933,99491
100908,99480
100783,99398
100716,99348
100557,99292
100508,99246
100518,99266
100377,99207
100326,99158
100168,99138
100138,99060
100155,99103
100017,99076
99954,99020
99888,98973
99839,98992
99885,99015
99814,98984
99756,98949
99653,98898
99691,98876
99729,98936
99673,98878
99647,98902
99587,98858
99612,98872
99691,98939
99602,98900
99641,98903
99558,98862
99622,98890
99682,98961
99636,98888
99695,98943
99638,98905
99691,98907
99760,99000
99722,98935
99753,98984
99692,98932
99789,99004
99836,99011
99811,98993
99806,99017
99808,98980
99849,99004
99919,99020
99935,99054
99940,99058
99939,99062
99989,99056
100081,99130
100040,99124
100072,99114
100023,99084
100086,99156
100184,99160
100193,99196
100180,99166
100116,99133
100229,99157
100298,99241
100221,99166
100257,99193
100174,99181
100230,99180
100285,99239
100247,99188
100248,99173
100196,99154
100263,99188
100264,99227
100272,99189
100236,99196
100145,99158
100274,99194
100265,99228
100237,99160
100213,99178
100115,99144
100220,99197
100223,99199
100225,99176
100164,99156
100133,99151
100200,99154
100244,99203
100202,99177
100164,99141
100141,99147
100220,99161
100288,99210
100215,99160
100226,99187
100170,99132
100225,99181
100291,99228
100280,99204
100279,99258
100209,99169
100297,99220
100340,99257
100337,99222
100339,99237
100258,99232
100403,99237
100378,99283
100407,99283
100376,99247
100380,99242
100405,99275
100478,99306
100450,99317
100455,99309
100443,99280
100488,99312
100607,99354
100553,99339
100572,99338
100529,99341
100616,99375
100662,99369
100655,99420
100624,99364
100610,99339
100722,99454
100788,99441
100748,99414
100774,99444
100692,99407
100816,99457
100857,99479
100797,99458
100835,99421
100765,99473
100883,99476
100921,99513
100898,99492
100867,99477
100873,99499
100931,99506
100962,99551
100969,99558
100911,99522
100929,99508
100988,99567
101074,99580
100992,99548
101011,99569
100985,99521
101086,99603
101081,99639
101093,99590
101058,99573
101053,99562
101094,99618
101159,99624
101102,99596
101138,99591
101074,99615
101177,99671
101191,99638
101151,99625
101167,99614
101090,99608
101187,99660
101247,99649
101204,99663
101197,99607
101133,99625
101236,99663
101267,99683
101201,99681
101211,99654
101147,99650
101247,99672
101332,99705
101273,99690
101233,99667
101274,99672
101326,99747
101324,99711
101387,99759
101311,99696
101328,99695
101424,99778
101384,99755
101442,99769
101376,99768
101369,99710
101441,99784
101490,99796
101473,99757
101397,99716
101400,99763
101423,99746
101377,99740
101286,99668
101140,99634
101045,99503
101009,99567
100895,99498
100814,99457
100654,99384
100527,99321
100565,99304
100451,99285
100301,99195
100193,99145
100089,99101
100058,99098
99948,99019
99858,99033
99717,98914
99663,98895
99628,98860
99572,98868
99427,98773
99372,98748
99275,98713
99295,98723
99197,98725
99156,98679
99042,98601
99007,98625
99061,98638
98995,98670
98959,98587
98883,98584
98904,98583
98961,98614
98939,98612
98896,98600
98873,98590
98835,98560
98984,98648
98943,98666
98966,98616
98931,98635
98970,98659
99040,98667
99085,98697
99058,98681
99049,98688
99083,98686
99176,98767
99196,98756
99178,98766
99151,98713
99222,98766
99274,98808
99295,98813
99307,98775
99292,98775
99303,98791
99428,98884
99400,98843
99410,98899
99396,98812
99468,98894
99517,98911
99512,98930
99578,98925
99510,98890
99556,98915
99620,98979
99627,98940
99587,98928
99561,98912
99610,98914
99645,98983
99646,98954
99597,98948
99569,98893
99612,98939
99667,98965
99624,98935
99617,98928
99548,98897
99560,98932
99645,98982
99596,98933
99556,98938
99530,98878
99561,98906
99631,98964
99560,98944
99567,98916
99491,98911
99521,98901
99621,98945
99583,98925
99565,98897
99501,98905
99537,98893
99615,98939
99587,98949
99551,98951
99533,98874
99550,98930
99635,98988
99603,98936
99632,98923
99598,98919
99622,98960
99713,98989
99696,99024
99670,98998
99659,98959
99705,98983
99793,99016
99783,99052
99757,99024
99760,98970
99798,99077
99840,99078
99863,99080
99898,99052
99804,99058
99935,99092
99992,99127
99957,99123
99988,99118
99949,99114
99992,99122
100088,99185
100082,99171
100059,99158
100083,99128
100107,99202
100180,99234
100213,99208
100217,99248
100183,99186
100221,99265
100312,99296
100306,99245
100312,99283
100271,99256
100341,99270
100423,99315
100416,99331
100406,99331
100369,99294
100459,99328
100523,99406
100483,99350
100480,99367
100465,99348
100551,99397
100587,99425
100564,99391
100566,99406
100522,99382
100595,99425
100655,99437
100645,99412
100631,99437
100584,99405
100651,99453
100725,99489
100707,99471
100683,99453
100641,99428
100733,99493
100771,99513
100724,99485
100737,99481
100684,99467
100757,99496
100763,99506
100808,99519
100746,99483
100710,99448
100806,99506
100822,99532
100834,99526
100792,99524
100762,99466
100829,99565
100845,99548
100836,99542
100831,99518
100785,99509
100831,99515
100895,99576
100860,99580
100876,99548
100797,99493
100890,99589
100928,99583
100930,99590
100874,99558
100856,99518
100947,99591
100974,99624
100957,99563
100947,99596
100921,99583
100976,99583
101013,99651
101008,99659
100970,99584
100981,99572
101029,99653
101091,99677
101098,99657
101043,99661
101049,99588
101105,99693
101159,99708
101141,99705
101117,99651
101128,99656
101198,99703
101235,99723
101181,99703
101126,99689
101048,99602
101022,99622
101007,99587
100845,99535
100717,99457
100599,99379
100533,99392
100425,99295
100325,99264
100180,99183
100008,99104
99970,99133
99861,99014
99775,99010
99588,98918
99487,98837
99421,98837
99348,98776
99179,98752
99035,98658
98931,98577
98906,98622
98801,98582
98674,98479
98581,98456
98400,98397
98454,98440
98372,98398
98297,98351
98171,98317
98123,98270
98100,98296
98072,98281
98028,98271
97943,98222
97886,98251
97985,98253
97975,98270
97946,98292
97922,98243
97921,98269
97973,98290
97966,98306
97963,98334
97914,98284
97971,98285
98033,98335
98055,98365
98060,98383
98052,98367
98084,98336
98174,98396
98206,98436
98196,98432
98198,98381
98224,98426
98315,98459
98326,98476
98389,98497
98355,98457
98383,98494
98478,98528
98519,98538
98542,98566
98523,98541
98570,98541
98675,98577
98687,98616
98682,98654
98685,98599
98740,98623
98797,98647
98837,98676
98841,98695
98761,98661
98850,98648
98879,98721
98903,98701
98910,98674
98840,98674
98875,98675
98904,98719
98913,98698
98942,98729
98897,98681
98907,98663
98940,98714
98920,98696
98953,98709
98866,98662
98902,98664
98953,98738
98937,98698
98960,98719
98880,98676
98915,98684
99018,98747
98972,98750
98991,98728
98940,98705
98971,98700
99046,98767
99016,98746
99053,98722
99007,98728
98981,98710
99106,98773
99132,98817
99097,98751
99102,98771
99116,98791
99156,98817
99195,98830
99181,98815
99158,98821
99218,98822
99327,98867
99297,98897
99303,98866
99304,98852
99316,98915
99395,98914
99464,98945
99432,98943
99385,98926
99449,98940
99520,99006
99572,98967
99568,99020
99515,98977
99587,98981
99684,99075
99668,99042
99735,99045
99666,99056
99714,99025
99797,99093
99825,99113
99804,99128
99770,99065
99840,99126
99895,99166
99921,99149
99906,99152
99907,99142
99936,99134
100043,99199
100029,99246
100026,99219
100006,99187
100011,99221
100137,99255
100131,99227
100119,99282
100076,99221
100171,99280
100221,99312
100173,99305
100207,99270
100172,99251
100227,99287
100288,99339
100251,99319
100281,99328
100246,99340
100283,99273
100366,99358
100335,99360
100329,99361
100281,99307
100351,99363
100381,99386
100399,99400
100400,99371
100331,99355
100400,99390
100468,99410
100467,99440
100453,99418
100390,99373
100452,99395
100536,99427
100560,99468
100517,99411
100518,99410
100538,99449
100636,99473
100587,99487
100580,99454
100580,99458
100580,99459
100663,99508
100634,99485
100657,99509
100574,99473
100683,99474
100731,99570
100650,99513
100712,99529
100652,99506
100746,99533
100771,99560
100775,99543
100767,99547
100751,99552
100779,99525
100860,99601
100807,99603
100831,99604
100785,99535
100926,99646
100975,99650
100925,99642
100886,99598
100908,99569
100943,99665
101015,99686
101002,99672
100974,99661
100968,99616
101027,99674
101063,99695
101053,99715
101023,99648
100998,99658
101015,99642
100972,99620
100893,99592
100777,99507
100619,99434
100576,99459
100484,99379
100354,99304
100247,99254
100081,99162
100034,99118
99987,99145
99823,99054
99726,98989
99544,98915
99533,98908
99413,98889
99305,98774
99202,98784
99050,98702
98963,98675
98935,98629
98829,98597
98707,98524
98586,98481
98561,98501
98499,98466
98429,98434
98345,98392
98281,98363
98287,98359
98303,98379
98217,98338
98164,98332
98144,98265
98169,98354
98211,98338
98180,98368
98152,98350
98144,98314
98247,98379
98289,98453
98304,98385
98333,98408
98255,98395
98381,98476
98384,98504
98456,98489
98431,98515
98458,98486
98500,98534
98610,98539
98574,98562
98571,98552
98619,98539
98713,98589
98723,98648
98751,98656
98767,98645
98800,98594
98838,98692
98936,98720
98965,98712
98943,98749
98949,98690
99099,98797
99119,98790
99118,98835
99115,98790
99168,98782
99265,98876
99263,98853
99317,98887
99317,98862
99246,98843
99334,98904
99385,98904
99395,98905
99368,98884
99365,98877
99430,98940
99428,98908
99481,98946
99404,98906
99376,98870
99473,98927
99515,98941
99469,98911
99499,98919
99406,98909
99509,98931
99517,98940
99512,98911
99482,98927
99427,98866
99557,98971
99529,98954
99527,98907
99526,98953
99522,98925
99577,98947
99590,98961
99583,98993
99561,98949
99543,98947
99610,98997
99661,98969
99622,99022
99614,98976
99655,98966
99745,99045
99724,99055
99742,99032
99716,99041
99720,98996
99822,99065
99794,99101
99825,99052
99862,99088
99802,99070
99898,99096
99946,99135
99982,99138
99923,99129
99941,99086
100026,99133
100066,99200
100064,99196
100063,99165
100065,99166
100124,99214
100159,99223
100183,99258
100159,99213
100144,99198
100232,99274
100254,99281
100253,99285
100244,99254
100218,99239
100328,99320
100360,99328
100344,99311
100338,99288
100325,99301
100422,99349
100396,99359
100431,99355
100396,99327
100406,99330
100526,99389
100533,99396
100554,99380
100482,99389
100522,99355
100587,99420
100607,99411
100580,99438
100526,99381
100577,99412
100656,99437
100616,99456
100601,99448
100596,99401
100590,99425
100688,99499
100686,99453
100706,99451
100628,99431
100685,99464
100722,99476
100712,99460
100697,99486
100639,99425
100672,99434
100759,99520
100742,99508
100709,99483
100726,99485
100730,99500
100801,99536
100773,99518
100799,99514
100732,99470
100769,99521
100820,99540
100842,99558
100854,99538
100790,99499
100819,99529
100909,99562
100920,99584
100897,99565
100884,99502
100917,99525
100993,99626
100929,99585
100939,99602
100916,99565
100936,99589
100988,99580
100929,99568
100891,99526
100758,99426
100724,99465
100705,99419
100578,99402
100479,99304
100385,99258
100259,99180
100223,99184
100154,99154
100063,99079
99902,99052
99820,98963
99866,98980
99718,98931
99598,98879
99488,98829
99441,98804
99384,98787
99332,98738
99244,98683
99109,98652
99119,98630
99150,98631
99007,98614
98996,98586
98884,98518
98890,98551
98945,98577
98831,98542
98814,98509
98756,98517
98732,98497
98795,98537
98768,98498
98798,98517
98696,98520
98741,98481
98812,98523
98802,98532
98752,98527
98750,98478
98768,98567
98849,98557
98856,98527
98869,98553
98840,98534
98878,98552
98970,98618
98960,98599
98946,98585
98971,98585
98980,98643
99069,98663
99100,98682
99066,98647
99099,98616
99113,98688
99191,98704
99207,98745
99196,98711
99193,98687
99257,98724
99331,98774
99270,98797
99322,98772
99326,98765
99329,98775
99399,98809
99423,98823
99378,98785
99379,98801
99393,98786
99454,98871
99400,98821
99373,98820
99352,98773
99395,98804
99408,98821
99415,98816
99350,98792
99285,98752
99308,98752
99331,98766
99239,98779
99199,98706
99089,98665
99077,98678
99077,98653
98944,98650
98863,98546
98749,98522
98725,98513
98675,98489
98551,98411
98450,98342
98227,98273
98225,98244
98153,98216
97962,98143
97911,98100
97691,98019
97677,97970
97578,97969
97428,97906
97297,97841
97128,97752
96997,97688
96759,97588
96559,97457
96310,97346
96006,97261
95799,97129
95536,97031
95249,96881
94999,96820
94700,96708
94497,96584
94193,96462
93931,96317
93634,96238
93374,96064
93143,95992
92977,95890
92766,95801
92655,95744
92485,95646
92397,95633
92315,95547
92237,95566
92177,95521
92100,95516
92081,95464
92109,95498
92034,95472
92044,95457
92063,95452
92035,95488
92036,95447
92052,95505
92044,95498
92146,95517
92145,95560
92189,95540
92301,95630
92342,95624
92445,95684
92502,95686
92575,95729
92635,95775
92679,95802
92765,95887
92834,95885
92891,95918
92979,95936
93016,96003
93029,95973
93125,96039
93124,96025
93173,96045
93140,96059
93157,96020
93166,96080
93163,96039
93166,96015
93168,96061
93119,96059
93171,96019
93177,96086
93136,96018
93073,96027
93036,96002
93038,95978
92999,95955
92965,95935
92923,95923
92836,95898
92846,95895
92766,95845
92748,95862
92664,95821
92636,95762
92596,95783
92567,95747
92527,95710
92497,95712
92436,95652
92438,95709
92431,95665
92424,95638
92428,95668
92353,95618
92430,95660
92431,95642
92411,95633
92456,95644
92486,95647
92523,95702
92529,95688
92528,95695
92493,95675
92469,95640
92421,95630
92304,95545
92249,95504
92087,95456
91910,95355
91760,95253
91602,95180
91344,95022
91180,94938
90954,94845
90771,94756
90565,94632
90383,94553
90207,94434
90096,94398
89953,94282
89834,94221
89695,94179
89597,94083
89538,94083
89460,94021
89469,94025
89391,93989
89417,94021
89415,94016
89416,94021
89425,94022
89506,94052
89522,94078
89612,94086
89629,94135
89653,94129
89762,94174
89755,94193
89817,94210
89910,94207
89980,94299
90030,94310
90087,94378
90141,94389
90240,94435
90371,94536
90456,94504
90553,94594
90636,94639
90820,94696
90902,94772
91005,94819
91092,94866
91230,94893
91341,94973
91434,95020
91520,95049
91575,95116
91614,95175
91703,95159
91843,95200
91852,95242
91906,95284
91978,95287
92056,95342
92059,95318
92192,95403
92191,95425
92210,95429
92279,95436
92376,95470
92349,95473
92380,95469
92427,95550
92471,95552
92527,95536
92471,95553
92482,95537
92501,95562
92528,95568
92545,95507
92477,95546
92492,95567
92479,95551
92483,95560
92453,95488
92413,95537
92387,95493
92388,95457
92391,95480
92339,95447
92345,95476
92267,95433
92292,95460
92303,95421
92322,95417
92288,95428
92273,95442
92269,95439
92361,95464
92401,95455
92404,95455
92440,95488
92400,95504
92512,95520
92520,95540
92469,95545
92442,95495
92527,95571
92550,95561
92526,95551
92548,95535
92502,95551
92506,95516
92626,95561
92542,95535
92530,95569
92505,95532
92480,95541
92530,95512
92533,95571
92510,95561
92518,95548
92570,95562
92648,95592
92596,95575
92584,95591
92591,95626
92622,95612
92690,95637
92699,95603
92692,95686
92655,95627
92722,95633
92814,95680
92747,95684
92786,95664
92788,95716
92792,95658
92876,95727
92849,95724
92860,95745
92804,95701
92883,95746
92912,95736
92912,95711
92902,95757
92893,95731
92935,95726
93021,95749
92970,95805
93002,95767
92988,95796
93039,95797
93109,95799
93122,95817
93166,95875
93132,95862
93264,95906
93313,95928
93343,95933
93393,95955
93400,96001
93499,96026
93641,96055
93677,96097
93712,96135
93694,96156
93866,96186
93969,96238
94009,96255
94043,96300
94083,96314
94177,96348
94252,96391
94311,96393
94358,96440
94348,96459
94499,96501
94624,96560
94631,96561
94724,96621
94740,96667
94803,96672
94963,96696
94942,96743
95021,96791
95030,96795
95161,96831
95225,96872
95277,96865
95322,96934
95308,96968
95442,96969
95516,97021
95596,97017
95597,97059
95620,97117
95748,97104
95820,97167
95878,97164
95933,97198
95905,97214
96063,97275
96129,97309
96144,97291
96217,97360
96225,97382
96318,97373
96459,97438
96433,97481
96530,97465
96510,97547
96625,97534
96737,97561
96718,97629
96791,97636
96827,97621
96938,97705
96972,97692
97046,97763
97045,97761
97052,97782
97171,97801
97219,97869
97267,97824
97275,97865
97220,97868
97334,97886
97415,97888
97450,97936
97437,97942
97462,97940
97512,97979
97623,97979
97607,98044
97629,98045
97680,98052
97781,98095
97815,98092
97872,98114
97828,98142
97855,98126
97883,98148
97892,98092
97839,98128
97761,98080
97659,98015
97638,98010
97549,97904
97416,97883
97255,97799
97037,97716
96964,97648
96800,97524
96548,97477
96317,97377
96118,97229
95978,97174
95805,97046
95548,96997
95309,96883
95125,96771
95021,96735
94837,96643
94676,96576
94517,96548
94352,96485
94259,96431
94215,96390
94136,96379
94051,96342
94010,96341
94009,96320
94075,96282
94002,96343
94030,96337
94004,96326
94106,96355
94138,96363
94176,96364
94232,96439
94238,96463
94359,96454
94443,96537
94522,96589
94495,96598
94595,96611
94749,96684
94767,96701
94848,96774
94859,96750
94955,96800
95007,96810
95082,96838
95139,96864
95143,96889
95161,96905
95306,96908
95325,96986
95342,96964
95318,96977
95384,97007
95447,97012
95473,97049
95502,97057
95514,97073
95508,97069
95643,97082
95696,97134
95702,97112
95737,97173
95753,97182
95847,97234
95913,97204
95920,97261
95910,97255
95978,97272
96022,97292
96068,97304
96070,97337
96031,97310
96072,97316
96111,97320
96179,97315
96107,97329
96109,97344
96101,97357
96199,97347
96157,97313
96160,97355
96090,97284
96136,97376
96175,97349
96173,97331
96158,97356
96117,97334
96102,97375
96162,97353
96229,97361
96162,97332
96148,97333
96162,97347
96247,97368
96276,97356
96243,97402
96199,97388
96261,97438
96323,97413
96314,97424
96381,97447
96350,97478
96368,97440
96496,97508
96508,97502
96485,97547
96499,97531
96580,97553
96677,97607
96687,97576
96729,97623
96758,97633
96788,97665
96882,97708
96906,97683
96931,97751
96933,97725
96998,97758
97063,97763
97125,97799
97108,97798
97177,97821
97167,97856
97265,97874
97337,97884
97336,97900
97320,97907
97374,97964
97451,97945
97508,98006
97549,98008
97506,98008
97568,97994
97687,98065
97698,98091
97736,98076
97703,98090
97752,98111
97844,98111
97883,98146
97910,98163
97891,98156
97940,98208
98001,98228
98055,98201
98061,98250
98035,98223
98094,98238
98192,98251
98191,98324
98198,98292
98135,98287
98262,98340
98330,98356
98330,98399
98318,98368
98293,98340
98386,98409
98434,98388
98434,98410
98469,98451
98409,98408
98525,98429
98560,98490
98573,98466
98596,98456
98567,98474
98611,98464
98709,98502
98665,98538
98704,98531
98681,98515
98700,98515
98815,98561
98798,98583
98823,98582
98797,98585
98835,98581
98899,98586
98909,98589
98896,98622
98852,98617
98904,98603
98983,98630
98964,98674
98985,98645
98962,98631
98983,98645
99104,98668
99034,98683
99080,98679
99045,98702
99120,98668
99173,98737
99176,98736
99165,98728
99135,98755
99222,98756
99235,98771
99258,98760
99234,98769
99227,98780
99287,98798
99358,98800
99319,98767
99355,98834
99280,98820
99377,98805
99435,98834
99400,98827
99451,98851
99360,98873
99447,98888
99489,98899
99517,98903
99521,98876
99501,98924
99587,98888
99643,98932
99611,98945
99658,98956
99587,98960
99689,98979
99719,98996
99670,98995
99652,98981
99593,98945
99615,98927
99585,98877
99526,98870
99417,98850
99230,98788
99231,98701
99204,98702
99049,98652
98943,98556
98768,98492
98752,98479
98686,98421
98495,98396
98386,98286
98215,98243
98166,98190
98031,98134
97874,98056
97725,97987
97510,97960
97428,97831
97252,97789
97083,97688
96906,97615
96691,97555
96683,97538
96563,97456
96498,97431
96419,97394
96259,97387
96313,97390
96249,97401
96226,97355
96176,97366
96094,97367
96198,97362
96255,97434
96234,97381
96310,97429
96267,97447
96358,97450
96425,97532
96472,97468
96504,97544
96483,97504
96589,97582
96684,97592
96693,97593
96705,97615
96712,97647
96825,97647
96866,97685
96899,97743
96913,97702
96928,97746
96999,97718
97064,97776
97100,97765
97087,97788
97032,97769
97189,97829
97189,97873
97226,97833
97230,97861
97239,97874
97293,97897
97389,97878
97392,97953
97374,97905
97399,97938
97429,97959
97515,97966
97483,97986
97514,97974
97460,97977
97564,97996
97596,97996
97553,97983
97545,97986
97514,98002
97596,97988
97607,98010
97556,97976
97559,97990
97488,97988
97609,97992
97600,97999
97561,98014
97509,97966
97482,97952
97575,97958
97578,97998
97564,97951
97521,97990
97483,97933
97574,97949
97518,97985
97530,97946
97468,97929
97428,97943
97520,97944
97508,97940
97473,97920
97461,97931
97451,97928
97515,97960
97544,97952
97500,97947
97507,97953
97508,97974
97608,97978
97602,97978
97627,98002
97595,97992
97612,97998
97685,98033
97733,98028
97725,98067
97738,98065
97746,98077
97811,98111
97868,98127
97871,98113
97895,98151
97900,98150
97978,98170
98007,98185
98016,98186
98024,98179
98042,98230
98132,98223
98169,98258
98134,98232
98168,98234
98175,98272
98263,98289
98357,98313
98301,98327
98305,98286
98364,98355
98447,98359
98472,98363
98477,98424
98458,98389
98518,98417
98591,98446
98620,98473
98668,98467
98638,98472
98643,98491
98775,98495
98791,98511
98783,98514
98789,98548
98789,98492
98886,98566
98917,98578
98937,98584
98891,98595
98919,98550
98963,98598
99019,98651
99014,98602
98999,98626
98993,98590
99091,98643
99098,98681
99094,98651
99100,98668
99086,98642
99181,98704
99203,98716
99203,98667
99136,98682
99206,98713
99246,98720
99247,98742
99253,98688
99273,98705
99257,98757
99307,98749
99350,98775
99367,98747
99296,98787
99354,98735
99430,98775
99383,98827
99401,98792
99392,98805
99445,98799
99529,98850
99526,98833
99495,98856
99434,98838
99500,98831
99603,98857
99586,98849
99618,98867
99569,98853
99595,98872
99654,98913
99667,98915
99691,98903
99647,98944
99656,98888
99777,98959
99746,98931
99719,98925
99686,98927
99740,98925
99806,98973
99782,98958
99833,98986
99750,98950
99794,98996
99883,98975
99848,99037
99820,98968
99837,99018
99885,99006
99939,99012
99889,99060
99923,99015
99856,99038
99914,99048
99993,99076
99980,99048
99999,99074
99956,99074
99995,99028
100095,99081
100034,99103
100019,99085
99968,99045
100010,99028
100048,99071
99933,99037
99892,98987
99721,98928
99687,98916
99696,98858
99609,98848
99457,98790
99319,98702
99256,98628
99258,98628
99027,98588
98942,98495
98775,98443
98675,98395
98584,98337
98411,98263
98283,98191
98074,98143
97931,98004
97814,97986
97582,97910
97385,97787
97256,97700
97136,97718
97073,97624
97011,97582
96855,97563
96762,97471
96762,97514
96759,97490
96708,97497
96656,97504
96567,97474
96594,97530
96628,97491
96647,97525
96581,97520
96605,97541
96659,97553
96741,97535
96785,97623
96752,97590
96763,97593
96844,97651
96977,97679
96993,97703
97013,97721
97025,97713
97133,97784
97180,97814
97241,97816
97292,97847
97243,97838
97428,97878
97464,97913
97493,97913
97477,97923
97522,97919
97584,98003
97678,97989
97703,98001
97725,98017
97678,98041
97817,98067
97907,98091
97881,98146
97921,98098
97898,98110
97960,98117
98063,98151
98042,98176
98040,98181
98049,98149
98081,98190
98180,98216
98127,98234
98114,98226
98098,98153
98189,98209
98229,98233
98171,98198
98207,98215
98108,98221
98193,98205
98194,98236
98218,98230
98189,98244
98137,98191
98172,98202
98176,98230
98175,98190
98163,98213
98096,98184
98156,98177
98211,98230
98116,98173
98121,98199
98076,98163
98164,98204
98175,98237
98148,98166
98176,98206
98111,98175
98185,98212
98257,98252
98205,98216
98226,98201
98198,98237
98275,98244
98333,98276
98331,98315
98314,98281
98298,98311
98420,98305
98437,98354
98460,98345
98468,98381
98430,98301
98559,98404
98595,98406
98604,98398
98610,98400
98615,98435
98714,98450
98770,98460
98786,98505
98780,98490
98831,98463
98936,98564
98927,98569
98982,98559
98955,98590
98957,98584
99096,98608
99102,98648
99127,98619
99133,98661
99099,98636
99224,98676
99269,98679
99226,98704
99261,98694
99253,98697
99326,98748
99364,98724
99349,98766
99352,98757
99352,98752
99492,98810
99469,98803
99460,98840
99436,98799
99500,98785
99542,98855
99562,98805
99603,98855
99522,98821
99572,98806
99643,98907
99648,98878
99658,98886
99613,98866
99648,98839
99689,98888
99727,98913
99697,98872
99677,98861
99681,98899
99744,98940
99796,98939
99775,98902
99762,98920
99701,98890
99821,98970
99827,98956
99829,98935
99784,98936
99771,98902
99857,99004
99829,98960
99892,98989
99820,98938
99803,98925
99938,98985
99896,99030
99890,98965
99861,98981
99872,98949
99891,99005
99936,99015
99924,98968
99908,98972
99885,98978
99954,99006
99995,99004
99922,98988
99930,98978
99923,98981
100001,99027
100022,99008
99954,99002
99993,98976
99968,99038
100038,99027
100077,99077
100069,99032
100004,99050
100008,98983
100077,99086
100080,99047
100107,99077
100044,99028
100034,99043
100109,99076
100124,99041
100100,99078
100069,99046
100135,99055
100187,99101
100174,99126
100215,99088
100159,99128
100191,99114
100278,99151
100258,99136
100309,99142
100234,99144
100266,99134
100332,99148
100238,99147
100240,99114
100205,99100
100137,99056
100160,99049
100062,99027
100002,98957
99882,98957
99792,98844
99741,98873
99625,98810
99449,98730
99345,98666
99175,98590
99117,98549
98995,98510
98768,98386
98568,98293
98407,98244
98268,98178
98089,98065
97822,97991
97592,97853
97504,97835
97437,97792
97260,97712
97174,97642
97019,97609
96946,97567
96922,97569
96808,97551
96777,97504
96654,97507
96635,97446
96676,97505
96570,97462
96620,97517
96608,97495
96608,97500
96710,97523
96723,97559
96757,97596
96733,97568
96814,97601
96916,97626
96999,97676
96996,97702
97022,97690
97089,97692
97223,97750
97202,97796
97283,97785
97271,97815
97312,97846
97452,97922
97473,97869
97515,97944
97451,97908
97567,97958
97647,97982
97669,97993
97700,97995
97696,97999
97791,98059
97875,98068
97887,98128
97947,98118
97917,98112
97984,98123
98089,98187
98091,98177
98089,98183
98093,98175
98160,98209
98232,98257
98257,98255
98255,98262
98194,98234
98241,98256
98301,98249
98280,98230
98277,98265
98230,98230
98277,98225
98321,98265
98267,98242
98280,98254
98228,98218
98276,98257
98328,98253
98271,98239
98249,98226
98214,98214
98294,98260
98304,98235
98300,98269
98278,98248
98202,98206
98256,98267
98288,98229
98292,98238
98264,98228
98202,98236
98280,98222
98337,98276
98289,98216
98352,98257
98248,98243
98364,98266
98355,98291
98388,98297
98385,98324
98327,98318
98461,98339
98480,98362
98485,98380
98503,98334
98525,98351
98603,98395
98687,98412
98696,98417
98716,98476
98662,98407
98791,98506
98835,98486
98907,98496
98909,98552
98838,98506
98991,98576
99054,98583
99022,98575
99080,98584
99036,98632
99162,98630
99207,98679
99224,98669
99204,98679
99247,98678
99295,98708
99382,98765
99372,98777
99379,98736
99340,98723
99460,98808
99492,98814
99543,98814
99553,98812
99513,98810
99659,98849
99643,98884
99692,98903
99683,98870
99630,98887
99743,98906
99788,98927
99767,98965
99775,98928
99800,98901
99838,98952
99908,98986
99853,98985
99900,98968
99837,98946
99936,99019
99973,99009
99989,99027
99959,98975
99922,99032
100021,99028
100026,99029
100013,99046
100026,99010
100004,99020
100054,99043
100096,99056
100092,99067
100057,99082
100018,99032
100124,99082
100162,99085
100141,99090
100101,99091
100093,99042
100135,99123
100195,99117
100206,99105
100158,99108
100128,99115
100216,99087
100269,99158
100237,99131
100235,99136
100181,99122
100301,99146
100305,99189
100246,99118
100256,99151
100236,99173
100289,99148
100321,99138
100300,99199
100293,99136
100265,99130
100320,99191
100346,99166
100321,99195
100324,99147
100287,99181
100405,99208
100425,99207
100360,99197
100367,99186
100319,99217
100430,99184
100427,99276
100432,99199
100433,99223
100367,99218
100445,99214
100505,99283
100506,99247
100482,99253
100453,99268
100528,99227
100553,99277
100524,99257
100509,99259
100461,99272
100579,99260
100591,99303
100542,99258
100562,99312
100535,99263
100587,99315
100648,99331
100656,99305
100594,99332
100566,99269
100652,99332
100667,99315
100640,99296
100607,99323
100567,99253
100574,99300
100542,99265
100461,99205
100386,99157
100282,99152
100318,99104
100181,99086
100067,99013
99895,98945
99806,98899
99736,98868
99582,98784
99466,98710
99246,98631
99040,98548
98965,98499
98816,98424
98568,98303
98324,98229
98103,98122
97961,98035
97804,97945
97588,97866
97477,97798
97328,97768
97333,97708
97221,97677
97156,97653
97002,97637
96954,97564
96963,97595
96889,97574
96824,97572
96730,97531
96733,97591
96738,97557
96709,97569
96718,97576
96692,97572
96701,97616
96826,97627
96824,97614
96852,97631
96873,97651
96897,97677
97010,97678
97054,97722
97056,97698
97089,97714
97086,97742
97242,97784
97224,97836
97285,97800
97318,97854
97302,97826
97420,97834
97414,97882
97458,97877
97450,97916
97483,97874
97555,97925
97603,97976
97595,97923
97578,97949
97559,97940
97705,97987
97697,97979
97664,98012
97697,98012
97678,98023
97775,98012
97796,98016
97780,98027
97705,98041
97798,98037
97837,98062
97817,98014
97837,98061
97764,98047
97785,98049
97852,98027
97815,98080
97789,98010
97774,98049
97773,98020
97826,98026
97768,98016
97765,98036
97662,98016
97722,97982
97767,98023
97737,98018
97712,97992
97601,97963
97671,97962
97714,97995
97660,97965
97650,97964
97596,97942
97602,97939
97690,97970
97614,97989
97579,97951
97531,97935
97581,97989
97607,97949
97643,97955
97641,97992
97558,97983
97642,97964
97679,97988
97719,97982
97702,97981
97735,97994
97791,98052
97859,98082
97875,98053
97894,98093
97855,98086
97975,98133
98052,98167
98031,98131
98055,98195
98064,98169
98103,98223
98191,98202
98203,98230
98199,98240
98208,98257
98323,98295
98371,98327
98380,98308
98430,98321
98390,98334
98430,98366
98546,98373
98595,98426
98600,98394
98617,98423
98661,98449
98764,98474
98728,98476
98777,98500
98733,98504
98826,98546
98930,98566
98887,98545
98932,98548
98894,98588
98953,98541
99044,98615
99029,98613
99051,98589
98968,98627
99077,98614
99142,98670
99148,98668
99141,98649
99081,98645
99186,98696
99212,98672
99255,98706
99220,98715
99176,98692
99303,98740
99355,98735
99294,98764
99306,98699
99299,98740
99347,98740
99405,98771
99399,98747
99371,98785
99330,98726
99429,98760
99454,98781
99410,98800
99436,98756
99381,98806
99445,98752
99484,98820
99485,98817
99461,98768
99440,98781
99481,98794
99578,98831
99573,98856
99585,98850
99511,98815
99588,98880
99632,98848
99601,98856
99606,98876
99561,98833
99648,98911
99646,98880
99709,98921
99654,98889
99621,98885
99689,98898
99791,98920
99707,98942
99718,98899
99703,98925
99778,98927
99813,98943
99809,98962
99767,98947
99774,98923
99812,98955
99842,98954
99830,98980
99887,98952
99777,98984
99879,98979
99922,99012
99913,98979
99886,99011
99847,98961
99933,99008
99937,99016
99983,99024
99960,99015
99902,99030
99972,99026
100032,99031
99996,99092
100005,99035
99943,99046
100063,99037
100069,99085
100088,99051
100037,99094
100030,99068
100087,99113
100122,99091
100119,99071
100117,99113
100062,99122
100203,99123
100214,99130
100156,99113
100164,99133
100098,99088
100142,99112
100091,99060
100017,98989
99935,98991
99777,98945
99782,98887
99695,98875
99539,98801
99375,98730
99213,98688
99115,98577
98929,98485
98739,98420
98505,98318
98271,98225
98166,98162
97991,98069
97800,97983
97609,97904
97456,97833
97386,97760
97289,97708
97187,97685
97053,97617
96905,97578
96887,97543
96847,97502
96745,97479
96637,97460
96573,97453
96555,97464
96494,97406
96432,97462
96405,97413
96393,97399
96447,97463
96459,97414
96470,97474
96490,97492
96548,97517
96627,97561
96690,97506
96731,97602
96762,97599
96784,97608
96881,97673
96963,97661
96958,97685
97005,97724
97025,97723
97080,97754
97170,97713
97148,97801
97178,97784
97185,97795
97310,97818
97323,97853
97380,97878
97345,97890
97387,97868
97467,97935
97507,97900
97472,97954
97476,97936
97548,97985
97619,98000
97695,97976
97703,98005
97695,98029
97706,98009
97812,98070
97846,98070
97803,98046
97819,98068
97815,98056
97900,98095
97842,98073
97857,98095
97757,98056
97779,98065
97892,98056
97852,98098
97862,98039
97778,98061
97769,98064
97836,98074
97880,98069
97821,98048
97794,98064
97788,98095
97811,98035
97818,98047
97792,98063
97757,98046
97746,98064
97788,98021
97768,98040
97764,98033
97742,98021
97743,98024
97769,98062
97772,98003
97747,98063
97709,98047
97731,98057
97786,98054
97818,97994
97770,98065
97808,98050
97772,98045
97889,98085
97881,98113
97905,98105
97891,98108
97923,98102
97988,98138
98047,98173
98054,98137
98012,98179
98042,98174
98171,98173
98182,98222
98178,98235
98192,98265
98179,98285
98317,98254
98289,98248
98326,98289
98330,98300
98326,98284
98484,98334
98453,98379
98517,98348
98504,98386
98514,98392
98620,98418
98641,98395
98646,98467
98609,98460
98718,98499
98796,98512
98818,98495
98820,98535
98790,98497
98853,98573
98921,98549
98969,98563
98927,98593
98901,98622
99001,98604
99065,98631
99096,98611
99071,98647
99076,98652
99121,98633
99187,98681
99140,98649
99211,98677
99147,98696
99178,98705
99272,98681
99271,98731
99234,98692
99226,98712
99303,98777
99374,98717
99333,98775
99333,98738
99342,98763
99356,98776
99442,98790
99406,98787
99449,98797
99420,98830
99420,98766
99501,98790
99488,98830
99494,98806
99432,98816
99517,98823
99549,98818
99517,98826
99538,98840
99493,98834
99537,98829
99578,98849
99576,98860
99589,98845
99574,98880
99587,98842
99653,98858
99609,98901
99663,98879
99546,98863
99653,98877
99683,98872
99650,98918
99702,98930
99640,98892
99655,98942
99721,98909
99714,98920
99675,98919
99677,98907
99706,98924
99793,98929
99762,98944
99735,98929
99749,98919
99751,98976
99809,98947
99819,98958
99793,98961
99776,98975
99809,98939
99872,98966
99841,98972
99828,98986
99784,98974
99837,98980
99897,98964
99882,99028
99891,99011
99850,98996
99877,99002
99954,99054
99946,99007
99906,99018
99892,98999
99945,99034
100028,99028
99977,99052
99988,99040
99916,98983
100011,99077
100048,99076
100036,99071
100049,99035
99967,99088
100075,99044
100123,99111
100092,99028
100045,99057
99957,99039
100005,99014
99942,99021
99846,98960
99752,98921
99602,98864
99549,98810
99502,98750
99310,98692
99195,98605
98987,98538
98855,98502
98672,98362
98505,98302
98266,98205
98083,98115
97902,98061
97820,97964
97622,97879
97463,97821
97302,97776
97292,97703
97195,97629
97064,97600
96983,97575
96838,97527
96817,97506
96793,97467
96699,97441
96633,97433
96521,97418
96548,97410
96534,97398
96431,97410
96409,97419
96380,97417
96412,97430
96466,97421
96475,97424
96493,97461
96484,97477
96589,97499
96668,97544
96711,97544
96717,97589
96717,97575
96844,97608
96896,97623
96947,97645
96939,97690
96977,97674
97068,97707
97144,97725
97112,97758
97167,97798
97185,97780
97243,97811
97321,97817
97336,97865
97323,97852
97307,97907
97438,97831
97515,97893
97490,97894
97503,97951
97490,97932
97629,97953
97621,97996
97667,97949
97668,97986
97672,98011
97726,98036
97747,98025
97766,98058
97741,98035
97695,98035
97809,98030
97817,98079
97796,98002
97777,98052
97745,98023
97817,98061
97837,98069
97784,98003
97784,98032
97725,98012
97793,98016
97843,98039
97780,97997
97785,98025
97730,97997
97803,98042
97783,98032
97795,98030
97758,98042
97729,98015
97812,98014
97816,98063
97774,98002
97771,98022
97773,98022
97819,98089
97829,98038
97832,98074
97832,98045
97799,98037
97916,98103
97966,98072
97908,98130
97907,98102
97918,98077
98032,98153
98040,98150
98096,98205
98058,98177
98059,98155
98195,98219
98223,98254
98205,98209
98239,98255
98237,98263
98305,98322
98351,98283
98351,98299
98366,98307
98372,98310
98470,98369
98461,98335
98477,98367
98451,98393
98429,98384
98566,98418
98627,98414
98571,98392
98583,98408
98600,98430
98713,98450
98697,98453
98738,98500
98673,98488
98767,98463
98835,98521
98843,98539
98883,98543
98783,98526
98847,98532
98929,98576
98950,98558
98937,98577
98912,98581
98937,98596
99026,98605
99056,98618
99034,98591
98984,98602
99026,98608
99085,98662
99116,98621
99098,98681
99079,98638
99129,98647
99169,98644
99235,98707
99156,98657
99157,98663
99205,98700
99248,98700
99294,98726
99250,98723
99236,98693
99241,98759
99315,98747
99366,98733
99345,98761
99291,98728
99337,98761
99399,98782
99356,98789
99372,98785
99333,98737
99359,98770
99400,98780
99422,98775
99418,98805
99373,98773
99365,98752
99496,98795
99443,98820
99469,98791
99424,98792
99471,98805
99541,98839
99487,98811
99547,98825
99456,98824
99467,98832
99558,98842
99564,98815
99556,98846
99499,98860
99539,98820
99589,98844
99621,98853
99595,98863
99523,98844
99589,98861
99643,98896
99637,98857
99627,98881
99587,98848
99634,98885
99698,98909
99656,98893
99677,98893
99591,98878
99674,98896
99719,98892
99718,98935
99719,98921
99649,98895
99699,98897
99754,98929
99740,98941
99725,98932
99704,98922
99743,98942
99788,98941
99818,98972
99806,98951
99760,98933
99824,98956
99880,98991
99852,98989
99891,98978
99829,98986
99876,98969
99910,99007
99872,98997
99853,98946
99775,98954
99735,98898
99748,98898
99660,98865
99490,98810
99354,98707
99282,98701
99243,98630
99049,98561
98870,98486
98665,98399
98540,98339
98427,98277
98225,98190
98024,98099
97792,98024
97686,97915
97618,97859
97422,97808
97317,97737
97130,97695
97090,97638
97067,97601
96965,97567
96867,97551
96767,97525
96750,97498
96743,97478
96650,97466
96616,97451
96492,97433
96504,97445
96548,97452
96468,97452
96461,97433
96400,97427
96471,97470
96539,97467
96495,97449
96539,97485
96492,97486
96611,97509
96698,97534
96715,97557
96736,97574
96674,97581
96797,97605
96897,97601
96905,97671
96934,97671
96896,97673
96983,97696
97070,97700
97062,97728
97080,97751
97041,97739
97123,97756
97225,97762
97196,97763
97216,97810
97137,97770
97242,97824
97306,97814
97323,97838
97332,97832
97264,97873
97381,97847
97374,97873
97414,97908
97435,97887
97416,97897
97455,97906
97477,97898
97519,97922
97498,97923
97438,97922
97524,97928
97533,97934
97559,97912
97522,97926
97444,97885
97522,97946
97566,97923
97467,97892
97446,97889
97395,97899
97447,97866
97467,97890
97457,97879
97386,97880
97320,97830
97386,97878
97383,97842
97400,97834
97381,97814
97311,97870
97367,97855
97388,97853
97371,97885
97381,97844
97362,97866
97403,97842
97465,97891
97411,97874
97445,97883
97397,97907
97492,97892
97511,97935
97540,97935
97472,97930
97482,97912
97560,97942
97600,97939
97609,97914
97544,97976
97589,97986
97675,97990
97693,98008
97683,97980
97740,98034
97687,98063
97786,98057
97848,98043
97874,98102
97842,98087
97886,98109
97982,98112
97999,98147
98012,98174
97992,98140
97958,98134
98065,98173
98135,98202
98121,98175
98135,98216
98088,98212
98211,98205
98233,98247
98251,98272
98251,98275
98219,98286
98344,98310
98366,98340
98376,98348
98402,98333
98378,98369
98504,98382
98556,98394
98548,98406
98514,98397
98514,98424
98644,98420
98676,98445
98663,98459
98620,98459
98618,98463
98690,98462
98745,98470
98716,98460
98695,98480
98699,98482
98767,98515
98805,98492
98753,98499
98739,98513
98728,98516
98838,98540
98881,98521
98826,98535
98829,98556
98827,98560
98926,98581
98970,98572
98909,98565
98932,98581
98931,98583
99022,98631
99061,98633
99060,98641
99060,98653
99042,98647
99139,98654
99144,98678
99135,98666
99137,98657
99105,98706
99215,98691
99218,98710
99182,98694
99159,98706
99151,98689
99228,98687
99258,98722
99258,98725
99215,98730
99226,98725
99276,98730
99305,98711
99303,98729
99282,98759
99290,98760
99371,98773
99396,98779
99365,98765
99329,98787
99355,98778
99437,98820
99460,98820
99459,98808
99398,98808
99403,98805
99496,98823
99516,98840
99497,98832
99470,98850
99456,98845
99548,98864
99578,98840
99516,98844
99539,98878
99558,98880
99600,98873
99621,98898
99642,98896
99576,98892
99593,98910
99707,98895
99686,98908
99655,98934
99666,98911
99645,98903
99749,98914
99719,98936
99740,98950
99674,98938
99708,98966
99788,98928
99759,98941
99745,98929
99714,98943
99657,98922
99737,98928
99664,98901
99582,98867
99435,98810
99370,98791
99313,98714
99231,98649
99078,98603
98893,98528
98744,98489
98696,98417
98503,98316
98323,98276
98075,98171
97936,98077
97836,98028
97652,97945
97485,97860
97261,97789
97200,97719
97140,97700
97005,97605
96897,97542
96735,97523
96723,97477
96696,97456
96619,97427
96559,97409
96424,97423
96407,97378
96434,97370
96336,97391
96317,97397
96255,97356
96259,97400
96375,97399
96322,97427
96337,97383
96328,97405
96396,97478
96492,97455
96485,97447
96527,97506
96439,97519
96525,97527
96638,97519
96638,97533
96644,97568
96625,97557
96681,97545
96731,97570
96766,97575
96752,97612
96676,97583
96796,97644
96831,97633
96837,97653
96837,97614
96831,97641
96850,97669
96962,97675
96962,97672
96953,97718
96903,97673
97013,97757
97078,97726
97107,97715
97097,97769
97055,97744
97105,97794
97190,97772
97158,97749
97193,97779
97118,97781
97165,97782
97263,97797
97173,97825
97222,97773
97182,97831
97189,97800
97291,97811
97240,97815
97232,97848
97170,97792
97200,97836
97271,97813
97250,97823
97220,97803
97164,97850
97219,97768
97251,97831
97240,97795
97209,97764
97070,97792
97176,97795
97184,97771
97201,97772
97177,97788
97106,97769
97145,97826
97215,97777
97236,97792
97212,97804
97191,97827
97238,97805
97335,97825
97311,97831
97282,97878
97228,97814
97348,97874
97390,97859
97375,97844
97378,97872
97300,97908
97430,97902
97461,97894
97464,97914
97468,97914
97409,97933
97499,97945
97571,97947
97563,97968
97589,97979
97536,97980
97634,97995
97694,98000
97689,98012
97709,98041
97656,98063
97774,98054
97821,98066
97812,98078
97819,98098
97777,98107
97886,98082
97935,98129
97935,98128
97966,98130
97885,98141
97988,98157
98019,98172
98010,98154
98021,98170
97982,98173
98079,98204
98127,98179
98122,98231
98125,98205
98104,98237
98172,98247
98232,98274
98240,98239
98214,98281
98200,98274
98282,98269
98351,98299
98354,98312
98316,98318
98286,98325
98370,98336
98431,98343
98378,98340
98394,98350
98338,98333
98428,98368
98434,98331
98432,98358
98433,98358
98361,98351
98440,98359
98495,98372
98458,98360
98444,98362
98381,98376
98472,98386
98511,98364
98501,98404
98475,98388
98409,98391
98525,98386
98535,98370
98546,98401
98523,98386
98493,98403
98579,98401
98571,98398
98555,98405
98534,98395
98515,98439
98613,98418
98626,98436
98632,98449
98572,98426
98552,98450
98674,98452
98677,98463
98671,98465
98625,98456
98622,98471
98721,98462
98758,98501
98741,98497
98690,98491
98703,98495
98757,98495
98818,98499
98762,98511
98793,98524
98742,98514
98821,98508
98841,98524
98846,98540
98824,98531
98789,98534
98870,98541
98905,98555
98889,98557
98853,98556
98847,98550
98921,98561
98954,98589
98968,98581
98906,98569
98900,98606
99002,98591
99048,98617
99028,98623
98980,98597
98961,98612
99038,98618
99079,98636
99070,98629
99016,98624
99036,98646
99121,98663
99117,98676
99121,98674
99054,98668
99085,98677
99132,98668
99192,98684
99171,98661
99125,98695
99155,98689
99242,98730
99258,98720
99240,98726
99238,98745
99217,98743
99316,98744
99307,98736
99294,98750
99241,98730
99216,98715
99235,98685
99236,98682
99150,98654
99014,98620
98925,98562
98895,98517
98779,98466
98592,98367
98427,98322
98212,98249
98167,98167
97975,98065
97804,98005
97552,97930
97369,97849
97301,97752
97128,97689
96949,97583
96741,97522
96602,97457
96541,97385
96442,97340
96274,97262
96131,97211
96016,97178
96024,97162
95936,97123
95812,97119
95692,97077
95614,97045
95652,97065
95568,97026
95536,97028
95479,97007
95465,97025
95548,97002
95564,97034
95612,97034
95580,97081
95626,97092
95730,97112
95779,97126
95790,97167
95812,97168
95836,97191
95964,97234
95981,97239
96033,97278
96016,97260
96095,97303
96175,97310
96217,97356
96234,97364
96204,97360
96235,97360
96321,97381
96348,97386
96326,97396
96311,97400
96325,97414
96426,97434
96465,97436
96414,97461
96448,97459
96465,97466
96582,97513
96593,97512
96602,97500
96563,97548
96648,97544
96697,97558
96729,97560
96756,97585
96686,97606
96730,97607
96828,97593
96844,97632
96824,97625
96809,97600
96812,97637
96862,97623
96888,97656
96843,97652
96808,97637
96813,97604
96925,97628
96857,97634
96884,97653
96779,97664
96872,97626
96896,97629
96865,97612
96834,97637
96793,97583
96795,97638
96887,97628
96859,97631
96843,97619
96757,97618
96852,97652
96889,97627
96911,97622
96909,97663
96854,97622
96876,97667
96966,97668
96943,97691
96958,97641
96951,97694
97004,97748
97031,97711
97062,97697
97064,97711
97051,97779
97120,97742
97199,97740
97169,97813
97149,97769
97175,97766
97225,97795
97324,97833
97292,97810
97350,97840
97312,97842
97379,97879
97456,97900
97474,97904
97504,97941
97490,97929
97575,97982
97666,98004
97646,97973
97712,98011
97658,97992
97734,98059
97833,98039
97831,98031
97808,98082
97748,98080
97862,98090
97941,98114
97898,98114
97936,98092
97884,98147
97974,98129
98039,98169
98025,98165
98064,98198
98022,98196
98070,98189
98189,98225
98149,98262
98175,98237
98165,98233
98241,98294
98292,98281
98335,98295
98310,98318
98290,98319
98372,98353
98402,98311
98456,98379
98429,98357
98387,98329
98501,98363
98524,98423
98526,98371
98525,98405
98461,98412
98563,98408
98598,98407
98603,98440
98592,98441
98600,98456
98621,98429
98719,98469
98697,98439
98717,98478
98630,98484
98710,98510
98785,98495
98759,98494
98748,98471
98739,98538
98821,98515
98851,98547
98858,98533
98841,98514
98779,98572
98883,98547
98912,98567
98911,98588
98925,98548
98835,98611
98949,98607
99015,98575
99011,98616
99031,98640
98964,98627
99010,98636
99106,98658
99122,98642
99104,98675
99022,98615
99149,98678
99185,98668
99171,98679
99166,98702
99144,98655
99202,98697
99308,98697
99232,98729
99222,98719
99202,98743
99292,98733
99331,98727
99301,98768
99330,98750
99246,98788
99356,98783
99431,98771
99386,98786
99370,98787
99351,98815
99450,98814
99481,98812
99510,98825
99436,98852
99433,98828
99553,98853
99560,98839
99511,98867
99517,98826
99488,98888
99592,98865
99627,98877
99592,98908
99587,98870
99561,98921
99654,98911
99694,98933
99703,98922
99681,98930
99621,98896
99753,98927
99769,98962
99768,98964
99747,98971
99774,99012
99858,98978
99871,98999
99857,99036
99849,98993
99800,99005
99910,99014
99956,99038
99915,99076
99835,99009
99839,99038
99873,98995
99876,98976
99751,98938
99730,98904
99575,98911
99593,98842
99511,98808
99399,98786
99251,98678
99139,98696
99126,98628
99023,98560
98873,98512
98717,98435
98584,98377
98486,98354
98397,98221
98196,98199
98041,98104
97902,98045
97840,98021
97693,97922
97612,97938
97494,97856
97397,97801
97390,97821
97362,97737
97267,97773
97247,97746
97227,97737
97261,97715
97286,97745
97240,97728
97212,97743
97227,97775
97347,97753
97342,97780
97375,97791
97316,97797
97339,97823
97461,97864
97497,97860
97496,97920
97470,97917
97526,97916
97635,97955
97663,97960
97664,97953
97677,98022
97673,97969
97798,98016
97785,98046
97814,98026
97775,98038
97810,98093
97892,98086
97895,98097
97936,98064
97914,98136
97908,98116
98055,98127
98042,98145
98062,98166
98048,98142
98052,98203
98164,98192
98200,98245
98228,98212
98190,98235
98193,98245
98339,98255
98338,98300
98348,98309
98282,98273
98321,98326
98402,98314
98464,98304
98398,98339
98397,98315
98356,98293
98488,98316
98443,98344
98419,98337
98392,98314
98414,98327
98481,98309
98489,98300
98446,98312
98412,98293
98404,98313
98492,98334
98466,98321
98482,98318
98412,98363
98405,98304
98462,98338
98477,98318
98474,98312
98425,98352
98457,98306
98539,98341
98500,98326
98531,98315
98456,98367
98483,98317
98555,98349
98541,98359
98554,98367
98524,98370
98531,98342
98669,98374
98684,98420
98647,98409
98634,98423
98671,98425
98800,98433
98718,98413
98766,98448
98715,98452
98749,98443
98911,98496
98818,98458
98859,98495
98814,98527
98882,98489
98964,98534
98945,98500
98948,98525
98896,98529
98935,98536
99043,98570
99018,98522
99047,98566
98980,98597
99055,98572
99142,98603
99121,98615
99133,98610
99109,98630
99125,98633
99223,98636
99222,98639
99242,98679
99196,98665
99230,98676
99329,98681
99293,98708
99339,98718
99292,98713
99343,98694
99435,98758
99392,98727
99386,98743
99363,98723
99423,98765
99489,98768
99461,98790
99476,98768
99391,98742
99492,98797
99528,98784
99502,98772
99513,98773
99427,98760
99528,98776
99584,98819
99570,98786
99568,98819
99538,98785
99568,98821
99601,98826
99626,98839
99607,98843
99525,98827
99626,98819
99722,98879
99665,98816
99649,98831
99590,98832
99642,98865
99718,98829
99676,98899
99666,98859
99649,98855
99689,98844
99759,98900
99718,98897
99737,98884
99655,98901
99750,98873
99782,98912
99765,98901
99794,98868
99691,98911
99807,98899
99850,98911
99804,98907
99818,98943
99769,98870
99830,98940
99908,98968
99850,98911
99870,98936
99819,98936
99880,98912
99922,98956
99916,98972
99871,98962
99876,98946
99925,98941
99966,98969
99990,98983
99943,98978
99898,98937
99970,98955
100046,98999
99991,98961
100008,99009
99898,98992
100026,98997
100080,99054
100106,99048
100040,99014
100004,98995
100104,99050
100094,99043
100089,99055
100078,99051
100048,99016
100088,99039
100196,99055
100129,99087
100136,99069
100090,99029
100224,99091
100237,99111
100235,99112
100245,99084
100190,99093
100232,99119
100304,99105
100212,99134
100199,99066
100129,99011
100092,99048
100122,99002
99978,98976
99926,98906
99755,98890
99745,98838
99729,98826
99575,98782
99497,98731
99356,98666
99295,98632
99282,98554
99128,98568
99021,98498
98851,98440
98867,98376
98781,98346
98689,98330
98569,98274
98426,98210
98433,98239
98327,98143
98245,98140
98130,98079
98013,98032
98038,98014
97968,98031
97941,97961
97831,97960
97756,97929
97846,97911
97850,97969
97834,97898
97824,97932
97773,97929
97854,97960
97916,97951
97876,97925
97872,97956
97860,97930
97937,97998
98001,98000
97962,98003
98013,98023
97938,98049
98073,98013
98134,98068
98121,98048
98087,98086
98048,98091
98159,98075
98238,98113
98174,98067
98184,98123
98154,98135
98236,98123
98323,98142
98273,98109
98260,98170
98245,98184
98341,98179
98393,98185
98360,98168
98372,98195
98330,98219
98407,98193
98470,98236
98464,98219
98404,98241
98381,98241
98467,98200
98542,98260
98487,98239
98445,98225
98415,98206
98519,98248
98467,98250
98476,98225
98399,98210
98377,98191
98455,98224
98428,98217
98431,98206
98368,98192
98346,98165
98400,98163
98369,98177
98366,98187
98311,98151
98258,98147
98340,98126
98298,98158
98282,98150
98231,98124
98211,98137
98308,98117
98288,98142
98259,98090
98255,98134
98188,98116
98261,98111
98297,98127
98257,98128
98272,98108
98218,98154
98316,98127
98339,98154
98351,98124
98308,98172
98279,98123
98398,98160
98445,98183
98364,98187
98355,98154
98369,98172
98493,98187
98459,98209
98493,98239
98483,98231
98446,98237
98575,98261
98597,98232
98609,98287
98610,98297
98581,98291
98726,98297
98752,98338
98704,98330
98724,98355
98766,98350
98848,98384
98834,98354
98851,98384
98810,98406
98804,98421
98932,98378
98959,98439
98946,98434
98898,98443
98916,98420
99003,98477
99006,98421
99015,98451
98986,98482
98998,98492
99103,98506
99135,98516
99084,98498
99080,98506
99060,98535
99188,98517
99196,98578
99209,98572
99189,98533
99168,98569
99282,98561
99314,98558
99276,98579
99239,98571
99286,98613
99337,98629
99335,98579
99296,98619
99314,98615
99309,98596
99412,98631
99390,98613
99395,98655
99385,98672
99378,98657
99503,98642
99449,98654
99449,98652
99421,98661
99466,98694
99530,98705
99542,98670
99501,98695
99451,98697
99517,98689
99577,98676
99543,98717
99545,98717
99482,98707
99520,98742
99599,98699
99573,98686
99561,98723
99534,98700
99566,98737
99615,98730
99624,98759
99610,98767
99536,98740
99611,98757
99684,98751
99628,98734
99655,98760
99604,98764
99657,98784
99702,98798
99734,98754
99719,98790
99651,98782
99671,98778
99806,98769
99718,98830
99706,98801
99701,98791
99741,98824
99835,98841
99787,98783
99819,98814
99737,98821
99802,98858
99854,98825
99845,98810
99839,98833
99785,98839
99860,98851
99879,98848
99908,98835
99889,98823
99811,98893
99887,98877
99930,98851
99928,98905
99910,98837
99838,98888
99923,98898
99996,98883
99964,98892
100006,98910
99900,98912
99978,98915
100016,98896
99997,98935
99969,98881
99993,98958
100022,98906
100091,98947
100057,98953
100072,98941
99999,98953
100039,98925
100150,98909
100075,98958
100002,98909
99909,98872
99915,98871
99863,98803
99774,98775
99695,98736
99501,98713
99540,98669
99471,98634
99366,98545
99263,98505
99085,98460
99093,98441
98973,98363
98890,98313
98758,98260
98548,98221
98545,98177
98485,98152
98376,98071
98264,98044
98047,97976
98035,97941
97938,97902
97843,97877
97709,97797
97588,97754
97591,97733
97559,97693
97492,97662
97460,97694
97354,97693
97439,97631
97514,97657
97453,97639
97471,97668
97411,97694
97519,97705
97573,97711
97570,97735
97603,97738
97557,97764
97670,97770
