11111,11111
0,0
80339,82252
99266,108879
99288,108847
99312,108871
99350,108962
99355,108952
99390,108914
99393,108942
99417,108930
99473,108992
99469,108985
99510,108975
99470,108971
99527,108989
99499,108981
99549,108993
99538,109032
99504,108925
99549,108986
99581,109021
99511,108997
99533,108978
99492,108967
99479,108937
99533,108999
99519,108982
99481,108958
99437,108926
99476,108922
99463,108976
99446,108964
99452,108922
99378,108909
99417,108902
99401,108964
99420,108935
99438,108953
99434,108927
99425,108947
99495,108961
99452,109001
99447,108922
99490,108935
99483,108959
99513,109008
99511,108999
99571,108983
99498,108956
99580,108980
99583,109043
99609,109053
99604,109009
99622,108987
99634,109020
99634,109038
99644,109058
99687,109062
99639,108978
99706,109026
99681,109096
99706,109087
99717,109047
99712,109062
99725,109078
99746,109107
99712,109094
99738,109066
99717,109081
99756,109067
99788,109119
99777,109089
99811,109101
99780,109067
99824,109093
99822,109098
99825,109147
99820,109111
99876,109097
99888,109144
99895,109128
99895,109177
99955,109149
99910,109173
99939,109163
99996,109194
99999,109203
100004,109197
100002,109189
100010,109187
100062,109242
100062,109243
100042,109215
100054,109209
100067,109212
100075,109257
100092,109268
100078,109222
100085,109218
100059,109226
100102,109265
100055,109203
100053,109210
99938,109154
99927,109139
99826,109107
99795,109070
99652,109008
99545,108867
99460,108852
99328,108839
99185,108747
99066,108663
98947,108544
98883,108535
98728,108449
98645,108416
98505,108322
98418,108266
98341,108256
98263,108186
98197,108189
98158,108146
98069,108062
98065,108101
98430,108253
98884,108478
98907,108499
98919,108490
98885,108470
98930,108518
99486,108843
99471,108797
99478,108765
99544,108831
99955,109010
99911,109060
99909,109033
99950,109042
99982,109025
100033,109116
100043,109090
100089,109140
100061,109132
100064,109079
100177,109177
100155,109165
100202,109209
100204,109190
100171,109163
100230,109204
100229,109227
100213,109211
100161,109149
100132,109122
100110,109114
100096,109125
100027,109105
99924,108995
99837,108959
99788,108956
99660,108920
99578,108808
99522,108783
99406,108695
99316,108685
99208,108629
99133,108561
99012,108528
98912,108450
98905,108398
98835,108407
98768,108371
98699,108357
98601,108272
98635,108318
98564,108294
98561,108255
98572,108272
98556,108222
98613,108275
98588,108274
98605,108279
98629,108305
98663,108308
98720,108340
98713,108364
98735,108363
98801,108417
98814,108387
98894,108433
98942,108452
98956,108502
98990,108470
99030,108477
99046,108574
99118,108576
99177,108621
99163,108612
99219,108593
99261,108640
99316,108710
99317,108707
99325,108689
99403,108706
99448,108756
99487,108779
99535,108788
99548,108828
99565,108804
99627,108850
99681,108889
99724,108930
99730,108881
99756,108911
99794,108930
99824,108967
99839,108991
99860,108941
99880,108976
99905,109008
99897,109044
99916,109025
99886,109002
99938,108994
99937,109001
99957,109061
99944,109028
99952,109043
99929,108983
100000,109002
99970,109025
99984,109028
99962,108986
99962,108969
99955,109017
99987,109062
99962,109028
99966,109014
99950,108986
99948,109019
99986,109042
100006,109044
99955,109027
99973,108993
100032,109043
100029,109044
100022,109068
100040,109048
100030,109009
100081,109094
100098,109069
100079,109087
100103,109089
100109,109089
100128,109064
100169,109139
100207,109139
100154,109128
100212,109103
100254,109185
100238,109154
100302,109214
100310,109163
100328,109165
100329,109225
100366,109244
100412,109246
100407,109227
100425,109235
100471,109277
100487,109323
100497,109303
100470,109290
100486,109277
100537,109315
100538,109326
100594,109328
100563,109344
100535,109299
100627,109358
100668,109376
100650,109360
100638,109336
100627,109357
100652,109345
100699,109372
100694,109392
100673,109372
100638,109347
100716,109377
100705,109396
100707,109363
100694,109381
100731,109354
100764,109397
100779,109442
100811,109433
100812,109418
100820,109412
100840,109464
100823,109473
100855,109463
100864,109459
100871,109467
100871,109479
100926,109487
100918,109507
100869,109443
100915,109427
100911,109486
100918,109503
100869,109463
100853,109433
100804,109423
100755,109365
100718,109371
100676,109340
100570,109301
100457,109209
100423,109170
100329,109181
100205,109067
100115,109010
100031,108935
99933,108914
99798,108899
99694,108769
99629,108723
99537,108653
99466,108632
99404,108636
99304,108600
99274,108541
99237,108483
99211,108518
99176,108489
99157,108515
99131,108418
99136,108463
99153,108471
99167,108464
99147,108501
99136,108464
99205,108485
99176,108499
99215,108540
99260,108565
99257,108560
99282,108528
99373,108624
99341,108639
99426,108649
99417,108630
99465,108650
99514,108682
99582,108743
99583,108713
99580,108735
99674,108761
99709,108818
99770,108871
99776,108825
99820,108856
99848,108829
99875,108907
99921,108940
99960,108944
99979,108953
100023,108928
100067,109000
100094,109025
100154,109044
100153,109047
100153,109023
100230,109068
100231,109097
100239,109070
100221,109074
100228,109052
100270,109089
100287,109101
100270,109114
100272,109098
100289,109078
100297,109095
100316,109089
100335,109134
100293,109079
100310,109092
100366,109127
100352,109154
100306,109109
100344,109117
100328,109092
100344,109107
100316,109128
100357,109127
100348,109093
100332,109098
100355,109117
100345,109142
100310,109124
100330,109078
100330,109102
100354,109121
100373,109142
100347,109150
100340,109109
100390,109082
100366,109156
100413,109128
100424,109166
100417,109129
100419,109139
100482,109184
100524,109232
100504,109203
100491,109180
100547,109201
100610,109238
100612,109313
100624,109236
100640,109263
100640,109263
100692,109275
100706,109341
100751,109338
100749,109342
100752,109302
100836,109352
100845,109387
100833,109377
100856,109340
100874,109353
100877,109392
100913,109402
100893,109424
100892,109361
100946,109411
100929,109388
100961,109426
100915,109433
100941,109386
100937,109392
100971,109441
100982,109430
101008,109422
100982,109430
100970,109410
101043,109467
101035,109493
101039,109428
101070,109464
101077,109466
101123,109479
101093,109493
101154,109527
101088,109484
101158,109487
101160,109524
101182,109545
101189,109538
101193,109550
101184,109504
101248,109582
101249,109612
101271,109582
101262,109569
101261,109567
101335,109600
101324,109627
101344,109593
101351,109558
101326,109571
101341,109618
101374,109599
101318,109628
101303,109579
101285,109561
101300,109589
101241,109600
101175,109482
101133,109465
101032,109379
101021,109406
100950,109391
100869,109287
100740,109271
100658,109165
100605,109184
100531,109135
100403,109074
100304,109007
100186,108909
100125,108926
100015,108864
99966,108807
99865,108740
99784,108712
99764,108706
99704,108712
99626,108642
99574,108600
99580,108592
99600,108604
99578,108624
99510,108567
99561,108566
99534,108591
99517,108587
99578,108600
99527,108639
99540,108570
99573,108598
99598,108626
99596,108657
99644,108655
99659,108640
99645,108646
99733,108698
99764,108730
99771,108723
99778,108710
99845,108732
99893,108783
99914,108823
99963,108817
99964,108814
100007,108831
100056,108884
100086,108910
100104,108918
100118,108880
100190,108920
100236,108965
100226,108980
100256,108964
100301,108967
100283,109003
100345,109047
100398,109057
100384,109036
100405,109025
100438,109046
100500,109089
100508,109145
100516,109089
100536,109103
100511,109117
100558,109152
100595,109170
100570,109111
100569,109126
100583,109090
100573,109165
100604,109154
100583,109166
100571,109120
100593,109127
100581,109160
100604,109161
100598,109128
100597,109133
100580,109121
100609,109140
100595,109165
100571,109117
100592,109119
100588,109120
100613,109152
100610,109176
100639,109166
100591,109125
100630,109117
100620,109192
100610,109157
100665,109201
100605,109144
100640,109111
100656,109188
100667,109172
100707,109194
100680,109165
100718,109198
100751,109229
100785,109239
100786,109244
100788,109220
100859,109249
100889,109295
100905,109309
100915,109321
100930,109314
100978,109344
101040,109377
101016,109385
101065,109397
101093,109376
101131,109384
101183,109447
101209,109484
101193,109470
101213,109439
101270,109476
101333,109519
101270,109532
101319,109519
101337,109513
101363,109521
101404,109578
101439,109580
101402,109590
101443,109539
101486,109599
101515,109613
101569,109663
101541,109640
101577,109604
101599,109673
101654,109708
101678,109737
101675,109734
101690,109675
101697,109727
101749,109770
101782,109791
101768,109768
101783,109723
101821,109764
101838,109800
101820,109790
101847,109806
101849,109767
101828,109752
101889,109816
101891,109835
101890,109839
101849,109793
101885,109818
101900,109839
101952,109835
101921,109868
101893,109782
101976,109831
101960,109862
101954,109858
101954,109838
101934,109798
101931,109834
101918,109813
101889,109810
101817,109763
101802,109726
101712,109688
101672,109680
101614,109630
101540,109583
101418,109508
101324,109437
101222,109434
101183,109400
101027,109303
100932,109240
100846,109181
100779,109152
100727,109156
100601,109080
100521,109002
100432,109013
100375,108995
100335,108946
100251,108920
100210,108844
100198,108853
100212,108864
100141,108837
100177,108861
100125,108803
100146,108811
100132,108845
100136,108835
100116,108780
100154,108804
100176,108849
100172,108866
100185,108851
100205,108876
100208,108837
100269,108858
100294,108910
100301,108956
100326,108925
100343,108892
100346,108935
100426,108964
100440,109018
100457,109003
100453,108974
100524,109017
100559,109071
100552,109035
100606,109114
100612,109052
100661,109113
100689,109127
100711,109148
100748,109129
100758,109146
100796,109170
100856,109233
100867,109227
100866,109227
100855,109190
100927,109227
100895,109264
100922,109242
100927,109246
100908,109238
100912,109258
100940,109274
100970,109273
100914,109242
100922,109217
100942,109237
100935,109286
100941,109222
100903,109248
100892,109199
100913,109239
100883,109247
100879,109269
100882,109216
100886,109203
100864,109220
100898,109214
100923,109242
100883,109192
100874,109198
100846,109187
100909,109223
100884,109230
100861,109212
100873,109188
100866,109214
100894,109200
100922,109261
100900,109218
100921,109222
100907,109232
100958,109267
100988,109283
100969,109267
100972,109228
101044,109287
101064,109318
101069,109335
101089,109313
101125,109321
101152,109325
101180,109383
101192,109401
101229,109368
101231,109373
101241,109386
101299,109419
101314,109463
101312,109436
101309,109400
101317,109460
101349,109465
101398,109530
101405,109508
101399,109462
101442,109479
101446,109545
101511,109552
101489,109548
101540,109541
101577,109545
101634,109619
101608,109588
101625,109609
101629,109601
101661,109613
101718,109660
101717,109653
101756,109658
101743,109641
101788,109657
101814,109703
101837,109697
101862,109727
101815,109672
101885,109750
101905,109738
101911,109760
101903,109733
101937,109712
101942,109749
101975,109775
102014,109797
102014,109810
101993,109766
102067,109820
102055,109855
102086,109830
102065,109849
102105,109816
102131,109869
102122,109874
102171,109875
102145,109890
102121,109822
102182,109894
102170,109857
102177,109922
102151,109876
102174,109827
102171,109877
102178,109879
102153,109879
102113,109862
102093,109795
102083,109794
102047,109796
101977,109777
101865,109715
101823,109607
101726,109639
101651,109574
101571,109544
101478,109470
101339,109393
101278,109323
101221,109339
101072,109251
100949,109158
100878,109111
100777,109096
100741,109059
100606,109065
100552,108960
100468,108891
100453,108890
100470,108907
100365,108910
100345,108848
100283,108826
100285,108807
100311,108856
100262,108840
100263,108823
100221,108766
100266,108811
100316,108856
100299,108819
100342,108838
100303,108846
100333,108818
100401,108909
100428,108906
100449,108912
100421,108911
100472,108949
100488,108938
100554,108990
100534,108970
100580,108938
100615,109031
100621,109031
100653,109026
100661,109032
100703,109006
100737,109053
100738,109103
100773,109132
100776,109097
100817,109089
100881,109153
100930,109172
100914,109197
100940,109157
100961,109184
100972,109196
101004,109248
101056,109238
101048,109258
101034,109211
101103,109253
101062,109294
101099,109297
101085,109269
101045,109203
101123,109241
101086,109285
101069,109234
101079,109241
101020,109194
101032,109224
101038,109208
100968,109238
100954,109168
100922,109119
100941,109170
100951,109174
100891,109180
100877,109115
100840,109114
100875,109135
100839,109117
100853,109147
100809,109085
100849,109066
100821,109120
100812,109096
100816,109112
100804,109084
100817,109098
100832,109090
100852,109118
100821,109070
100849,109105
100801,109083
100884,109144
100873,109163
100904,109156
100878,109142
100864,109100
100926,109142
100957,109192
100949,109166
100977,109159
100969,109133
101015,109186
101035,109240
101049,109202
101051,109240
101026,109175
101079,109243
101113,109259
101089,109248
101129,109248
101125,109270
101169,109275
101191,109336
101173,109324
101182,109306
101218,109272
101223,109326
101293,109359
101284,109355
101327,109357
101315,109320
101390,109387
101378,109433
101415,109423
101368,109407
101392,109382
101448,109417
101491,109484
101458,109444
101498,109463
101501,109444
101526,109496
101558,109485
101559,109537
101560,109468
101590,109491
101629,109506
101613,109548
101632,109520
101654,109526
101671,109517
101710,109558
101706,109580
101730,109584
101733,109558
101714,109548
101780,109597
101791,109606
101791,109615
101780,109604
101769,109568
101852,109636
101869,109653
101847,109634
101875,109650
101874,109641
101901,109658
101940,109682
101932,109681
101910,109675
101948,109634
101937,109669
101973,109721
101926,109691
101934,109648
101899,109607
101887,109637
101882,109649
101774,109602
101745,109527
101676,109527
101623,109484
101537,109464
101443,109361
101380,109333
101250,109265
101160,109227
101109,109200
100933,109126
100824,109025
100757,108982
100635,108937
100568,108865
100452,108857
100331,108757
100227,108722
100190,108715
100136,108674
100074,108665
100001,108577
99974,108554
99966,108606
99919,108595
99899,108545
99893,108536
99886,108491
99913,108547
99886,108574
99880,108556
99940,108543
99904,108550
99951,108554
100004,108609
99985,108624
99991,108564
100017,108616
100056,108653
100097,108652
100114,108690
100103,108679
100153,108673
100215,108713
100191,108757
100234,108757
100256,108760
100305,108757
100325,108826
100357,108849
100411,108839
100421,108837
100485,108862
100534,108898
100556,108935
100577,108947
100587,108954
100630,108922
100653,108991
100677,109001
100710,108978
100719,109012
100699,108963
100768,109019
100753,109047
100735,109031
100793,109012
100763,109033
100793,109045
100821,109044
100809,109090
100811,109036
100761,109021
100771,109040
100808,109053
100762,109025
100759,109014
100730,108975
100742,109021
100695,109008
100709,108975
100677,108974
100625,108913
100679,108946
100659,108962
100656,108969
100604,108959
100602,108904
100642,108949
100592,108965
100615,108924
100622,108965
100598,108921
100636,108946
100680,108960
100639,108968
100645,108938
100620,108902
100691,108980
100665,108959
100662,109008
100679,108970
100704,108969
100723,109014
100753,109014
100748,109050
100751,108994
100770,109047
100799,109024
100846,109066
100843,109082
100847,109075
100830,109032
100897,109083
100895,109114
100950,109114
100922,109125
100976,109121
100939,109129
100987,109166
101013,109143
101017,109150
101058,109165
101100,109183
101111,109201
101112,109237
101100,109206
101161,109217
101193,109256
101216,109289
101241,109291
101224,109264
101288,109257
101345,109307
101354,109343
101383,109360
101338,109311
101421,109350
101430,109403
101490,109384
101481,109425
101489,109400
101533,109381
101565,109465
101597,109455
101590,109500
101589,109434
101657,109469
101681,109511
101659,109515
101732,109510
101662,109512
101744,109508
101775,109562
101825,109587
101844,109607
101840,109595
101832,109551
101890,109609
101954,109654
101934,109646
101881,109632
101959,109619
101985,109677
101971,109651
102018,109685
101992,109654
102002,109653
102001,109689
102030,109681
102002,109672
101999,109621
101979,109626
101969,109656
101937,109635
101892,109587
101846,109570
101742,109465
101737,109496
101628,109451
101568,109407
101412,109349
101312,109249
101218,109233
101119,109148
101027,109110
100845,109029
100770,108928
100627,108916
100511,108803
100423,108763
100276,108683
100158,108660
100072,108579
100008,108583
99901,108506
99844,108441
99774,108408
99747,108420
99695,108412
99659,108389
99600,108323
99613,108340
99589,108345
99619,108364
99599,108368
99608,108308
99594,108327
99653,108388
99678,108366
99689,108416
99653,108354
99703,108397
99765,108447
99785,108472
99763,108456
99821,108426
99823,108489
99869,108489
99906,108540
99895,108538
99943,108519
99991,108523
100020,108575
100026,108615
100011,108612
100079,108604
100089,108604
100108,108649
100193,108663
100170,108674
100189,108670
100218,108651
100283,108721
100262,108711
100315,108724
100276,108719
100306,108745
100386,108765
100376,108789
100392,108762
100362,108789
100421,108738
100408,108793
100424,108835
100387,108794
100384,108760
100388,108732
100395,108754
100384,108772
100355,108767
100333,108686
100288,108718
100310,108701
100282,108735
100241,108705
100223,108630
100226,108645
100174,108692
100178,108646
100175,108644
100141,108614
100105,108606
100098,108594
100097,108634
100049,108611
100062,108565
100053,108547
100036,108589
100037,108570
100023,108583
100000,108526
100000,108536
100070,108544
100033,108569
100008,108553
100005,108565
99987,108523
100038,108567
100028,108569
100040,108568
100012,108539
100039,108547
100094,108619
100060,108601
100070,108597
100031,108538
100072,108542
100066,108601
100099,108565
100104,108614
100085,108565
100114,108569
100113,108613
100133,108599
100113,108615
100124,108588
100136,108562
100145,108622
100131,108635
100161,108643
100132,108598
100183,108611
100192,108663
100240,108665
100190,108687
100191,108648
100219,108632
100264,108679
100274,108667
100290,108682
100286,108672
100279,108667
100322,108688
100327,108737
100349,108728
100348,108675
100406,108709
100377,108756
100418,108740
100445,108774
100369,108756
100442,108740
100474,108807
100476,108790
100486,108796
100500,108776
100463,108772
100561,108823
100513,108830
100531,108808
100576,108814
100546,108811
100609,108854
100569,108847
100583,108860
100569,108779
100612,108839
100582,108889
100595,108839
100561,108834
100581,108810
100541,108826
100568,108796
100551,108838
100484,108789
100464,108763
100438,108752
100428,108728
100287,108680
100232,108633
100104,108547
100031,108496
99976,108466
99820,108426
99707,108294
99556,108236
99413,108140
99348,108117
99198,108064
99031,107946
98932,107863
98818,107809
98725,107761
98584,107745
98477,107637
98405,107590
98310,107544
98259,107513
98216,107524
98186,107491
98141,107440
98106,107403
98119,107485
98100,107432
98103,107432
98099,107409
98083,107447
98075,107429
98139,107465
98107,107459
98129,107449
98149,107444
98234,107518
98210,107535
98263,107536
98288,107560
98348,107572
98381,107596
98415,107664
98434,107625
98481,107660
98548,107679
98545,107728
98653,107791
98623,107784
98659,107767
98669,107790
98751,107820
98803,107863
98834,107831
98820,107879
98889,107866
98957,107962
98996,107952
98988,107975
99024,107967
99114,107986
99108,108011
99149,108064
99124,108046
99153,108039
99199,108044
99202,108077
99218,108113
99232,108073
99211,108033
99181,108056
99222,108109
99200,108088
99145,108037
99143,108024
99120,107997
99146,108035
99109,108002
99052,107974
99054,107948
99022,107960
99017,107942
98995,107969
98981,107925
98932,107914
98884,107881
98935,107893
98927,107894
98872,107861
98854,107859
98855,107860
98873,107833
98831,107874
98843,107830
98820,107832
98812,107830
98881,107836
98875,107870
98845,107870
98850,107835
98843,107866
98903,107884
98939,107894
98927,107924
98930,107844
98961,107924
99030,107966
99039,107987
99021,107975
99079,107970
99096,107984
99154,108023
99162,108079
99144,108047
99193,108050
99184,108040
99258,108088
99270,108130
99300,108103
99297,108103
99358,108118
99385,108162
99418,108207
99455,108173
99432,108163
99488,108218
99510,108244
99526,108253
99555,108277
99545,108234
99610,108278
99627,108306
99662,108328
99696,108320
99691,108324
99777,108374
99782,108410
99811,108412
99846,108411
99869,108384
99922,108422
99960,108482
99989,108495
99993,108478
100012,108492
100048,108521
100104,108552
100138,108581
100085,108549
100114,108574
100178,108586
100221,108639
100246,108655
100267,108606
100272,108645
100336,108655
100350,108692
100423,108703
100389,108727
100424,108735
100427,108717
100494,108771
100504,108801
100505,108747
100507,108765
100514,108763
100593,108800
100561,108825
100529,108768
100534,108781
100511,108760
100517,108757
100513,108774
100411,108744
100364,108653
100289,108602
100264,108620
100140,108556
100041,108479
99932,108396
99811,108379
99730,108282
99593,108263
99448,108179
99271,108064
99201,108001
99084,107993
98991,107905
98850,107839
98733,107735
98625,107706
98569,107709
98495,107643
98398,107572
98302,107532
98291,107512
98250,107524
98157,107468
98178,107452
98138,107387
98098,107416
98141,107456
98072,107432
98098,107442
98045,107383
98130,107400
98120,107451
98133,107456
98130,107467
98139,107410
98191,107435
98175,107507
98201,107499
98217,107512
98269,107475
98260,107544
98314,107518
98338,107588
98350,107554
98370,107524
98382,107585
98439,107627
98497,107666
98476,107670
98514,107650
98585,107714
98625,107738
98670,107732
98711,107787
98711,107738
98750,107795
98805,107813
98821,107864
98843,107859
98842,107840
98881,107838
98908,107898
98943,107908
98925,107868
98944,107862
98991,107907
98994,107921
98970,107944
98996,107912
98978,107862
99003,107935
98984,107889
98999,107930
98960,107907
98916,107878
98907,107861
98938,107894
98860,107838
98882,107857
98815,107801
98773,107767
98781,107804
98712,107783
98693,107756
98638,107689
98605,107686
98582,107688
98522,107638
98441,107620
98382,107524
98391,107526
98371,107546
98304,107559
98248,107527
98223,107448
98286,107459
98234,107475
98191,107473
98196,107458
98129,107411
98152,107413
98151,107411
98142,107437
98083,107371
98078,107352
98055,107364
98062,107354
98065,107360
97977,107335
97995,107288
98000,107323
98033,107319
98054,107370
98001,107373
98032,107306
98113,107389
98112,107386
98148,107409
98168,107410
98156,107392
98233,107418
98260,107457
98245,107467
98274,107494
98282,107464
98306,107502
98339,107505
98379,107539
98374,107515
98380,107507
98415,107574
98441,107582
98468,107587
98511,107588
98494,107578
98520,107601
98576,107663
98588,107678
98625,107660
98631,107655
98677,107679
98708,107687
98774,107738
98755,107770
98770,107719
98819,107763
98881,107808
98904,107812
98929,107851
98914,107800
98924,107824
98979,107870
98934,107858
98969,107887
98949,107817
99012,107849
99002,107904
99003,107889
99005,107906
99006,107844
98995,107910
99013,107893
99037,107890
99035,107879
98989,107855
99009,107855
99030,107878
98921,107867
98871,107793
98835,107756
98767,107715
98713,107684
98593,107651
98478,107573
98356,107497
98281,107456
98193,107363
98051,107329
97921,107250
97799,107155
97714,107082
97598,107080
97483,106999
97391,106950
97259,106857
97208,106847
97187,106834
97124,106773
97038,106729
96983,106711
96973,106681
96947,106739
96911,106680
96923,106690
96945,106656
96929,106674
96946,106708
96915,106700
96970,106729
96970,106701
96983,106742
97023,106743
97002,106784
97028,106745
97062,106727
97103,106786
97126,106814
97193,106886
97175,106838
97221,106832
97309,106924
97359,106948
97409,106981
97420,106969
97478,106976
97548,107068
97581,107075
97604,107115
97662,107135
97666,107093
97743,107169
97744,107166
97767,107210
97794,107180
97810,107188
97841,107196
97830,107230
97839,107250
97847,107231
97843,107191
97907,107242
97906,107262
97906,107277
97871,107236
97898,107204
97900,107244
97935,107285
97946,107251
97938,107255
97875,107203
97931,107221
97906,107241
97926,107258
97873,107218
97860,107173
97889,107242
97870,107207
97866,107225
97795,107171
97782,107146
97797,107170
97751,107168
97743,107126
97715,107113
97706,107105
97697,107139
97661,107121
97673,107094
97616,107087
97613,107027
97627,107071
97613,107070
97650,107054
97581,107087
97585,107015
97639,107089
97656,107097
97620,107099
97666,107089
97648,107082
97713,107100
97715,107117
97740,107160
97710,107148
97764,107146
97849,107193
97852,107223
97890,107229
97904,107235
97904,107198
97996,107263
97972,107305
98020,107307
98006,107320
98048,107293
98095,107319
98117,107359
98140,107367
98135,107349
98118,107324
98149,107355
98190,107406
98127,107383
98136,107358
98154,107366
98170,107342
98221,107406
98227,107410
98201,107404
98234,107430
98295,107457
98340,107473
98339,107483
98346,107449
98382,107461
98379,107510
98409,107509
98396,107513
98406,107510
98402,107499
98399,107489
98450,107536
98407,107526
98425,107512
98385,107475
98449,107549
98419,107539
98479,107552
98460,107537
98489,107542
98518,107565
98551,107596
98576,107612
98555,107587
98581,107595
98609,107614
98608,107636
98617,107651
98568,107608
98544,107555
98548,107575
98457,107558
98445,107516
98353,107444
98215,107364
98155,107350
98055,107279
97893,107214
97782,107137
97654,107046
97545,106975
97411,106918
97296,106833
97125,106768
97059,106714
96986,106674
96857,106655
96791,106536
96722,106531
96614,106457
96612,106454
96522,106420
96467,106369
96400,106337
96353,106279
96270,106258
96256,106265
96164,106226
96118,106208
96027,106151
96004,106127
95959,106114
95930,106085
95803,106026
95789,105964
95835,106033
95794,106030
95737,105985
95767,105941
95776,105984
95790,105983
95831,106010
95817,106015
95833,106010
95854,106015
95918,106044
95937,106095
96004,106101
95985,106106
95995,106135
96071,106148
96087,106190
96091,106194
96120,106168
96166,106180
96181,106230
96209,106265
96248,106277
96285,106250
96310,106285
96395,106322
96427,106389
96442,106405
96486,106377
96556,106425
96574,106426
96654,106503
96651,106515
96689,106476
96680,106494
96751,106524
96755,106569
96756,106539
96746,106564
96675,106492
96718,106529
96673,106529
96639,106512
96627,106462
96566,106417
96594,106462
96578,106442
96524,106393
96507,106386
96429,106342
96448,106404
96427,106368
96387,106339
96390,106305
96392,106334
96412,106358
96415,106367
96421,106350
96440,106335
96430,106333
96534,106421
96573,106441
96558,106428
96620,106433
96647,106477
96654,106458
96725,106530
96731,106550
96728,106523
96722,106521
96730,106545
96757,106543
96733,106580
96763,106549
96769,106530
96811,106616
96824,106605
96903,106625
96883,106653
96900,106642
97032,106718
97024,106721
97040,106751
97048,106710
97098,106747
97162,106788
97161,106805
97184,106792
97191,106781
97138,106759
97217,106810
97180,106824
97188,106824
97191,106804
97167,106817
97194,106782
97239,106852
97214,106837
97214,106813
97239,106793
97306,106865
97283,106907
97341,106861
97341,106877
97330,106877
97421,106897
97439,106945
97424,106956
97473,106936
97478,106948
97491,107010
97544,107038
97560,107027
97521,106987
97567,106969
97578,107026
97608,107052
97600,107049
97568,107048
97566,106994
97621,107052
97596,107040
97631,107039
97573,107003
97630,107013
97609,107068
97586,107026
97566,107010
97534,106982
97501,106944
97437,106967
97348,106884
97290,106860
97146,106789
97077,106706
97007,106693
96894,106607
96804,106552
96637,106474
96542,106386
96443,106388
96370,106364
96267,106251
96157,106200
96029,106102
96028,106117
95976,106063
95902,106044
95844,105999
95848,106002
95813,106018
95865,106021
95825,106019
95854,106007
95842,106034
95944,106038
95966,106116
95989,106112
96045,106126
96039,106135
96141,106191
96192,106237
96178,106204
96249,106252
96266,106248
96319,106339
96390,106354
96369,106382
96378,106318
96435,106367
96469,106391
96464,106418
96527,106436
96478,106394
96502,106401
96515,106458
96538,106442
96545,106467
96526,106422
96581,106449
96570,106465
96610,106532
96593,106506
96618,106459
96604,106475
96643,106514
96650,106498
96656,106541
96658,106477
96653,106508
96631,106514
96679,106510
96686,106559
96709,106546
96733,106527
96755,106552
96796,106567
96790,106598
96805,106566
96833,106577
96849,106617
96845,106613
96878,106596
96876,106605
96836,106592
96838,106609
96868,106619
96805,106593
96817,106559
96780,106585
96783,106594
96806,106570
96772,106564
96708,106529
96750,106527
96734,106541
96757,106555
96764,106535
96717,106510
96722,106540
96737,106527
96781,106557
96735,106542
96726,106507
96756,106509
96724,106533
96763,106521
96715,106573
96711,106511
96700,106517
96738,106542
96746,106531
96678,106529
96658,106467
96664,106500
96699,106520
96700,106511
96674,106482
96654,106509
96659,106456
96736,106528
96741,106526
96702,106532
96723,106511
96792,106547
96775,106579
96812,106568
96781,106595
96809,106564
96819,106544
96883,106622
96828,106597
96883,106605
96837,106567
96884,106581
96842,106601
96909,106628
96893,106649
96902,106600
96931,106597
97009,106671
97020,106709
97022,106711
97074,106698
97072,106697
97142,106762
97154,106793
97153,106746
97176,106741
97170,106778
97235,106816
97184,106809
97260,106839
97248,106826
97257,106772
97287,106849
97249,106814
97232,106811
97212,106742
97151,106738
97159,106745
97088,106754
97036,106691
96942,106635
96912,106605
96839,106570
96770,106516
96681,106457
96557,106401
96463,106371
96430,106344
96326,106271
96269,106204
96170,106164
96086,106085
96041,106104
95952,106070
95878,105999
95877,105954
95771,105924
95756,105931
95742,105951
95730,105894
95649,105884
95672,105855
95717,105907
95680,105889
95699,105918
95693,105875
95763,105901
95803,105975
95824,105950
95887,106009
95920,106022
95951,106016
96043,106123
96047,106140
96079,106109
96120,106137
96160,106123
96193,106214
96230,106217
96209,106223
96232,106164
96259,106230
96300,106257
96314,106260
96375,106277
96321,106282
96383,106274
96445,106345
96479,106357
96495,106386
96486,106377
96603,106387
96603,106430
96601,106469
96627,106448
96603,106433
96681,106436
96674,106505
96662,106451
96699,106481
96665,106425
96657,106482
96680,106462
96676,106457
96668,106476
96649,106442
96645,106446
96656,106464
96660,106462
96662,106450
96649,106446
96646,106446
96653,106458
96666,106481
96620,106443
96606,106380
96624,106422
96648,106441
96605,106450
96628,106413
96541,106393
96562,106364
96566,106420
96528,106365
96507,106361
96502,106338
96482,106318
96542,106377
96504,106395
96478,106352
96478,106317
96462,106315
96518,106357
96469,106353
96477,106348
96478,106314
96460,106306
96513,106341
96498,106349
96490,106383
96492,106299
96497,106374
96533,106391
96596,106433
96593,106439
96615,106381
96658,106442
96712,106478
96752,106506
96776,106515
96748,106464
96801,106508
96842,106563
96860,106566
96867,106540
96812,106508
96887,106553
96922,106576
96914,106590
96930,106603
96927,106598
96931,106603
96992,106613
97023,106687
97053,106662
97064,106662
97096,106693
97157,106724
97160,106742
97210,106779
97221,106730
97237,106757
97296,106794
97326,106841
97297,106795
97298,106801
97334,106800
97335,106825
97364,106827
97308,106805
97290,106798
97288,106783
97311,106806
97289,106776
97265,106774
97190,106726
97145,106673
97133,106694
97041,106637
96975,106622
96909,106518
96840,106480
96789,106487
96674,106451
96633,106378
96508,106305
96467,106304
96426,106288
96342,106223
96300,106165
96256,106166
96219,106128
96211,106133
96183,106110
96187,106117
96138,106106
96179,106117
96204,106140
96188,106155
96199,106145
96226,106180
96267,106164
96288,106220
96361,106245
96333,106230
96380,106239
96445,106258
96488,106338
96501,106371
96530,106358
96547,106305
96584,106391
96603,106404
96608,106423
96604,106410
96611,106404
96654,106416
96621,106419
96668,106425
96678,106454
96612,106357
96664,106403
96715,106483
96731,106447
96747,106463
96732,106457
96776,106497
96790,106524
96812,106504
96873,106534
96836,106512
96846,106546
96918,106563
96920,106577
96910,106531
96930,106581
96978,106582
96961,106596
97008,106637
96962,106618
96985,106556
97013,106590
97000,106624
97023,106641
96982,106613
96951,106566
96968,106603
96995,106605
96986,106609
96925,106592
96939,106521
96927,106523
96952,106543
96912,106564
96909,106516
96879,106535
96897,106519
96923,106534
96931,106571
96856,106520
96874,106485
96887,106498
96891,106552
96843,106492
96861,106493
96792,106435
96840,106457
96769,106496
96780,106468
96751,106481
96718,106408
96695,106426
96704,106403
96701,106463
96671,106394
96655,106377
96671,106392
96664,106406
96629,106398
96619,106362
96621,106355
96640,106381
96638,106374
96667,106384
96626,106361
96602,106357
96642,106321
96628,106342
96625,106379
96606,106349
96586,106339
96608,106333
96631,106364
96606,106385
96611,106365
96586,106316
96636,106370
96628,106362
96670,106386
96668,106380
96667,106343
96653,106369
96724,106405
96702,106440
96687,106387
96717,106362
96732,106372
96705,106417
96733,106426
96729,106402
96686,106364
96710,106398
96738,106414
96746,106426
96740,106432
96723,106364
96730,106410
96719,106395
96645,106378
96588,106290
96515,106272
96425,106207
96338,106169
96202,106116
96072,106007
95908,105882
95801,105824
95661,105806
95527,105673
95400,105617
95259,105488
95168,105427
95059,105413
94929,105325
94849,105281
94754,105172
94735,105188
94654,105172
94587,105103
94533,105043
94445,105008
94467,105011
94451,105012
94374,104982
94339,104937
94358,104929
94329,104917
94369,104959
94382,104953
94368,104989
94415,104943
94505,105027
94504,105037
94565,105071
94581,105111
94646,105105
94715,105143
94720,105178
94768,105198
94798,105216
94748,105188
94776,105163
94796,105250
94751,105201
94764,105197
94745,105197
94728,105174
94754,105176
94720,105196
94659,105144
94697,105126
94741,105170
94766,105199
94761,105230
94733,105179
94787,105182
94802,105215
94810,105239
94859,105246
94838,105246
94817,105172
94895,105249
94894,105270
94926,105278
94900,105269
94925,105257
94965,105316
95001,105304
94975,105321
94994,105359
95020,105298
95037,105339
95035,105352
95064,105350
95078,105332
95053,105335
95041,105344
95056,105373
94985,105317
94978,105265
94938,105262
94900,105270
94862,105264
94837,105218
94830,105222
94730,105151
94754,105172
94738,105173
94748,105144
94683,105155
94688,105101
94764,105157
94751,105167
94792,105204
94768,105165
94818,105184
94833,105230
94886,105224
94924,105278
94928,105273
94969,105278
95001,105315
95061,105321
95078,105374
95081,105351
95115,105334
95138,105369
95190,105423
95239,105434
95207,105457
95185,105406
95263,105436
95251,105477
95270,105481
95264,105433
95250,105435
95213,105410
95211,105438
95202,105419
95106,105380
95094,105327
95120,105380
95104,105352
95136,105366
95100,105360
95167,105354
95224,105448
95267,105425
95321,105484
95367,105498
95377,105478
95483,105566
95468,105565
95546,105600
95559,105616
95599,105627
95627,105648
95656,105668
95638,105711
95645,105641
95658,105638
95688,105671
95682,105673
95714,105716
95669,105702
95676,105649
95745,105710
95674,105710
95714,105722
95645,105651
95676,105641
95642,105680
95593,105643
95535,105622
95468,105530
95401,105494
95302,105453
95258,105403
95154,105351
95018,105272
94930,105229
94858,105157
94749,105115
94685,105084
94575,104983
94458,104920
94411,104891
94342,104896
94263,104816
94260,104786
94220,104751
94180,104773
94203,104766
94161,104757
94216,104743
94166,104756
94240,104768
94224,104791
94283,104834
94253,104799
94291,104809
94317,104890
94367,104910
94334,104873
94349,104872
94382,104835
94406,104877
94412,104907
94428,104921
94414,104915
94433,104907
94419,104918
94505,104936
94493,104966
94507,104956
94529,104942
94542,104983
94590,105029
94607,105043
94611,105012
94672,105015
94729,105081
94765,105095
94837,105153
94830,105172
94879,105149
94967,105207
94970,105243
95015,105268
94993,105217
95051,105259
95061,105304
95092,105319
95140,105314
95108,105328
95108,105300
95188,105381
95173,105352
95206,105391
95184,105348
95181,105346
95246,105396
95224,105428
95199,105352
95221,105370
95217,105336
95183,105368
95195,105378
95166,105373
95139,105302
95094,105288
95128,105312
95137,105304
95120,105306
95068,105298
95110,105267
95147,105321
95129,105356
95140,105331
95139,105312
95187,105345
95203,105375
95263,105402
95238,105394
95298,105400
95298,105416
95336,105420
95363,105457
95379,105473
95371,105438
95373,105466
95379,105442
95444,105515
95405,105489
95447,105472
95435,105440
95428,105484
95465,105517
95463,105522
95445,105503
95471,105471
95473,105500
95468,105545
95481,105528
95454,105502
95455,105499
95493,105521
95476,105530
95475,105520
95452,105502
95484,105500
95490,105527
95482,105549
95492,105548
95440,105486
95461,105494
95493,105503
95447,105526
95416,105507
95414,105471
95420,105456
95424,105459
95416,105485
95385,105472
95364,105406
95321,105369
95339,105425
95357,105416
95289,105416
95302,105389
95286,105381
95345,105382
95311,105426
95341,105439
95331,105389
95364,105398
95407,105444
95420,105502
95451,105474
95479,105467
95456,105464
95516,105477
95520,105501
95512,105522
95546,105515
95489,105474
95538,105489
95554,105549
95524,105525
95533,105528
95511,105491
95610,105533
95605,105561
95627,105568
95609,105551
95607,105558
95649,105557
95661,105576
95653,105571
95602,105548
95536,105473
95580,105519
95487,105467
95406,105434
95340,105374
95213,105292
95128,105286
95047,105202
94938,105134
94833,105103
94739,105003
94672,104966
94576,104929
94543,104884
94412,104799
94346,104742
94340,104789
94303,104740
94243,104706
94193,104672
94167,104639
94139,104655
94107,104645
94086,104628
94000,104570
93967,104530
93973,104537
93928,104507
93831,104488
93812,104435
93758,104423
93731,104358
93703,104371
93695,104364
93640,104319
93670,104344
93703,104340
93707,104390
93763,104416
93752,104394
93781,104365
93840,104484
93844,104492
93840,104462
93849,104445
93847,104441
93827,104422
93818,104447
93794,104415
93732,104384
93647,104334
93648,104302
93617,104350
93555,104269
93515,104259
93489,104217
93510,104251
93483,104264
93491,104210
93460,104224
93486,104212
93518,104256
93512,104246
93570,104249
93522,104269
93541,104225
93582,104285
93572,104269
93591,104250
93548,104229
93520,104226
93511,104213
93532,104226
93523,104224
93439,104177
93459,104159
93485,104225
93464,104186
93477,104176
93471,104195
93479,104169
93554,104216
93581,104295
93601,104278
93644,104263
93676,104281
93722,104338
93780,104367
93835,104413
93848,104372
93914,104442
93929,104479
93990,104480
93974,104529
94056,104510
94052,104515
94072,104599
94082,104579
94124,104572
94143,104596
94142,104586
94165,104616
94168,104604
94194,104635
94143,104574
94157,104574
94173,104621
94187,104618
94157,104606
94128,104576
94132,104563
94167,104608
94130,104612
94174,104582
94109,104567
94165,104589
94183,104598
94177,104614
94199,104598
94137,104599
94167,104595
94203,104599
94205,104627
94148,104610
94146,104567
94089,104554
94142,104569
94097,104551
94108,104574
93992,104494
93999,104480
94002,104516
93970,104486
93915,104432
93912,104414
93889,104422
93884,104406
93875,104443
93852,104395
93795,104340
93816,104358
93762,104338
93743,104331
93724,104317
93690,104281
93646,104282
93654,104246
93666,104286
93598,104292
93578,104228
93599,104215
93594,104211
93641,104243
93567,104236
93588,104198
93605,104206
93597,104218
93580,104190
93598,104220
93535,104196
93538,104149
93591,104204
93529,104188
93474,104150
93458,104102
93472,104153
93425,104101
93416,104126
93418,104098
93394,104088
93389,104055
93473,104127
93416,104127
93429,104136
93437,104136
93489,104088
93508,104124
93567,104149
93574,104208
93585,104178
93578,104174
93641,104260
93664,104254
93721,104259
93687,104256
93728,104235
93737,104272
93732,104304
93754,104261
93719,104280
93720,104217
93754,104282
93756,104288
93715,104257
93688,104196
93593,104183
93573,104158
93557,104137
93455,104111
93356,104005
93325,103964
93253,103963
93211,103906
93115,103872
93008,103783
92965,103740
92870,103732
92850,103655
92846,103685
92754,103627
92734,103563
92692,103591
92713,103565
92655,103576
92636,103494
92644,103488
92634,103534
92646,103542
92661,103511
92668,103530
92674,103542
92719,103578
92779,103617
92771,103639
92762,103589
92805,103579
92844,103699
92885,103664
92897,103691
92905,103685
92982,103741
92984,103715
93048,103783
93046,103807
93082,103807
93115,103819
93188,103885
93187,103880
93277,103933
93265,103889
93325,103897
93346,103958
93386,103998
93333,103953
93370,103966
93341,103954
93366,104010
93377,103974
93334,103963
93338,103938
93281,103941
93326,103959
93273,103962
93253,103956
93217,103876
93295,103901
93258,103920
93284,103947
93235,103895
93225,103870
93201,103865
93206,103885
93211,103892
93212,103890
93183,103846
93183,103857
93202,103869
93192,103879
93173,103833
93163,103829
93155,103818
93151,103856
93145,103825
93118,103825
93083,103796
93061,103765
93058,103760
92999,103745
92990,103710
92954,103683
92908,103665
92944,103698
92911,103673
92886,103630
92853,103634
92780,103645
92792,103633
92787,103588
92731,103577
92750,103554
92758,103558
92770,103562
92750,103596
92707,103556
92680,103520
92695,103513
92679,103547
92658,103511
92675,103525
92626,103467
92610,103489
92620,103483
92667,103480
92618,103513
92618,103464
92666,103506
92710,103498
92740,103545
92754,103579
92792,103541
92868,103586
92891,103646
92924,103646
92973,103677
92998,103670
93020,103700
93087,103763
93117,103763
93156,103760
93153,103769
93144,103787
93229,103825
93211,103845
93202,103822
93171,103761
93229,103819
93218,103809
93218,103833
93219,103826
93196,103804
93194,103778
93209,103815
93232,103816
93196,103787
93199,103781
93174,103761
93169,103820
93191,103799
93148,103786
93161,103766
93132,103738
93126,103753
93158,103783
93131,103769
93135,103720
93150,103757
93196,103794
93185,103800
93184,103815
93186,103740
93264,103795
93268,103815
93292,103858
93250,103829
93266,103774
93264,103814
93285,103839
93274,103801
93246,103807
93208,103758
93225,103793
93252,103793
93210,103794
93235,103766
93197,103761
93215,103735
93268,103811
93310,103841
93298,103853
93334,103842
93388,103880
93437,103913
93480,103949
93519,103952
93508,103915
93570,103974
93605,103981
93592,104005
93592,104018
93602,103975
93581,103985
93597,104010
93608,103991
93538,103987
93541,103946
93522,103908
93473,103885
93438,103896
93360,103851
93234,103760
93186,103729
93138,103709
93055,103644
92934,103596
92813,103478
92740,103429
92624,103402
92501,103337
92403,103247
92278,103128
92153,103047
92068,103023
91974,102997
91814,102889
91746,102789
91658,102758
91576,102697
91558,102686
91413,102596
91372,102536
91384,102544
91313,102526
91282,102482
91281,102486
91214,102408
91157,102369
91157,102405
91118,102382
91063,102334
91018,102301
90972,102288
90946,102289
90859,102214
90831,102221
90778,102145
90801,102144
90769,102180
90763,102111
90763,102176
90782,102124
90799,102157
90824,102168
90861,102179
90850,102198
90854,102144
90904,102160
90882,102194
90917,102219
90895,102182
90873,102157
90902,102183
90927,102215
90899,102218
90899,102195
90919,102181
90961,102206
91022,102240
90976,102252
90985,102254
90989,102199
91064,102284
91060,102308
91091,102327
91068,102283
91073,102288
91135,102289
91149,102339
91145,102348
91160,102322
91132,102307
91160,102338
91183,102356
91196,102363
91213,102385
91183,102356
91232,102355
91284,102390
91299,102440
91290,102412
91321,102400
91364,102468
91401,102480
91406,102519
91476,102511
91444,102478
91475,102495
91514,102546
91486,102542
91485,102518
91482,102493
91493,102503
91520,102557
91498,102569
91534,102531
91528,102536
91544,102557
91608,102607
91597,102630
91619,102598
91595,102590
91637,102618
91640,102647
91672,102613
91663,102654
91627,102606
91610,102576
91646,102649
91646,102623
91610,102605
91609,102561
91640,102603
91642,102659
91668,102650
91682,102627
91651,102591
91712,102615
91746,102671
91740,102681
91759,102682
91773,102671
91799,102674
91862,102728
91825,102717
91868,102730
91841,102721
91900,102754
91891,102777
91878,102773
91885,102747
91863,102703
91844,102754
91876,102748
91856,102725
91866,102732
91833,102720
91871,102723
91881,102733
91893,102753
91865,102736
91869,102705
91935,102768
91954,102785
91954,102817
91981,102779
91943,102755
91976,102793
91990,102805
92015,102810
92013,102801
92006,102768
92033,102832
92068,102814
92050,102865
92050,102815
92068,102815
92095,102850
92106,102899
92125,102848
92141,102901
92100,102848
92133,102863
92157,102892
92147,102908
92125,102888
92155,102846
92184,102896
92216,102920
92186,102924
92205,102930
92154,102863
92214,102877
92167,102925
92150,102897
92134,102850
92113,102815
92084,102846
92061,102831
92020,102805
91996,102761
91913,102727
91922,102695
91907,102691
91831,102656
91797,102631
91719,102574
91750,102600
91716,102566
91722,102556
91682,102545
91659,102485
91651,102517
91703,102535
91657,102525
91691,102526
91676,102514
91705,102524
91703,102537
91782,102590
91743,102546
91778,102556
91801,102578
91836,102609
91841,102621
91832,102643
91816,102561
91886,102626
91877,102621
91900,102680
91910,102657
91887,102648
91920,102656
91963,102688
91969,102730
91962,102687
91950,102683
92013,102692
92054,102738
92020,102762
92046,102703
92017,102721
92056,102757
92025,102745
92018,102735
92007,102722
91937,102669
91997,102703
91930,102697
91953,102704
91937,102661
91897,102633
91939,102658
91938,102701
91943,102678
91911,102659
91960,102668
91953,102729
91959,102686
92028,102727
91985,102699
91997,102668
92014,102722
92016,102713
92025,102737
91988,102691
91961,102657
91982,102699
91977,102667
91971,102700
91913,102642
91877,102612
91868,102604
91800,102584
91798,102587
91711,102542
91702,102451
91677,102511
91696,102506
91630,102511
91617,102492
91614,102455
91644,102462
91701,102492
91707,102527
91688,102498
91699,102467
91687,102467
91706,102478
91677,102488
91620,102457
91640,102412
91646,102459
91615,102435
91626,102417
91563,102397
91562,102353
91574,102400
91551,102373
91518,102365
91503,102327
91474,102337
91532,102361
91543,102369
91527,102346
91516,102318
91524,102350
91544,102356
91546,102376
91540,102370
91545,102346
91584,102351
91571,102374
91590,102390
91593,102387
91584,102390
91587,102353
91651,102404
91644,102420
91688,102440
91668,102425
91663,102397
91752,102429
91748,102471
91808,102517
91810,102476
91856,102522
91906,102545
91900,102593
91895,102554
91940,102536
91896,102521
91922,102554
91901,102582
91906,102543
91862,102540
91846,102510
91888,102528
91892,102547
91862,102581
91843,102567
91899,102508
91898,102567
91916,102557
91883,102574
91920,102574
91898,102524
91904,102577
91916,102576
91887,102534
91891,102553
91916,102535
91936,102585
91949,102570
91979,102590
91970,102587
91955,102555
91999,102608
92005,102602
92023,102612
92008,102594
92007,102559
92063,102618
92069,102656
92061,102621
92090,102653
92058,102607
92045,102623
92073,102644
92018,102612
92007,102573
91988,102565
92003,102547
91981,102598
91947,102576
91974,102550
91913,102535
91982,102547
91963,102568
91949,102536
91924,102536
91908,102490
91887,102495
91854,102449
91833,102459
91779,102421
91746,102357
91748,102390
91713,102341
91678,102362
91628,102314
91615,102259
91636,102280
91606,102296
91605,102270
91586,102248
91560,102217
91595,102244
91559,102243
91589,102244
91551,102235
91572,102213
91607,102261
91597,102281
91582,102241
91555,102224
91570,102216
91612,102263
91587,102245
91639,102280
91641,102266
91679,102259
91677,102347
91733,102323
91774,102371
91786,102345
91823,102375
91845,102372
91879,102426
91878,102418
91898,102416
91856,102433
91907,102439
91898,102475
91903,102428
91853,102410
91891,102424
91909,102432
91857,102452
91888,102434
91841,102390
91864,102403
91861,102450
91876,102438
91893,102423
91863,102423
91874,102403
91937,102446
91927,102453
91912,102459
91914,102445
91923,102420
91922,102458
91919,102453
91937,102455
91935,102464
91916,102418
91906,102439
91952,102481
91936,102452
91875,102418
91903,102439
91917,102434
91905,102432
91912,102448
91891,102405
91842,102387
91861,102394
91872,102419
91864,102408
91824,102376
91821,102352
91852,102374
91864,102364
91858,102381
91843,102369
91827,102325
91929,102415
91873,102430
91875,102438
91904,102419
91885,102369
91956,102419
91922,102453
91901,102434
91917,102407
91912,102409
91967,102421
91993,102507
92004,102485
92002,102456
92021,102475
92052,102488
92093,102539
92117,102526
92118,102525
92156,102539
92218,102603
92239,102594
92246,102628
92272,102631
92268,102610
92353,102670
92307,102664
92334,102683
92361,102626
92369,102661
92344,102698
92369,102679
92361,102689
92328,102672
92355,102638
92371,102667
92374,102726
92398,102716
92384,102707
92332,102666
92378,102660
92392,102726
92373,102677
92352,102676
92376,102666
92380,102727
92381,102681
92368,102682
92349,102673
92370,102657
92392,102716
92435,102712
92441,102728
92451,102719
92491,102715
92515,102778
92590,102793
92622,102829
92639,102828
92681,102834
92747,102882
92746,102935
92782,102946
92768,102895
92801,102910
92831,102970
92842,102937
92803,102958
92803,102957
92828,102961
92863,102954
92866,102983
92885,103000
92878,102974
92915,102958
92938,102999
92978,103066
92962,103046
92916,103006
92955,103017
92977,103033
92994,103062
92954,103040
92943,103014
92956,103043
92978,103030
92948,103041
92956,103025
92950,103005
92925,103004
92971,103031
92972,103036
92950,103049
92972,103036
93007,103026
93009,103094
93041,103077
93059,103067
93039,103048
93044,103059
93079,103068
93046,103083
93007,103042
92974,102998
92951,102999
92937,102980
92877,102953
92862,102959
92830,102922
92772,102870
92773,102876
92769,102852
92671,102828
92643,102784
92644,102743
92608,102773
92600,102759
92569,102711
92488,102677
92498,102668
92494,102686
92454,102678
92446,102652
92437,102644
92419,102624
92459,102635
92473,102673
92460,102648
92446,102626
92458,102644
92464,102658
92463,102674
92476,102670
92419,102645
92423,102616
92426,102642
92415,102662
92403,102616
92345,102596
92356,102567
92366,102630
92354,102596
92306,102590
92307,102561
92369,102567
92321,102587
92382,102624
92350,102612
92383,102606
92386,102592
92375,102606
92422,102615
92368,102615
92374,102610
92368,102572
92327,102587
92354,102597
92356,102574
92297,102552
92311,102537
92304,102559
92300,102555
92292,102540
92250,102515
92205,102484
92243,102533
92243,102495
92172,102480
92148,102457
92111,102418
92083,102429
92106,102415
92054,102400
92018,102349
92001,102319
92005,102352
91974,102342
91979,102308
91964,102318
91910,102300
91974,102331
91942,102322
91986,102350
91955,102327
91994,102299
92030,102334
92037,102343
92053,102367
92041,102341
92053,102319
92048,102350
92061,102381
92075,102330
92012,102323
92037,102333
92043,102350
92078,102380
92044,102355
92040,102334
92076,102338
92112,102404
92142,102432
92178,102449
92175,102407
92234,102443
92282,102481
92299,102524
92336,102503
92311,102509
92388,102531
92417,102584
92438,102622
92449,102597
92452,102580
92467,102614
92526,102655
92552,102660
92545,102669
92494,102653
92512,102646
92577,102684
92546,102701
92506,102646
92527,102617
92502,102615
92461,102644
92466,102618
92456,102601
92356,102528
92338,102515
92381,102581
92351,102544
92300,102542
92286,102473
92281,102465
92282,102474
92259,102500
92256,102467
92183,102435
92233,102413
92235,102468
92238,102466
92185,102460
92188,102416
92175,102407
92243,102470
92204,102426
92172,102424
92148,102400
92161,102369
92188,102432
92159,102396
92166,102387
92116,102371
92154,102377
92135,102439
92182,102411
92158,102380
92137,102364
92193,102373
92161,102435
92203,102445
92195,102418
92203,102411
92205,102408
92269,102445
92260,102457
92294,102481
92280,102406
92302,102466
92280,102454
92318,102499
92332,102489
92333,102421
92353,102463
92339,102494
92373,102515
92348,102478
92312,102490
92330,102458
92365,102475
92353,102476
92295,102486
92244,102418
92222,102373
92191,102398
92189,102388
92069,102364
92063,102283
92003,102267
92043,102270
91969,102287
91881,102192
91903,102154
91865,102139
91830,102122
91856,102139
91775,102126
91751,102044
91738,102053
91708,102060
91690,102068
91647,101990
91648,101982
91612,101954
91593,101962
91560,101956
91503,101914
91485,101881
91475,101894
91437,101900
91411,101878
91389,101853
91403,101801
91405,101858
91398,101844
91438,101902
91481,101877
91456,101871
91490,101898
91555,101901
91579,101952
91549,101945
91566,101909
91613,101946
91594,102010
91606,102022
91596,101984
91567,101943
91585,101932
91581,102002
91546,101974
91568,101963
91496,101920
91528,101895
91504,101938
91519,101948
91503,101897
91455,101893
91516,101913
91509,101931
91525,101965
91510,101910
91534,101899
91539,101937
91588,101946
91603,101987
91561,101961
91595,101946
91608,101962
91650,102000
91653,102017
91660,102047
91652,101977
91671,102017
91666,102009
91643,102065
91658,102023
91672,101988
91687,102041
91680,102022
91673,102032
91683,102040
91665,102006
91701,102014
91715,102077
91717,102076
91693,102018
91711,102035
91678,102056
91699,102031
91705,102032
91700,102030
91704,102002
91696,102030
91708,102046
91706,102034
91652,102063
91667,102005
91689,101991
91744,102064
91696,102076
91705,102039
91644,102011
91662,102018
91659,102022
91601,101980
91602,101978
91536,101892
91572,101936
91501,101943
91501,101934
91489,101924
91445,101860
91428,101873
91449,101879
91465,101893
91417,101875
91405,101862
91412,101875
91479,101926
91470,101899
91499,101909
91495,101913
91534,101897
91500,101933
91560,101952
91573,101949
91555,101925
91585,101954
91597,101978
91593,101970
91599,101974
91566,101907
91585,101950
91603,101954
91614,101973
91593,101993
91581,101912
91582,101939
91595,101977
91608,102005
91562,101951
91549,101937
91610,101957
91576,101946
91605,101974
91568,101927
91550,101943
91553,101915
91578,101975
91564,101925
91519,101928
91472,101869
91471,101850
91504,101922
91457,101909
91438,101852
91397,101835
91438,101826
91428,101880
91440,101848
91448,101832
91432,101834
91467,101854
91454,101891
91460,101907
91484,101856
91517,101855
91479,101907
91495,101894
91486,101893
91517,101887
91444,101837
91458,101819
91468,101894
91441,101854
91356,101786
91335,101761
91297,101731
91276,101701
91250,101699
91149,101633
91070,101578
91057,101591
91042,101583
90992,101583
90899,101474
90902,101460
90897,101490
90907,101493
90894,101487
90887,101462
90871,101435
90938,101490
90961,101483
90972,101554
90957,101518
91004,101521
91069,101574
91112,101608
91140,101640
91138,101679
91193,101641
91270,101724
91274,101788
91330,101806
91364,101781
91374,101797
91456,101828
91450,101874
91437,101851
91427,101867
91395,101857
91450,101857
91428,101898
91450,101855
91406,101886
91360,101780
91415,101859
91389,101834
91369,101839
91339,101807
91314,101785
91379,101800
91340,101872
91379,101831
91345,101816
91389,101835
91401,101861
91425,101901
91429,101864
91510,101928
91476,101886
91491,101922
91580,101942
91538,101981
91543,101919
91540,101920
91532,101952
91533,101960
91555,101939
91503,101971
91492,101905
91537,101939
91519,101954
91520,101919
91509,101954
91485,101879
91530,101914
91497,101919
91497,101966
91505,101909
91513,101887
91493,101917
91547,101975
91553,101949
91533,101951
91554,101953
91570,101972
91617,101978
91588,101978
91598,101999
91590,101975
91602,101964
91606,102015
91632,101991
91599,102010
91664,102002
91654,102035
91688,102051
91712,102098
91714,102059
91740,102047
91762,102090
91773,102145
91835,102137
91860,102177
91936,102188
91977,102267
92074,102298
92170,102365
92202,102404
92240,102406
92373,102467
92409,102557
92433,102547
92494,102584
92511,102602
92573,102662
92658,102706
92650,102705
92727,102707
92726,102715
92750,102767
92778,102755
92765,102767
92721,102779
92683,102701
92713,102720
92683,102759
92670,102743
92628,102692
92579,102653
92572,102667
92554,102659
92572,102640
92493,102639
92498,102591
92486,102641
92454,102606
92460,102580
92429,102590
92454,102556
92453,102585
92472,102584
92484,102623
92438,102567
92459,102558
92500,102581
92499,102610
92481,102639
92511,102573
92488,102582
92491,102614
92510,102600
92523,102630
92493,102607
92518,102593
92532,102642
92518,102636
92536,102652
92518,102611
92525,102594
92547,102632
92549,102649
92514,102600
92503,102622
92479,102547
92504,102563
92464,102606
92412,102508
92422,102536
92364,102487
92369,102497
92301,102472
92297,102426
92212,102424
92230,102369
92180,102403
92231,102411
92179,102383
92153,102337
92150,102297
92147,102319
92198,102364
92140,102338
92148,102367
92133,102330
92178,102359
92213,102399
92184,102418
92206,102402
92191,102374
92222,102370
92252,102447
92197,102452
92219,102401
92237,102383
92236,102410
92309,102486
92290,102534
92325,102466
92326,102483
92407,102535
92382,102570
92413,102564
92365,102565
92393,102530
92457,102578
92464,102606
92402,102551
92438,102582
92401,102565
92440,102608
92426,102560
92415,102605
92410,102540
92402,102521
92421,102584
92365,102569
92373,102537
92326,102529
92348,102492
92323,102506
92351,102543
92280,102543
92291,102498
92245,102468
92309,102505
92243,102506
92247,102481
92204,102432
92206,102432
92187,102470
92175,102437
92164,102461
92134,102395
92112,102362
92096,102415
92078,102346
92092,102396
92055,102311
92062,102325
92128,102355
92090,102401
92110,102416
92135,102372
92120,102376
92207,102450
92218,102450
92248,102452
92248,102493
92248,102453
92305,102524
92332,102520
92344,102553
92346,102498
92334,102516
92337,102554
92323,102543
92346,102535
92326,102469
92316,102488
92365,102501
92385,102582
92333,102535
92347,102523
92360,102510
92393,102565
92415,102582
92430,102614
92441,102572
92426,102559
92465,102607
92440,102614
92414,102565
92418,102578
92396,102557
92385,102556
92396,102593
92342,102547
92305,102553
92307,102507
92306,102539
92323,102536
92322,102547
92292,102511
92321,102494
92394,102576
92399,102581
92395,102611
92404,102569
92424,102587
92475,102621
92511,102627
92462,102655
92489,102596
92534,102612
92504,102627
92535,102642
92497,102641
92475,102624
92498,102597
92488,102631
92535,102647
92504,102653
92502,102616
92496,102601
92487,102630
92517,102654
92492,102634
92477,102628
92507,102629
92530,102664
92576,102677
92638,102744
92640,102693
92655,102723
92780,102813
92827,102852
92879,102852
92897,102884
92994,102883
93082,102966
93096,103021
93116,102975
93112,103022
93147,102984
93196,103020
93191,103061
93129,103007
93063,102993
93083,102954
93068,102984
93003,102941
92951,102920
92875,102861
92798,102798
92781,102796
92698,102777
92582,102684
92474,102643
92461,102582
92342,102547
92278,102482
92257,102473
92135,102381
92107,102321
92081,102331
92034,102315
92000,102318
91962,102242
91939,102259
91965,102215
91955,102248
91900,102204
91907,102184
91916,102187
91900,102203
91918,102198
91858,102196
91809,102142
91836,102137
91835,102210
91817,102156
91825,102175
91798,102147
91832,102137
91861,102224
91869,102206
91913,102203
91943,102220
91974,102233
92000,102280
92092,102323
92071,102348
92111,102336
92136,102348
92155,102421
92180,102380
92182,102421
92151,102389
92157,102398
92172,102409
92169,102363
92116,102388
92075,102319
92087,102306
92058,102352
92061,102325
92023,102289
92029,102276
91975,102282
91976,102259
91996,102327
91940,102278
91908,102232
91932,102204
91906,102267
91915,102222
91884,102219
91848,102209
91872,102163
91889,102214
91847,102235
91834,102195
91846,102169
91779,102164
91810,102171
91849,102178
91818,102195
91820,102151
91856,102186
91891,102198
91874,102219
91881,102204
91871,102147
91835,102202
91861,102166
91870,102190
91830,102140
91808,102128
91762,102112
91825,102143
91827,102165
91792,102160
91781,102139
91834,102098
91870,102207
91873,102185
91885,102207
91896,102173
91930,102202
91969,102241
91982,102220
92037,102279
91993,102238
92029,102245
92039,102266
92068,102307
92060,102286
92065,102306
92046,102265
92093,102347
92074,102293
92073,102321
92002,102279
92020,102250
92047,102305
92011,102285
91980,102283
91946,102210
91988,102251
91919,102211
91921,102218
91954,102223
91891,102203
91895,102179
91918,102198
91968,102252
91967,102249
91945,102214
91945,102207
92019,102226
92036,102286
92012,102263
92032,102253
92058,102253
92090,102319
92093,102300
92098,102355
92057,102297
92061,102288
92103,102322
92126,102323
92050,102285
92067,102260
92100,102305
92121,102317
92164,102319
92178,102329
92126,102332
92169,102313
92215,102372
92194,102361
92198,102354
92133,102307
92216,102360
92181,102362
92189,102347
92159,102358
92151,102313
92167,102303
92187,102358
92148,102354
92160,102326
92129,102289
92112,102289
92113,102308
92078,102321
92091,102304
92063,102263
92110,102261
92145,102321
92147,102332
92192,102343
92186,102321
92188,102314
92185,102349
92185,102353
92191,102347
92116,102289
92102,102249
92084,102272
92015,102221
91963,102182
91902,102142
91868,102105
91785,102091
91770,102096
91723,102036
91622,101963
91637,101952
91626,101918
91593,101941
91529,101878
91463,101831
91459,101828
91466,101822
91447,101863
91431,101807
91400,101792
91393,101762
91406,101786
91375,101758
91398,101797
91380,101752
91366,101758
91422,101810
91375,101788
91409,101822
91379,101755
91430,101806
91464,101842
91501,101850
91492,101839
91525,101845
91549,101857
91606,101940
91597,101928
91614,101951
91626,101934
91617,101898
91696,101948
91669,102022
91673,101967
91622,101932
91665,101978
91670,101959
91656,102011
91640,101961
91613,101897
91615,101917
91638,101938
91574,101943
91613,101929
91543,101870
91544,101898
91551,101900
91588,101945
91570,101883
91593,101884
91623,101949
91639,101962
91663,101987
91725,102015
91716,101978
91778,102021
91788,102045
91825,102052
91881,102058
91855,102048
91865,102072
91876,102078
91917,102135
91873,102102
91849,102055
91844,102058
91857,102061
91877,102099
91868,102080
91826,102044
91841,102080
91873,102094
91875,102078
91842,102079
91835,102048
91856,102083
91904,102083
91891,102110
91909,102115
91870,102052
91874,102052
91918,102107
91890,102131
91884,102098
91844,102049
91895,102079
91884,102118
91875,102074
91870,102083
91877,102052
91891,102082
91867,102106
91905,102091
91882,102095
91869,102066
91893,102075
91955,102119
91939,102163
91948,102114
91973,102135
92007,102129
92018,102134
92009,102187
91983,102157
91961,102111
91994,102131
91983,102158
91988,102119
91939,102131
91936,102105
91959,102087
91945,102106
91937,102123
91919,102092
91852,102087
91894,102034
91908,102097
91864,102078
91874,102053
91877,102033
91860,102061
91925,102063
91908,102111
91922,102065
91947,102096
91998,102094
91973,102166
92006,102145
92003,102151
91976,102115
92002,102101
92040,102147
91999,102155
92009,102132
92012,102100
92061,102133
92080,102200
92073,102220
92081,102199
92090,102158
92160,102222
92204,102269
92194,102267
92208,102290
92202,102206
92259,102274
92226,102283
92189,102281
92204,102253
92214,102213
92171,102217
92115,102205
92111,102206
92037,102145
91978,102083
91943,102054
91949,102061
91862,102073
91837,101983
91814,101970
91783,101963
91798,101984
91740,101960
91753,101929
91689,101897
91732,101898
91738,101936
91756,101930
91741,101931
91740,101889
91787,101957
91827,101950
91817,101975
91856,101955
91846,101957
91869,101990
91957,102037
91997,102090
92027,102084
92064,102097
92090,102156
92182,102185
92204,102227
92236,102211
92265,102265
92314,102252
92355,102325
92339,102290
92372,102311
92319,102294
92327,102261
92309,102294
92286,102321
92242,102262
92199,102198
92216,102211
92188,102223
92202,102201
92178,102215
92132,102180
92192,102218
92237,102270
92263,102272
92258,102274
92343,102291
92362,102321
92430,102363
92493,102399
92522,102397
92502,102397
92562,102439
92570,102449
92582,102491
92575,102463
92508,102397
92522,102425
92531,102423
92461,102378
92446,102360
92366,102314
92362,102345
92380,102313
92305,102332
92293,102277
92278,102259
92285,102280
92266,102267
92268,102289
92239,102254
92238,102217
92261,102268
92274,102245
92290,102263
92290,102252
92258,102228
92328,102270
92319,102313
92376,102303
92352,102313
92365,102299
92378,102297
92394,102312
92422,102358
92410,102322
92425,102296
92423,102349
92433,102324
92465,102383
92408,102321
92403,102297
92401,102288
92370,102332
92354,102290
92339,102298
92235,102217
92269,102230
92276,102244
92238,102199
92206,102210
92207,102198
92222,102171
92269,102224
92261,102237
92270,102249
92261,102203
92288,102256
92346,102284
92366,102299
92365,102310
92350,102265
92412,102287
92437,102339
92417,102305
92432,102339
92424,102311
92404,102296
92494,102344
92470,102360
92479,102335
92500,102370
92496,102351
92531,102378
