11111,11111
0,0
81537,80907
103680,100911
103671,100881
103636,100841
103666,100905
103677,100909
103687,100871
103646,100910
103626,100831
103653,100925
103668,100875
103695,100881
103616,100864
103630,100792
103631,100873
103646,100869
103627,100877
103577,100813
103586,100822
103623,100858
103592,100848
103634,100868
103569,100831
103566,100795
103622,100836
103641,100847
103595,100867
103564,100843
103603,100808
103617,100872
103623,100862
103637,100856
103586,100861
103597,100808
103611,100872
103640,100850
103624,100857
103568,100795
103577,100798
103601,100876
103615,100832
103568,100867
103541,100797
103579,100826
103609,100833
103561,100837
103546,100834
103581,100795
103572,100813
103576,100843
103590,100840
103605,100822
103579,100834
103552,100804
103614,100850
103600,100851
103646,100851
103634,100847
103597,100804
103688,100870
103684,100876
103629,100877
103630,100822
103642,100834
103684,100836
103718,100903
103712,100887
103636,100803
103693,100819
103672,100857
103719,100895
103684,100882
103703,100819
103727,100841
103729,100877
103769,100911
103716,100904
103695,100855
103760,100853
103790,100932
103761,100894
103821,100885
103763,100915
103784,100852
103855,100931
103858,100934
103803,100939
103805,100881
103826,100899
103776,100912
103740,100867
103628,100864
103509,100734
103345,100665
103214,100629
102996,100525
102742,100410
102491,100293
102194,100171
101994,100101
101690,99939
101489,99850
101293,99782
101084,99693
101022,99650
100883,99669
100715,99524
100651,99507
100513,99486
100482,99439
100393,99447
100334,99391
100251,99377
100187,99335
100243,99397
100175,99342
100147,99370
100114,99275
100159,99320
100127,99330
100132,99339
100137,99386
100119,99351
100168,99348
100732,99624
100924,99658
100967,99694
101003,99701
100993,99688
101060,99713
101611,99982
101648,99937
101626,99950
101713,99981
102118,100159
102192,100193
102189,100206
102229,100210
102190,100173
102264,100164
102274,100238
102280,100211
102271,100206
102286,100177
102352,100258
102340,100245
102327,100228
102321,100229
102326,100223
102393,100278
102394,100255
102408,100258
102383,100266
102383,100261
102423,100301
102475,100279
102470,100292
102434,100229
102462,100264
102498,100291
102542,100321
102465,100308
102508,100290
102521,100259
102529,100324
102580,100334
102547,100345
102544,100265
102570,100285
102569,100356
102589,100334
102603,100330
102575,100312
102616,100334
102622,100339
102658,100396
102639,100338
102649,100326
102623,100334
102696,100379
102710,100401
102708,100393
102715,100372
102725,100354
102739,100415
102762,100442
102782,100406
102761,100366
102794,100379
102814,100447
102845,100431
102831,100414
102838,100418
102803,100378
102881,100451
102886,100429
102897,100432
102874,100436
102907,100425
102924,100463
102970,100522
102936,100464
102937,100433
102935,100464
102951,100486
102990,100480
103033,100490
102989,100449
102985,100484
103051,100481
103048,100522
103006,100486
103051,100508
103069,100491
103110,100525
103064,100536
103089,100495
103058,100508
103093,100474
103106,100524
103165,100566
103133,100535
103129,100529
103134,100510
103142,100567
103181,100565
103143,100533
103203,100540
103196,100538
103234,100619
103249,100572
103263,100570
103240,100562
103309,100573
103340,100617
103310,100635
103311,100581
103289,100566
103323,100597
103287,100599
103243,100572
103158,100514
102962,100401
102873,100350
102689,100317
102443,100230
102184,100063
101858,99900
101610,99773
101359,99716
101143,99627
100894,99529
100670,99403
100561,99363
100452,99363
100297,99282
100229,99250
100067,99180
100008,99139
100017,99175
99858,99121
99826,99063
99749,99007
99746,99066
99694,99067
99688,99004
99712,99038
99642,98999
99676,99008
99709,99026
99694,99066
99745,99035
99707,99062
99775,99054
99844,99122
99870,99126
99874,99153
99915,99113
99976,99166
100039,99212
100049,99213
100101,99197
100114,99212
100146,99234
100232,99282
100265,99311
100286,99290
100302,99268
100388,99356
100392,99329
100402,99377
100459,99358
100403,99294
100472,99378
100499,99400
100486,99439
100498,99364
100523,99373
100542,99427
100554,99408
100535,99398
100592,99437
100531,99375
100603,99427
100647,99472
100693,99484
100620,99466
100680,99441
100735,99501
100762,99502
100773,99519
100774,99529
100772,99455
100855,99537
100838,99541
100847,99521
100876,99530
100830,99478
100849,99553
100863,99528
100851,99540
100845,99512
100783,99453
100812,99499
100831,99512
100769,99469
100810,99512
100717,99462
100772,99488
100793,99470
100783,99492
100732,99474
100742,99415
100764,99453
100778,99488
100714,99453
100773,99469
100679,99398
100754,99434
100749,99473
100712,99471
100756,99460
100701,99433
100753,99453
100769,99523
100760,99484
100809,99467
100741,99441
100812,99527
100870,99527
100871,99543
100905,99524
100871,99476
100939,99569
100977,99549
100959,99572
101012,99549
101008,99550
101076,99592
101128,99598
101176,99623
101164,99625
101201,99615
101282,99669
101316,99693
101317,99703
101374,99678
101384,99712
101414,99715
101472,99751
101502,99775
101498,99754
101548,99766
101610,99783
101645,99844
101602,99824
101667,99850
101683,99800
101729,99869
101763,99845
101788,99883
101748,99871
101802,99883
101887,99910
101870,99929
101921,99904
101941,99954
101963,99904
102007,99974
102054,99987
102042,99998
102076,99959
102076,99970
102129,100005
102182,100025
102171,100047
102210,99995
102200,100046
102250,100068
102270,100086
102270,100061
102277,100078
102277,100042
102358,100065
102338,100117
102344,100066
102355,100097
102370,100067
102435,100144
102430,100114
102456,100137
102432,100083
102448,100097
102470,100186
102528,100146
102490,100161
102488,100118
102522,100168
102515,100175
102575,100171
102596,100216
102536,100134
102566,100156
102630,100198
102597,100205
102611,100220
102632,100181
102612,100205
102695,100188
102691,100268
102705,100250
102683,100194
102723,100220
102738,100280
102784,100259
102778,100269
102722,100213
102795,100249
102775,100295
102825,100277
102808,100283
102807,100275
102818,100275
102889,100293
102834,100315
102833,100267
102807,100278
102891,100300
102851,100329
102900,100291
102886,100319
102849,100243
102874,100300
102908,100297
102912,100359
102876,100284
102913,100316
102903,100294
102938,100332
102927,100331
102953,100344
102952,100272
102957,100328
102963,100350
103002,100346
102991,100340
102932,100301
102992,100312
103020,100406
103010,100355
102994,100355
102959,100335
103030,100364
103029,100382
103052,100368
103011,100383
103047,100354
103054,100372
103081,100382
103108,100431
103053,100410
103018,100317
102997,100350
102976,100321
102917,100276
102775,100229
102568,100091
102429,100066
102215,99974
101976,99902
101711,99749
101422,99612
101233,99514
101003,99511
100829,99383
100657,99320
100445,99219
100397,99200
100280,99193
100193,99122
100112,99109
100017,99002
99980,99043
99941,99008
99885,99024
99790,98958
99767,98947
99754,98952
99749,98991
99741,98969
99690,98954
99690,98901
99718,98950
99739,98988
99756,98978
99786,99002
99805,98966
99848,99023
99891,99085
99949,99089
99979,99086
99972,99045
100066,99106
100117,99180
100195,99161
100199,99165
100227,99167
100281,99218
100344,99280
100394,99257
100365,99263
100386,99244
100464,99283
100446,99319
100478,99330
100492,99329
100467,99270
100531,99330
100570,99343
100575,99375
100552,99359
100572,99312
100588,99377
100616,99404
100612,99346
100603,99390
100580,99312
100651,99381
100679,99417
100682,99413
100731,99435
100655,99351
100743,99440
100762,99413
100718,99456
100751,99421
100672,99382
100731,99421
100699,99406
100695,99396
100618,99412
100593,99340
100575,99377
100563,99381
100575,99333
100557,99366
100502,99289
100511,99326
100512,99350
100420,99322
100471,99278
100385,99234
100441,99264
100437,99298
100365,99282
100385,99234
100339,99213
100384,99263
100336,99287
100350,99251
100345,99243
100358,99210
100372,99276
100431,99301
100389,99285
100365,99260
100393,99251
100409,99284
100454,99354
100410,99273
100484,99285
100434,99262
100494,99317
100531,99316
100532,99318
100517,99321
100524,99299
100589,99357
100609,99391
100593,99380
100638,99349
100620,99356
100716,99389
100707,99419
100801,99427
100785,99453
100836,99441
100898,99486
100947,99542
100985,99513
101012,99556
101086,99503
101116,99601
101210,99610
101212,99597
101205,99611
101261,99596
101309,99622
101312,99638
101350,99663
101372,99643
101343,99652
101419,99708
101448,99711
101426,99679
101469,99716
101442,99680
101516,99727
101499,99738
101532,99731
101546,99705
101611,99721
101626,99766
101674,99835
101650,99804
101676,99789
101719,99786
101744,99861
101769,99852
101790,99847
101812,99810
101783,99848
101814,99863
101904,99901
101864,99845
101822,99856
101816,99850
101878,99879
101884,99903
101875,99896
101862,99825
101837,99867
101883,99900
101878,99851
101841,99858
101797,99856
101830,99835
101821,99846
101832,99861
101843,99872
101725,99797
101796,99810
101808,99847
101779,99854
101721,99796
101751,99805
101692,99760
101723,99807
101685,99806
101691,99798
101635,99779
101661,99773
101689,99784
101676,99785
101610,99757
101620,99755
101602,99722
101646,99751
101634,99771
101637,99752
101638,99742
101644,99738
101662,99802
101674,99777
101669,99786
101631,99731
101672,99758
101720,99813
101707,99796
101729,99790
101718,99790
101752,99793
101787,99801
101798,99867
101810,99824
101807,99803
101814,99806
101893,99859
101900,99892
101886,99867
101886,99792
101873,99847
101863,99872
101800,99822
101691,99754
101493,99685
101378,99604
101221,99542
100993,99452
100755,99330
100529,99202
100359,99154
100168,99113
100060,99007
99884,98975
99706,98862
99630,98839
99536,98844
99463,98774
99377,98754
99232,98637
99195,98672
99120,98657
99060,98604
99017,98597
98983,98528
98980,98587
98982,98591
98949,98599
98934,98551
98911,98554
98908,98560
98971,98594
98962,98614
98989,98609
99001,98611
99015,98647
99119,98659
99111,98701
99163,98668
99169,98656
99254,98708
99257,98768
99308,98729
99365,98792
99340,98735
99408,98839
99470,98844
99465,98845
99544,98851
99484,98806
99604,98862
99626,98924
99658,98918
99645,98889
99638,98866
99701,98902
99740,98950
99728,98955
99787,98969
99795,98905
99812,98978
99819,98957
99873,99005
99887,98964
99885,98950
99975,99038
99983,99067
100036,99074
100040,99079
100070,99076
100140,99116
100179,99136
100178,99133
100184,99127
100178,99097
100241,99141
100238,99179
100179,99137
100223,99078
100149,99123
100202,99119
100186,99137
100197,99124
100192,99145
100145,99061
100251,99129
100238,99140
100196,99122
100190,99133
100175,99059
100241,99131
100204,99120
100240,99157
100215,99118
100160,99073
100207,99132
100232,99123
100161,99118
100211,99104
100153,99053
100217,99130
100199,99162
100191,99101
100212,99104
100189,99100
100278,99147
100302,99185
100272,99152
100300,99105
100318,99171
100384,99187
100382,99239
100446,99220
100440,99233
100475,99203
100529,99277
100589,99290
100596,99320
100658,99271
100637,99289
100729,99338
100794,99347
100786,99349
100781,99353
100821,99376
100848,99385
100941,99406
100912,99461
100938,99410
100970,99415
101002,99458
101096,99441
101103,99488
101063,99494
101119,99466
101172,99519
101199,99556
101239,99511
101242,99543
101225,99496
101334,99593
101384,99588
101341,99578
101388,99568
101368,99606
101460,99608
101527,99669
101519,99644
101537,99614
101552,99635
101603,99705
101592,99707
101644,99714
101670,99678
101651,99704
101738,99753
101777,99746
101770,99790
101770,99731
101800,99781
101816,99763
101855,99809
101818,99780
101854,99765
101845,99768
101915,99811
101892,99849
101876,99823
101928,99767
101896,99802
101956,99826
101943,99837
101951,99808
101934,99792
101956,99832
101969,99836
102009,99846
102002,99824
101968,99821
101970,99823
102012,99809
102044,99864
102039,99847
101991,99848
102057,99847
102050,99878
102102,99890
102079,99888
102047,99813
102094,99888
102132,99887
102113,99892
102131,99873
102113,99844
102123,99877
102169,99931
102206,99917
102162,99906
102156,99868
102171,99905
102235,99926
102250,99948
102245,99922
102223,99899
102252,99906
102275,99954
102300,99925
102286,99945
102316,99946
102378,99950
102347,99971
102374,99976
102382,99986
102381,99963
102435,100008
102450,100033
102464,100030
102435,100039
102475,99994
102481,99978
102529,100054
102512,100029
102555,100014
102495,100005
102545,100048
102580,100043
102544,100100
102550,100055
102587,100059
102540,100064
102616,100092
102563,100072
102545,100043
102395,99967
102331,99899
102215,99891
101954,99760
101764,99687
101490,99541
101232,99455
101028,99336
100799,99284
100594,99180
100323,99087
100204,98990
100062,98960
99985,98924
99835,98842
99710,98755
99674,98784
99546,98775
99492,98721
99383,98696
99294,98647
99307,98628
99291,98663
99278,98634
99243,98617
99186,98582
99244,98617
99230,98620
99238,98680
99227,98631
99216,98610
99296,98672
99305,98697
99307,98712
99340,98686
99335,98651
99435,98705
99465,98739
99467,98779
99521,98779
99525,98749
99594,98801
99640,98837
99657,98838
99681,98846
99702,98822
99759,98865
99799,98907
99838,98916
99804,98906
99819,98864
99842,98906
99867,98947
99854,98944
99856,98918
99833,98865
99905,98914
99909,98938
99901,98964
99913,98925
99876,98913
99924,98952
99988,98980
99968,98945
100003,98988
99999,98934
100102,99006
100089,99068
100097,99016
100119,99046
100099,99021
100156,99038
100174,99061
100165,99056
100185,99008
100134,98990
100183,99065
100174,99048
100145,99044
100106,99020
100076,98984
100153,99012
100124,99050
100145,99038
100080,99009
100042,98946
100124,98995
100097,99017
100058,99014
100071,98982
100033,98952
100106,99007
100064,98986
100047,98961
100056,98979
100006,98924
100077,98982
100066,99042
100076,98990
100070,98993
100059,98994
100066,98979
100154,99010
100094,99007
100115,99006
100093,98978
100166,99019
100160,99078
100188,99037
100174,99016
100195,99028
100224,99053
100287,99113
100295,99082
100316,99077
100292,99069
100359,99120
100386,99104
100387,99150
100422,99132
100435,99148
100477,99163
100575,99201
100574,99182
100555,99187
100596,99196
100629,99275
100679,99233
100676,99278
100667,99227
100681,99229
100732,99259
100786,99311
100780,99276
100758,99288
100755,99263
100802,99312
100807,99279
100771,99280
100791,99300
100751,99286
100791,99314
100821,99330
100811,99289
100761,99281
100750,99283
100807,99279
100836,99295
100829,99291
100824,99289
100832,99306
100862,99324
100894,99322
100842,99324
100891,99349
100887,99311
100916,99321
100937,99393
100953,99366
100913,99330
100933,99329
100929,99371
100979,99370
100952,99353
100951,99344
100922,99319
100951,99334
100914,99356
100930,99352
100930,99291
100900,99297
100933,99320
100958,99386
100950,99351
100919,99312
100954,99315
100971,99363
100997,99366
100978,99349
100981,99365
101038,99349
101060,99417
101085,99403
101095,99410
101095,99382
101153,99375
101153,99467
101226,99431
101221,99442
101207,99431
101221,99449
101262,99461
101303,99499
101229,99438
101235,99447
101219,99422
101187,99400
101074,99409
100938,99283
100773,99190
100582,99116
100402,99070
100190,99008
99992,98858
99812,98781
99653,98687
99543,98685
99440,98627
99279,98596
99124,98490
99089,98486
98954,98455
98882,98402
98801,98347
98681,98313
98644,98287
98621,98286
98586,98312
98522,98264
98500,98201
98460,98233
98488,98249
98466,98246
98451,98250
98407,98206
98455,98211
98450,98244
98480,98276
98504,98220
98494,98254
98539,98258
98570,98313
98551,98319
98592,98294
98619,98302
98634,98305
98690,98373
98714,98386
98741,98364
98691,98355
98754,98361
98843,98416
98859,98420
98841,98386
98787,98361
98852,98402
98902,98461
98879,98397
98834,98424
98866,98394
98890,98429
98887,98471
98897,98406
98869,98453
98875,98415
98909,98424
98932,98468
98917,98477
98939,98428
98938,98465
98971,98486
99050,98509
99054,98500
99036,98516
99005,98448
99060,98531
99098,98507
99027,98543
99021,98512
99000,98452
99020,98512
98994,98502
98974,98508
98934,98478
98852,98427
98869,98400
98918,98464
98822,98423
98821,98420
98789,98353
98783,98376
98821,98407
98751,98397
98750,98376
98711,98315
98735,98383
98757,98373
98707,98397
98714,98362
98678,98335
98682,98359
98724,98365
98695,98393
98684,98354
98709,98341
98689,98375
98769,98419
98733,98402
98770,98381
98690,98316
98758,98382
98782,98443
98747,98372
98754,98403
98704,98369
98793,98372
98863,98452
98820,98384
98803,98411
98834,98365
98864,98474
98880,98414
98922,98492
98945,98449
98935,98409
99009,98480
99044,98484
99043,98547
99064,98476
99078,98527
99125,98579
99170,98553
99162,98594
99214,98585
99218,98535
99321,98628
99331,98636
99311,98638
99365,98630
99365,98624
99389,98662
99434,98665
99434,98651
99466,98671
99424,98629
99530,98706
99480,98718
99526,98712
99522,98675
99510,98677
99569,98735
99554,98743
99544,98762
99550,98684
99572,98695
99618,98728
99566,98740
99619,98750
99619,98745
99610,98688
99669,98770
99655,98805
99616,98752
99651,98739
99620,98761
99651,98756
99668,98768
99669,98784
99623,98749
99683,98735
99654,98791
99714,98791
99665,98760
99682,98759
99629,98753
99687,98776
99691,98817
99672,98764
99658,98763
99640,98726
99667,98757
99643,98793
99650,98750
99612,98740
99570,98706
99621,98748
99605,98753
99553,98742
99415,98685
99351,98626
99285,98634
99159,98560
99011,98537
98837,98383
98691,98328
98567,98290
98391,98230
98305,98178
98120,98079
98046,98023
97934,98031
97835,97968
97740,97915
97602,97863
97522,97813
97480,97839
97365,97759
97300,97769
97199,97686
97156,97642
97103,97686
97063,97634
96972,97657
96941,97580
96893,97512
96911,97572
96905,97582
96840,97585
96818,97505
96813,97540
96846,97565
96853,97545
96837,97576
96856,97534
96817,97533
96900,97566
96938,97610
96886,97591
96847,97528
96889,97563
96910,97593
96943,97600
96915,97607
96925,97581
96898,97550
96980,97619
96931,97638
96909,97599
96879,97559
96916,97581
96951,97587
96931,97657
96927,97573
96877,97578
96908,97601
96912,97625
96928,97576
96908,97590
96913,97540
96933,97606
96937,97609
96919,97629
96949,97608
96974,97628
96937,97581
96992,97617
97019,97656
96971,97662
96941,97588
96988,97630
96999,97652
97003,97662
96995,97631
96940,97579
96960,97643
96976,97634
97015,97639
96964,97610
96968,97625
97014,97619
96996,97651
97035,97611
97015,97610
96997,97577
97032,97617
97071,97649
97020,97608
97044,97650
96980,97607
97008,97629
97045,97632
97030,97616
97054,97625
97009,97570
97023,97612
97060,97661
97085,97648
97053,97639
97033,97621
97091,97641
97131,97678
97110,97665
97132,97690
97129,97638
97134,97671
97216,97714
97242,97706
97226,97723
97246,97684
97297,97724
97337,97761
97353,97757
97361,97773
97362,97755
97469,97809
97490,97840
97534,97804
97530,97854
97491,97787
97558,97825
97628,97886
97616,97903
97582,97873
97613,97819
97626,97905
97665,97921
97660,97925
97699,97883
97676,97901
97706,97888
97729,97929
97696,97926
97698,97942
97708,97903
97745,97937
97774,97948
97735,97964
97786,97955
97720,97891
97786,97945
97799,98004
97757,97931
97777,97963
97800,97917
97830,98010
97804,97998
97848,97979
97817,97998
97810,97947
97839,97978
97896,98023
97848,97967
97879,97983
97834,97971
97916,97990
97915,98025
97962,98053
97919,98027
97955,98002
97973,98039
98007,98049
98020,98048
98011,98077
98016,98023
98071,98085
98123,98099
98096,98072
98117,98089
98122,98050
98113,98100
98193,98127
98144,98120
98154,98074
98141,98117
98177,98086
98146,98121
98122,98078
98004,98056
97906,97932
97862,97943
97714,97903
97580,97849
97469,97762
97266,97712
97214,97638
97120,97642
96976,97567
96912,97539
96750,97470
96724,97442
96628,97444
96519,97339
96437,97323
96394,97280
96316,97273
96254,97231
96220,97249
96167,97184
96075,97148
96087,97189
96052,97157
96046,97167
95988,97136
95967,97111
95998,97145
96017,97153
95968,97104
95994,97145
96011,97128
96045,97162
96087,97204
96049,97186
96074,97159
96132,97179
96143,97187
96214,97240
96184,97227
96220,97247
96204,97184
96276,97290
96262,97273
96301,97283
96302,97284
96284,97285
96349,97295
96411,97349
96349,97310
96383,97303
96370,97300
96429,97326
96452,97389
96453,97320
96437,97354
96454,97336
96487,97395
96552,97401
96559,97386
96579,97392
96660,97398
96733,97464
96747,97495
96747,97489
96788,97473
96808,97498
96878,97507
96912,97527
96896,97553
96921,97500
96934,97575
96951,97545
96986,97583
96971,97554
96961,97544
96954,97592
96962,97569
97034,97587
96966,97592
96960,97536
96994,97534
96996,97576
96998,97570
96998,97579
96942,97542
96983,97556
96999,97579
97000,97584
96969,97589
96953,97505
96981,97558
96979,97574
97028,97595
97026,97568
97009,97575
96985,97544
97067,97596
97069,97602
97058,97579
97078,97599
97058,97548
97137,97637
97146,97653
97144,97665
97133,97632
97196,97622
97221,97700
97238,97669
97249,97736
97266,97684
97287,97690
97345,97723
97388,97768
97366,97749
97379,97731
97442,97787
97490,97816
97495,97823
97528,97795
97565,97809
97602,97837
97636,97888
97693,97903
97672,97874
97741,97863
97718,97896
97803,97931
97816,97970
97862,97946
97840,97919
97899,97961
97952,97989
97948,98011
97935,98009
97963,97984
97986,97984
98060,98054
98081,98089
98083,98059
98096,98039
98124,98047
98204,98100
98170,98126
98213,98104
98216,98109
98265,98106
98340,98158
98312,98180
98326,98134
98320,98149
98364,98162
98394,98201
98403,98171
98446,98210
98419,98180
98473,98219
98498,98240
98540,98258
98479,98246
98486,98189
98571,98279
98574,98269
98614,98309
98616,98270
98594,98249
98650,98292
98640,98304
98701,98310
98651,98306
98625,98273
98705,98285
98744,98368
98704,98335
98754,98346
98675,98320
98717,98338
98776,98365
98756,98342
98816,98368
98766,98320
98808,98377
98844,98394
98882,98373
98881,98419
98831,98360
98947,98422
98946,98459
98981,98446
99016,98458
98985,98448
99056,98473
99098,98536
99123,98507
99159,98528
99146,98480
99203,98548
99213,98550
99253,98557
99253,98541
99253,98509
99237,98520
99239,98575
99120,98477
99025,98445
98875,98343
98758,98269
98605,98257
98423,98172
98243,98055
97995,97930
97894,97931
97761,97889
97590,97810
97457,97747
97315,97637
97254,97679
97176,97641
97082,97582
96981,97516
96911,97466
96873,97471
96849,97448
96782,97480
96741,97423
96623,97376
96659,97418
96642,97390
96603,97420
96570,97401
96553,97333
96599,97415
96597,97402
96614,97402
96625,97437
96593,97360
96670,97412
96696,97467
96697,97495
96704,97433
96726,97416
96780,97487
96817,97524
96824,97494
96848,97480
96837,97491
96908,97500
96948,97587
96915,97565
96934,97550
96964,97539
96977,97584
97019,97595
97015,97569
97051,97589
97024,97541
97059,97615
97060,97657
97080,97586
97092,97622
97118,97583
97140,97671
97219,97684
97176,97663
97205,97657
97247,97638
97296,97734
97365,97731
97341,97701
97396,97745
97335,97738
97395,97753
97455,97757
97403,97716
97410,97721
97360,97745
97408,97741
97455,97766
97361,97751
97344,97750
97356,97685
97395,97747
97386,97727
97344,97709
97360,97705
97311,97673
97361,97704
97372,97740
97314,97688
97296,97678
97334,97705
97316,97688
97366,97695
97318,97712
97341,97656
97326,97684
97345,97711
97395,97752
97399,97735
97362,97752
97350,97691
97432,97726
97423,97777
97433,97773
97439,97746
97482,97736
97523,97795
97516,97807
97549,97778
97537,97794
97520,97764
97622,97822
97618,97890
97635,97824
97642,97835
97649,97839
97679,97885
97716,97872
97727,97900
97709,97849
97749,97874
97778,97883
97840,97949
97812,97927
97831,97896
97871,97955
97946,97977
97967,97993
97961,97982
98020,97966
98023,98022
98125,98044
98172,98090
98178,98069
98211,98057
98257,98113
98308,98107
98373,98150
98348,98165
98387,98115
98410,98189
98506,98182
98521,98240
98508,98180
98533,98198
98609,98197
98661,98294
98663,98271
98719,98310
98714,98275
98781,98295
98821,98355
98846,98360
98850,98354
98876,98352
98897,98356
98951,98399
98967,98418
98992,98423
98985,98397
99003,98417
99071,98438
99059,98457
99067,98456
99054,98409
99043,98424
99124,98478
99114,98494
99119,98462
99102,98449
99122,98464
99180,98509
99196,98500
99165,98515
99175,98453
99219,98526
99228,98517
99257,98501
99242,98512
99220,98476
99257,98520
99320,98553
99294,98561
99330,98548
99315,98524
99340,98536
99395,98611
99355,98583
99398,98568
99365,98555
99370,98560
99453,98634
99441,98594
99476,98614
99443,98602
99461,98581
99489,98613
99507,98654
99533,98612
99490,98616
99498,98633
99577,98669
99602,98649
99592,98670
99569,98651
99641,98668
99687,98710
99660,98705
99657,98717
99675,98660
99689,98745
99688,98737
99728,98718
99758,98733
99748,98723
99778,98762
99800,98786
99839,98775
99844,98815
99795,98740
99904,98797
99958,98809
99916,98792
99952,98845
99901,98790
99988,98816
99996,98843
99929,98838
99879,98742
99792,98672
99661,98668
99521,98621
99309,98498
99108,98381
98814,98233
98684,98230
98495,98167
98271,98039
98123,97987
97898,97841
97851,97865
97709,97805
97586,97727
97455,97693
97294,97594
97274,97596
97202,97601
97141,97559
97042,97537
96936,97451
96967,97522
96913,97472
96890,97448
96853,97460
96774,97393
96859,97454
96823,97430
96810,97437
96809,97424
96748,97389
96808,97457
96808,97451
96860,97464
96851,97460
96860,97428
96866,97459
96940,97487
96923,97514
96945,97485
96928,97476
96988,97543
96983,97533
97021,97536
96993,97506
97020,97493
97026,97514
97090,97570
97083,97538
97059,97569
97003,97494
97061,97548
97102,97581
97062,97551
97063,97531
96994,97485
97084,97584
97072,97572
97081,97563
97085,97560
97051,97557
97109,97563
97183,97607
97155,97623
97184,97595
97183,97576
97209,97613
97280,97641
97250,97672
97308,97617
97282,97618
97312,97668
97331,97707
97337,97643
97341,97664
97304,97659
97347,97674
97340,97672
97325,97663
97289,97661
97323,97666
97318,97652
97360,97705
97305,97630
97292,97629
97270,97639
97296,97633
97282,97683
97288,97613
97282,97615
97282,97564
97289,97675
97276,97649
97290,97624
97267,97635
97287,97615
97372,97663
97355,97715
97378,97637
97369,97682
97382,97656
97455,97716
97480,97718
97512,97736
97481,97729
97532,97713
97589,97753
97646,97789
97684,97809
97673,97796
97681,97765
97766,97850
97801,97868
97862,97883
97872,97891
97882,97840
97991,97939
97998,97934
98051,97932
98065,97933
98065,97976
98166,98003
98215,98072
98250,98041
98238,98040
98312,98023
98376,98091
98414,98116
98462,98131
98450,98133
98494,98123
98514,98187
98561,98166
98599,98203
98580,98158
98582,98187
98663,98230
98660,98208
98685,98247
98695,98189
98751,98232
98788,98260
98803,98292
98822,98292
98797,98269
98840,98241
98876,98338
98903,98351
98892,98300
98887,98316
98918,98306
98975,98336
98972,98357
98950,98327
98978,98306
98940,98297
99037,98380
99014,98417
98998,98321
99002,98376
98995,98309
99049,98398
99080,98396
99029,98358
99057,98359
99035,98362
99054,98388
99111,98427
99101,98374
99069,98395
99047,98352
99069,98399
99134,98428
99120,98390
99092,98399
99090,98369
99127,98437
99187,98435
99114,98412
99129,98428
99141,98388
99216,98459
99194,98478
99216,98443
99204,98427
99208,98456
99266,98494
99290,98525
99299,98466
99280,98467
99356,98486
99366,98564
99361,98523
99409,98550
99374,98488
99426,98536
99469,98559
99494,98557
99472,98568
99480,98567
99544,98550
99611,98606
99579,98614
99580,98596
99621,98607
99691,98617
99708,98664
99745,98666
99737,98703
99711,98623
99804,98681
99822,98718
99853,98703
99864,98712
99845,98682
99919,98706
99961,98804
99912,98750
99959,98768
99938,98694
99973,98792
100025,98761
100032,98818
100020,98770
100062,98775
100066,98782
100103,98830
100142,98859
100126,98832
100130,98829
100200,98857
100222,98888
100280,98889
100267,98865
100298,98876
100318,98937
100346,98916
100393,98944
100399,98922
100395,98905
100470,98964
100458,99010
100447,98962
100431,98947
100409,98894
100370,98895
100278,98887
100089,98749
99888,98684
99642,98546
99438,98455
99185,98359
98889,98240
98727,98176
98506,98054
98401,98040
98246,97949
98053,97859
97948,97806
97778,97744
97709,97703
97624,97703
97524,97639
97431,97621
97326,97532
97357,97611
97304,97566
97260,97536
97193,97527
97160,97468
97202,97562
97206,97510
97172,97523
97178,97531
97143,97488
97228,97552
97245,97569
97236,97541
97259,97574
97249,97544
97309,97617
97324,97593
97406,97604
97373,97632
97392,97608
97472,97643
97511,97681
97494,97700
97517,97674
97565,97635
97599,97738
97626,97757
97665,97726
97657,97763
97607,97686
97700,97769
97687,97773
97678,97760
97681,97754
97658,97697
97717,97795
97746,97756
97739,97790
97754,97762
97717,97757
97815,97797
97821,97850
97811,97803
97861,97857
97843,97785
97953,97894
97962,97879
97967,97887
98037,97857
98025,97905
98107,97930
98140,97949
98122,97960
98085,97904
98131,97895
98157,97981
98187,97966
98164,97936
98166,97963
98098,97913
98196,97964
98198,97947
98163,97935
98152,97932
98156,97936
98167,97958
98200,98006
98161,97948
98146,97943
98126,97912
98146,97955
98142,97945
98151,97925
98111,97912
98112,97915
98154,97922
98182,97933
98143,97980
98174,97928
98192,97967
98210,97952
98248,97999
98267,98011
98263,97962
98299,97969
98360,98025
98363,98055
98420,98066
98434,98065
98428,98045
98471,98099
98505,98088
98542,98140
98549,98088
98570,98101
98639,98169
98651,98184
98707,98201
98706,98163
98696,98168
98793,98234
98821,98250
98833,98227
98834,98235
98891,98240
98923,98263
98972,98299
98967,98294
98997,98297
99004,98302
99081,98355
99098,98374
99119,98340
99118,98327
99109,98361
99194,98380
99239,98427
99208,98387
99247,98414
99260,98382
99362,98459
99352,98456
99332,98487
99340,98407
99374,98472
99371,98514
99410,98473
99434,98521
99431,98485
99486,98476
99488,98529
99488,98518
99515,98543
99457,98506
99515,98535
99531,98547
99529,98574
99539,98546
99540,98521
99586,98519
99612,98590
99580,98582
99596,98552
99611,98544
99592,98542
99656,98587
99660,98619
99666,98551
99664,98549
99683,98619
99702,98608
99708,98626
99764,98642
99750,98630
99748,98642
99777,98629
99804,98633
99801,98612
99805,98607
99782,98648
99825,98648
99839,98658
99834,98647
99816,98648
99864,98665
99880,98698
99825,98668
99905,98693
99855,98637
99916,98658
99945,98687
99970,98734
99947,98690
99954,98684
99972,98717
100054,98759
100001,98758
100055,98719
100022,98718
100047,98735
100129,98763
100117,98773
100110,98755
100107,98738
100140,98770
100217,98803
100190,98794
100230,98812
100219,98796
100247,98815
100305,98878
100269,98855
100332,98831
100319,98831
100317,98851
100383,98901
100362,98892
100405,98895
100369,98895
100444,98893
100437,98940
100491,98935
100486,98935
100518,98919
100531,98940
100619,98968
100598,98961
100617,98976
100607,98910
100668,99027
100726,98999
100703,98999
100761,99029
100718,98977
100747,99042
100819,99039
100833,99050
100813,99061
100821,99008
100823,99044
100842,99095
100735,99024
100663,98972
100461,98868
100314,98800
100128,98739
99862,98616
99650,98480
99334,98356
99176,98290
99010,98216
98827,98173
98677,98084
98505,98008
98426,97977
98323,97949
98202,97874
98098,97858
97950,97782
97971,97799
97916,97774
97877,97764
97801,97714
97757,97691
97775,97710
97767,97732
97709,97713
97684,97689
97680,97657
97754,97712
97765,97758
97741,97721
97777,97752
97787,97717
97822,97775
97878,97782
97910,97836
97929,97784
97950,97800
98012,97897
98041,97893
98083,97895
98116,97896
98148,97911
98205,97930
98256,97970
98241,97968
98300,97984
98281,97969
98360,97991
98399,98056
98379,98007
98464,98042
98402,97984
98500,98075
98468,98050
98510,98068
98534,98071
98461,98052
98591,98130
98546,98135
98598,98071
98607,98116
98629,98091
98652,98156
98722,98161
98746,98194
98790,98170
98768,98194
98822,98225
98858,98203
98856,98245
98803,98168
98810,98167
98846,98210
98847,98226
98767,98198
98757,98156
98765,98143
98742,98159
98736,98187
98685,98149
98686,98139
98589,98077
98641,98150
98592,98118
98614,98085
98529,98075
98549,98095
98584,98070
98550,98112
98500,98036
98501,98064
98474,98037
98510,98061
98549,98099
98484,98052
98507,98091
98502,98039
98522,98110
98534,98107
98586,98103
98528,98076
98540,98047
98631,98123
98655,98125
98628,98149
98618,98079
98681,98120
98701,98171
98721,98187
98729,98189
98732,98187
98748,98152
98848,98231
98823,98208
98845,98237
98892,98224
98863,98222
98955,98254
99024,98277
98988,98277
99035,98285
99055,98316
99148,98330
99166,98372
99194,98380
99212,98382
99213,98356
99289,98446
99302,98442
99342,98411
99331,98436
99329,98401
99430,98482
99443,98466
99469,98479
99454,98492
99465,98451
99566,98540
99562,98544
99573,98532
99577,98507
99574,98535
99674,98585
99700,98599
99685,98580
99690,98558
99686,98564
99786,98633
99773,98658
99810,98592
99805,98647
99804,98612
99878,98644
99933,98669
99857,98691
99908,98639
99906,98673
99970,98685
99964,98727
99979,98680
99931,98683
99906,98676
99987,98701
99979,98730
99947,98693
99972,98706
99970,98662
100015,98747
100000,98720
100007,98672
99984,98677
100004,98711
100039,98705
100105,98741
100090,98748
100062,98707
100054,98737
100093,98732
100121,98770
100083,98752
100091,98718
100117,98741
100127,98766
100214,98790
100144,98819
100153,98721
100209,98765
100196,98819
100238,98797
100207,98800
100192,98778
100292,98837
100280,98824
100309,98825
100257,98819
100303,98789
100314,98862
100338,98854
100391,98875
100410,98865
100380,98828
100398,98914
100435,98874
100454,98913
100476,98875
100487,98866
100477,98911
100523,98947
100525,98945
100548,98923
100545,98937
100579,98954
100637,98967
100610,99009
100634,98964
100624,98944
100686,98997
100749,98999
100725,99025
100758,99030
100734,99006
100839,99010
100866,99044
100864,99075
100899,99049
100864,99083
100895,99047
100972,99142
100976,99111
100985,99129
101007,99092
101013,99140
101081,99147
101067,99177
101097,99167
101084,99112
101163,99162
101207,99205
101181,99228
101226,99188
101191,99155
101265,99231
101280,99253
101210,99181
101222,99199
101025,99103
100950,99063
100746,98998
100548,98863
100268,98805
99961,98553
99815,98530
99510,98451
99334,98359
99172,98278
98977,98203
98896,98142
98757,98141
98604,98024
98495,97991
98352,97932
98340,97904
98274,97941
98165,97855
98129,97872
98026,97801
98059,97824
98067,97826
98023,97822
97953,97787
97923,97765
97991,97761
97981,97804
97946,97822
97960,97765
97977,97785
98001,97816
98032,97841
98075,97865
98058,97846
98083,97830
98138,97917
98170,97939
98231,97904
98245,97966
98237,97925
98332,97953
98373,98020
98390,98006
98373,98008
98407,97977
98487,98030
98515,98075
98490,98042
98527,98026
98536,98038
98591,98076
98601,98107
98569,98090
98620,98090
98577,98057
98642,98106
98683,98125
98646,98109
98622,98106
98660,98091
98692,98127
98712,98133
98696,98136
98723,98124
98759,98128
98798,98179
98856,98170
98799,98170
98820,98172
98826,98174
98881,98209
98877,98209
98849,98194
98854,98164
98840,98167
98888,98190
98875,98195
98842,98195
98819,98183
98802,98119
98863,98160
98875,98195
98796,98137
98789,98150
98770,98103
98789,98136
98810,98159
98761,98160
98762,98137
98705,98112
98784,98136
98800,98153
98732,98154
98769,98108
98686,98096
98755,98129
98736,98131
98756,98156
98774,98118
98750,98121
98763,98136
98816,98161
98846,98172
98809,98124
98848,98156
98875,98173
98917,98194
98911,98220
98912,98176
98928,98192
99024,98266
99009,98265
99032,98239
99030,98249
99047,98228
99129,98298
99160,98313
99212,98344
99215,98316
99256,98344
99298,98376
99348,98404
99364,98416
99417,98372
99399,98424
99494,98455
99552,98449
99528,98494
99566,98471
99587,98468
99604,98493
99675,98545
99685,98513
99688,98517
99726,98545
99793,98571
99818,98617
99818,98581
99812,98566
99860,98602
99921,98609
100003,98656
99946,98679
99999,98670
100022,98653
100080,98703
100085,98706
100122,98729
100081,98678
100116,98701
100198,98776
100195,98738
100172,98745
100168,98703
100256,98744
100255,98776
100290,98777
100304,98783
100246,98773
100250,98717
100345,98813
100316,98828
100354,98805
100296,98788
100306,98742
100402,98847
100402,98830
100392,98786
100363,98806
100431,98828
100416,98841
100463,98832
100481,98881
100462,98802
100475,98838
100477,98882
100523,98870
100555,98882
100478,98835
100540,98844
100549,98914
100559,98914
100538,98885
100548,98838
100571,98902
100619,98926
100598,98907
100619,98923
100553,98869
100591,98875
100626,98930
100647,98906
100612,98891
100604,98872
100659,98913
100659,98948
100665,98922
100682,98946
100651,98904
100750,98953
100760,98961
100788,98973
100747,98974
100781,98951
100796,98984
100834,99012
100867,98990
100883,99041
100848,98966
100893,99007
100958,99064
100931,99040
100940,99061
100937,99003
101013,99074
101032,99069
101006,99065
101031,99058
100978,99046
101075,99113
101087,99080
101070,99090
101064,99104
101039,99040
101128,99113
101126,99138
101143,99106
101188,99124
101152,99101
101162,99123
101236,99187
101211,99156
101265,99144
101243,99158
101284,99179
101322,99204
101319,99227
101370,99171
101347,99209
101439,99213
101430,99225
101453,99240
101467,99278
101479,99234
101505,99260
101549,99315
101521,99273
101517,99274
101446,99192
101436,99238
101272,99147
101125,99059
100865,98960
100605,98836
100377,98712
100130,98685
99839,98538
99674,98463
99456,98349
99307,98321
99184,98227
99061,98177
98899,98132
98798,98030
98716,98037
98643,98016
98516,98001
98461,97910
98343,97890
98371,97912
98337,97862
98272,97888
98242,97842
98186,97800
98257,97854
98211,97842
98230,97853
98235,97859
98180,97820
98275,97881
98277,97913
98306,97923
98315,97910
98358,97930
98386,97939
98477,97980
98483,97998
98533,98010
98533,97990
98602,98009
98691,98078
98669,98105
98725,98059
98746,98050
98818,98147
98842,98136
98876,98152
98855,98136
98901,98121
98963,98184
98936,98221
98977,98202
99018,98230
98957,98139
99043,98215
99032,98232
99048,98232
99015,98200
99046,98171
99053,98254
99091,98242
99110,98246
99143,98257
99136,98247
99212,98284
99239,98371
99244,98295
99287,98310
99313,98306
99322,98360
99370,98356
99401,98392
99338,98340
99369,98331
99360,98346
99395,98389
99358,98349
99304,98348
99290,98300
99336,98349
99322,98348
99326,98339
99275,98287
99279,98284
99292,98332
99296,98307
99288,98318
99268,98271
99223,98285
99244,98264
99278,98320
99222,98263
99218,98252
99215,98252
99186,98297
99220,98279
99214,98286
99177,98246
99188,98256
99249,98253
99263,98295
99214,98284
99256,98260
99252,98252
99271,98329
99317,98325
99356,98364
99319,98265
99352,98311
99424,98362
99426,98392
99395,98376
99424,98324
99497,98382
99493,98394
99571,98436
99547,98409
99583,98412
99609,98391
99645,98480
99639,98457
99642,98460
99690,98449
99681,98468
99784,98536
99780,98524
99785,98541
99803,98543
99829,98538
99875,98586
99900,98570
99962,98628
99927,98559
100009,98617
100019,98637
100096,98644
100044,98675
100105,98634
100134,98677
100180,98729
100210,98737
100282,98728
100251,98744
100291,98739
100354,98771
100387,98783
100396,98794
100405,98805
100403,98760
100513,98858
100494,98813
100517,98840
100521,98849
100534,98828
100603,98878
100615,98885
100628,98874
100623,98853
100651,98872
100660,98903
100723,98927
100651,98860
100691,98912
100708,98890
100780,98958
100752,98930
100778,98929
100745,98872
100802,98954
100807,98951
100840,98975
100852,98994
100831,98922
100842,98956
100901,98989
100919,98994
100891,98964
100929,98980
100904,99006
100927,98990
100961,99037
100973,98993
100931,98955
101007,99040
101004,99017
101044,99062
101022,99027
100997,99010
101023,99018
101059,99053
101078,99034
101098,99082
101069,99030
101081,99065
101133,99086
101097,99077
101131,99099
101098,99013
101164,99096
101172,99144
101178,99127
101138,99115
101114,99033
101228,99090
101191,99130
101233,99096
101224,99113
101191,99090
101207,99106
101276,99177
101257,99148
101277,99142
101305,99128
101292,99153
101376,99167
101366,99176
101372,99161
101373,99147
101421,99195
101504,99242
101475,99225
101530,99241
101512,99191
101555,99279
101603,99250
101603,99265
101575,99264
101591,99208
101671,99268
101667,99326
101614,99259
101551,99253
101415,99135
101339,99117
101163,99077
100920,98944
100683,98840
100397,98677
100237,98608
100007,98575
99784,98474
99606,98365
99450,98267
99342,98276
99276,98254
99159,98181
99023,98125
98889,98062
98849,98060
98802,98062
98724,98004
98643,97991
98591,97934
98607,97947
98575,97952
98584,97936
98559,97938
98486,97898
98546,97957
98530,97968
98564,97949
98595,97967
98590,97944
98636,97987
98695,98023
98731,98046
98747,98038
98732,97993
98855,98116
98896,98114
98906,98129
98906,98135
98965,98114
99025,98217
99094,98202
99095,98219
99136,98259
99145,98187
99265,98297
99313,98289
99305,98304
99363,98328
99356,98313
99384,98322
99420,98393
99405,98344
99449,98366
99417,98293
99520,98380
99522,98434
99569,98404
99541,98368
99607,98377
99641,98483
99686,98459
99732,98486
99728,98480
99772,98472
99803,98514
99846,98570
99865,98524
99911,98574
99834,98515
99912,98525
99911,98553
99897,98549
99880,98495
99820,98507
99860,98484
99835,98548
99837,98546
99784,98511
99734,98464
99774,98454
99749,98489
99726,98442
99663,98429
99697,98409
99676,98490
99688,98458
99625,98432
99632,98422
99645,98398
99620,98450
99628,98436
99646,98414
99570,98407
99600,98365
99662,98466
99671,98431
99614,98415
99643,98461
99604,98423
99721,98430
99740,98479
99737,98479
99737,98462
99725,98414
99821,98509
99834,98519
99805,98491
99847,98534
99865,98482
99879,98541
99961,98584
99956,98547
99957,98566
99945,98556
100005,98602
100019,98617
100053,98598
100045,98603
100063,98602
100157,98623
100125,98647
100168,98668
100216,98636
100170,98663
100210,98657
100295,98729
100252,98704
100282,98653
100256,98690
100369,98707
100368,98812
100372,98708
100366,98746
100405,98742
100456,98791
100492,98827
100485,98780
100513,98801
100522,98758
100591,98842
100601,98867
100591,98823
100593,98837
100604,98827
100674,98859
100711,98874
100705,98878
100678,98852
100733,98846
100764,98949
100808,98948
100762,98896
100813,98920
100770,98919
100863,98941
100849,98957
100859,98946
100885,98918
100920,98956
100959,98961
101007,98999
100949,98998
100947,98960
101047,99007
101021,99017
101056,99005
101103,99046
101060,98983
101086,98987
101116,99050
101118,99057
101142,99046
101093,99001
101134,99016
101138,99056
101180,99094
101168,99038
101182,99046
101177,99078
101219,99058
101209,99098
101252,99094
101203,99065
101236,99052
101304,99153
101303,99140
101295,99097
101330,99104
101359,99149
101410,99117
101423,99190
101411,99135
101410,99119
101413,99153
101478,99213
101527,99200
101459,99193
101469,99156
101490,99200
101545,99199
101568,99226
101536,99191
101520,99164
101565,99199
101595,99261
101603,99228
101639,99265
101594,99190
101683,99216
101700,99287
101713,99278
101738,99286
101701,99253
101784,99306
101783,99319
101857,99335
101815,99329
101817,99290
101905,99336
101891,99327
101990,99356
101904,99372
101935,99352
101980,99363
101977,99390
101971,99375
101879,99329
101826,99279
101701,99221
101553,99170
101345,99072
101117,98950
100841,98828
100589,98745
100369,98662
100149,98567
99919,98454
99732,98384
99646,98341
99510,98302
99382,98240
99223,98173
99122,98117
99071,98104
99007,98110
98932,98047
98857,98001
98778,97962
98751,97963
98751,97995
98695,98000
98669,97930
98618,97893
98687,97962
98693,97951
98693,97971
98651,97935
98703,97952
98713,97990
98739,97993
98815,98023
98830,98022
98817,97984
98921,98068
98938,98105
98981,98097
99017,98084
99038,98116
99057,98159
99159,98206
99182,98196
99187,98207
99204,98150
99297,98263
99314,98247
99349,98259
99389,98254
99335,98256
99402,98288
99438,98349
99434,98293
99448,98284
99413,98272
99473,98353
99535,98323
99504,98326
99514,98317
99499,98327
99546,98329
99576,98413
99631,98380
99618,98399
99630,98394
99703,98404
99763,98461
99758,98422
99739,98427
99762,98412
99812,98484
99794,98495
99795,98450
99775,98431
99793,98436
99769,98482
99800,98471
99783,98447
99770,98416
99729,98407
99725,98419
99764,98453
99731,98428
99703,98431
99685,98374
99679,98389
99721,98451
99703,98409
99674,98383
99658,98366
99697,98433
99709,98396
99675,98400
99685,98404
99603,98382
99651,98385
99685,98405
99646,98406
99652,98358
99610,98343
99712,98384
99713,98425
99736,98440
99691,98439
99697,98397
99775,98446
99784,98437
99785,98442
99831,98438
99788,98448
99885,98465
99875,98527
99883,98472
99936,98492
99938,98479
99982,98571
99989,98540
100005,98527
100046,98560
100040,98562
100111,98587
100135,98600
100156,98588
100135,98612
100196,98582
100247,98653
100272,98661
100264,98684
100288,98683
100283,98660
100361,98677
100381,98729
100403,98711
100385,98706
100461,98699
100492,98737
100541,98805
100519,98781
100539,98742
100583,98746
100641,98825
100626,98829
100652,98786
100671,98818
100682,98817
100729,98836
100766,98866
100783,98905
100760,98810
100806,98856
100829,98903
100896,98932
100817,98944
100872,98873
100878,98930
100948,98926
100980,98951
100947,98941
100958,98915
100942,98925
101023,98977
101075,98987
101049,98962
101046,98979
101010,98956
101098,98995
101098,99008
101124,99006
101072,98975
101138,98982
101151,99024
101213,99059
101167,99037
101192,98997
101214,99014
101243,99026
101276,99070
101259,99086
101239,99022
101254,99050
101350,99106
101320,99112
101325,99071
101354,99068
101354,99102
101381,99111
101369,99134
101407,99119
101364,99082
101413,99107
101464,99155
101483,99129
101472,99149
101428,99115
101480,99109
101469,99172
101499,99161
101515,99158
101518,99138
101539,99179
101583,99162
101577,99247
101582,99154
101567,99128
101597,99177
101661,99219
101651,99223
101623,99198
101662,99196
101681,99207
101720,99261
101712,99258
101769,99245
101741,99217
101755,99262
101811,99301
101820,99271
101824,99285
101811,99261
101883,99314
101928,99329
101923,99306
101935,99320
101938,99305
101986,99350
102011,99370
102015,99371
102036,99361
101992,99334
101993,99346
102016,99332
101953,99335
101891,99303
101723,99178
101593,99161
101379,99064
101177,98947
100917,98868
100602,98670
100373,98606
100171,98517
100002,98442
99810,98386
99651,98264
99547,98252
99438,98197
99341,98180
99179,98122
99101,98057
99046,98050
98962,98033
98919,98002
98846,97965
98777,97925
98769,97931
98769,97956
98752,97924
98712,97907
98695,97875
98716,97925
98722,97942
98712,97930
98747,97934
98717,97911
98799,97957
98836,97987
98839,98006
98877,98015
98906,97996
98947,98031
99002,98081
99041,98108
99062,98107
99073,98048
99163,98123
99210,98161
99239,98179
99238,98180
99264,98165
99312,98202
99386,98229
99384,98227
99403,98238
99387,98200
99427,98240
99485,98297
99473,98270
99476,98251
99458,98218
99478,98282
99536,98299
99502,98282
99547,98296
99536,98272
99602,98321
99644,98367
99623,98357
99670,98353
99693,98358
99725,98400
99775,98402
99800,98435
99780,98373
99765,98385
99840,98419
99842,98442
99868,98430
99799,98394
99804,98366
99828,98391
99826,98424
99770,98398
99818,98399
99730,98386
99744,98353
99820,98438
99763,98390
99739,98368
99749,98346
99755,98401
99797,98392
99762,98387
99746,98360
99689,98331
99757,98379
99746,98385
99747,98389
99740,98389
99698,98317
99783,98388
99746,98377
99766,98383
99756,98369
99719,98356
99783,98415
99828,98408
99834,98424
99816,98366
99798,98401
99868,98440
99901,98490
99895,98432
99960,98474
99946,98413
99988,98488
100067,98512
100001,98492
100016,98515
100033,98479
100103,98558
100123,98537
100152,98530
100122,98535
100117,98517
100207,98587
100260,98591
100208,98590
100263,98620
100234,98601
100318,98617
100362,98635
100384,98654
100346,98628
100381,98638
100414,98665
100473,98708
100472,98707
100487,98670
100515,98687
100561,98740
100622,98755
100568,98756
100619,98742
100639,98749
100701,98781
100732,98825
100724,98793
100745,98796
100768,98807
100822,98843
100849,98855
100822,98846
100858,98845
100897,98841
100918,98898
100961,98902
100964,98899
100923,98879
100959,98856
100984,98923
101015,98950
101036,98932
101007,98906
101021,98917
101099,98952
101059,98980
101089,98957
101078,98917
101109,98947
101154,98960
101152,98988
101194,98978
101172,98970
101177,98973
101231,99016
101259,99034
101289,99031
101235,98985
101262,99010
101321,99041
101336,99069
101330,99043
101288,99000
101346,99035
101418,99058
101386,99073
101372,99095
101406,99043
101360,99030
101441,99072
101455,99085
101434,99093
101432,99064
101406,99076
101483,99104
101478,99109
101493,99115
101449,99057
101484,99121
101530,99113
101528,99137
101503,99111
101498,99105
101524,99108
101576,99156
101585,99148
101595,99142
101568,99113
101613,99148
101654,99169
101664,99184
101657,99169
101678,99169
101726,99156
101719,99198
101746,99201
101742,99206
101735,99181
101803,99211
101862,99241
101864,99268
101878,99257
101830,99230
101873,99261
101937,99290
101926,99294
101919,99282
101936,99256
101947,99266
102000,99327
101949,99298
101893,99278
101782,99179
101660,99148
101554,99106
101344,99003
101097,98871
100835,98739
100583,98664
100369,98583
100174,98490
99918,98389
99777,98305
99673,98253
99584,98247
99457,98172
99301,98121
99181,98060
99146,98020
99077,98025
99024,98002
98890,97940
98815,97879
98833,97894
98807,97914
98783,97891
98729,97870
98696,97852
98730,97882
98742,97890
98733,97907
98756,97900
98734,97904
98803,97919
98831,97929
98866,97956
98867,97972
98865,97942
98961,97977
99032,98031
99039,98035
99052,98077
99082,98020
99180,98072
99202,98128
99245,98131
99255,98147
99264,98113
99356,98190
99400,98183
99415,98218
99377,98172
99426,98195
99450,98234
99493,98257
99455,98246
99497,98202
99441,98210
99539,98244
99560,98283
99549,98274
99564,98244
99544,98241
99646,98293
99687,98340
99672,98343
99715,98351
99738,98296
99763,98352
99789,98387
99821,98362
99831,98400
99814,98334
99844,98376
99875,98392
99903,98382
99842,98424
99850,98337
99870,98399
99894,98422
99887,98413
99818,98367
99799,98361
99843,98386
99838,98388
99863,98378
99814,98401
99787,98346
99832,98378
99859,98416
99822,98363
99854,98377
99783,98311
99808,98384
99852,98407
99840,98393
99848,98350
99787,98317
99865,98397
99851,98415
99867,98405
99868,98378
99831,98382
99924,98413
99963,98465
99876,98435
99921,98387
99915,98393
99980,98492
100015,98458
99999,98462
99964,98437
99983,98433
100045,98480
100059,98495
100075,98514
100073,98466
100036,98458
100132,98512
100141,98531
100124,98500
100119,98527
100162,98529
100237,98543
100217,98580
100234,98563
100265,98589
100270,98556
100283,98601
100333,98610
100353,98605
100349,98625
100343,98599
100401,98650
100459,98660
100421,98642
100455,98650
100453,98630
100510,98707
100525,98718
100548,98709
100540,98687
100544,98678
100630,98728
100639,98771
100640,98746
100632,98720
100613,98711
100668,98766
100728,98785
100693,98765
100742,98769
100742,98749
100738,98806
100785,98808
100802,98824
100792,98803
100786,98791
100856,98824
100897,98853
100926,98833
100879,98813
100895,98824
100967,98869
101013,98887
101015,98867
100991,98860
100985,98852
101065,98901
101094,98922
101078,98901
101047,98891
101099,98919
101146,98952
101161,98954
101159,98927
101123,98914
101173,98949
101216,98967
101211,98965
101233,98955
101204,98944
101226,98939
101242,98962
101283,98997
101277,98979
101288,98970
101270,98974
101305,99015
101336,99036
101359,99021
101359,98995
101348,98989
101403,99038
101408,99042
101416,99052
101417,99021
101402,99013
101476,99062
101484,99063
101489,99094
101487,99042
101472,99033
101532,99079
101590,99104
101547,99101
101569,99062
101553,99079
101607,99102
101610,99123
101608,99131
101608,99108
101577,99098
101659,99148
101686,99148
101633,99132
101663,99108
101700,99142
101736,99153
101748,99175
101752,99154
101755,99132
101791,99160
101830,99216
101800,99232
101823,99189
101836,99162
101874,99224
101890,99204
101910,99259
101930,99215
101843,99151
101829,99192
101703,99119
101583,99083
101419,98973
101143,98857
100981,98771
100717,98682
100519,98625
100335,98494
100098,98362
100001,98362
99816,98296
99703,98284
99593,98210
99476,98136
99374,98105
99370,98102
99268,98081
99170,97984
99076,97977
99079,97954
99077,97975
99023,97968
98994,97938
98965,97926
98996,97933
98985,97947
99024,97980
98981,97982
99000,97924
99045,97980
99088,97986
99152,98012
99144,98066
99149,97982
99205,98051
99323,98119
99350,98144
99360,98131
99400,98175
99480,98194
99587,98241
99614,98260
99642,98275
99669,98217
99747,98314
99813,98341
99830,98386
99842,98316
99868,98355
99942,98383
99950,98418
100025,98416
100040,98427
99990,98432
100106,98468
100135,98493
100115,98501
100157,98466
100202,98490
100230,98532
100275,98545
100300,98534
100325,98587
100370,98531
100392,98563
100396,98601
100410,98608
100450,98574
100366,98549
100439,98608
100455,98606
100434,98629
100374,98575
100369,98560
100371,98560
100377,98564
100351,98555
100300,98535
100295,98515
100294,98502
100305,98505
100262,98518
100237,98499
100204,98425
100230,98487
100245,98527
100171,98475
100163,98465
100106,98435
100159,98439
100150,98477
100156,98450
100103,98477
100085,98403
100135,98472
100137,98499
100080,98444
100150,98443
100064,98413
100141,98472
100181,98488
100178,98516
100181,98442
100152,98479
100230,98491
100258,98541
100254,98490
100294,98551
100297,98480
100312,98562
100364,98611
100348,98570
100385,98544
100364,98560
100490,98601
100497,98623
100522,98620
100534,98619
100528,98596
100561,98642
100626,98713
100603,98661
100687,98699
100652,98647
100716,98706
100786,98761
100749,98724
100795,98700
100747,98696
100852,98758
100916,98776
100907,98803
100874,98780
100906,98771
100978,98789
100992,98812
101032,98828
101024,98855
101026,98824
101068,98870
101112,98899
101122,98885
101161,98905
101156,98857
101162,98895
101201,98961
101198,98903
101211,98923
101198,98890
101234,98946
101276,98952
101289,98935
101302,98966
101303,98929
101325,98980
101375,99001
101327,98983
101358,98956
101335,98945
101417,98993
101392,99036
101354,99007
101435,98986
101397,98963
101455,99015
101483,99029
101482,99018
101476,98988
101428,98986
101507,99042
101500,99040
101516,99040
101494,99020
101465,99025
101543,99058
101544,99098
101522,99057
101552,99042
101555,99033
101616,99071
101601,99095
101599,99065
101607,99081
101601,99037
101661,99111
101684,99086
101649,99111
101662,99044
101645,99079
101713,99109
101712,99149
101717,99106
101721,99108
101727,99125
101784,99115
101807,99171
101808,99135
101807,99154
101806,99143
101875,99173
101870,99176
101871,99202
101881,99173
101909,99158
101964,99231
101967,99230
101960,99222
101922,99189
101943,99166
101952,99241
101932,99176
101803,99130
101643,99047
101476,98927
101322,98890
101059,98804
100827,98651
100572,98587
100318,98451
100147,98378
100011,98330
99806,98268
99662,98142
99542,98099
99450,98086
99380,98040
99219,97999
99120,97904
99043,97883
98994,97897
98953,97890
98876,97836
98783,97772
98757,97772
98775,97801
98773,97813
98720,97779
98706,97749
98682,97751
98742,97824
98778,97816
98745,97802
98761,97780
98798,97835
98897,97851
98887,97852
98907,97883
98925,97865
98976,97913
99033,97937
99083,97945
99098,97953
99110,97975
99141,97971
99229,98033
99214,98038
99276,98024
99246,98022
99281,98038
99362,98083
99367,98112
99335,98083
99400,98078
99394,98079
99432,98084
99467,98133
99414,98110
99444,98094
99445,98131
99501,98120
99435,98165
99478,98124
99478,98097
99494,98141
99505,98147
99560,98187
99569,98177
99575,98173
99576,98168
99641,98248
99682,98249
99648,98225
99642,98232
99666,98208
99744,98276
99707,98229
99696,98248
99670,98225
99722,98232
99725,98249
99726,98266
99729,98232
99705,98214
99698,98240
99748,98225
99724,98235
99715,98257
99686,98184
99714,98239
99699,98214
99673,98234
99712,98218
99621,98166
99701,98204
99678,98241
99659,98228
99672,98248
99648,98190
99655,98202
99704,98257
99715,98235
99679,98215
99619,98167
99696,98243
99756,98246
99726,98230
99766,98239
99732,98255
99742,98246
99851,98298
99866,98299
99865,98289
99808,98246
99933,98314
99912,98363
99940,98368
99983,98374
99973,98352
100012,98355
100079,98418
100113,98398
100057,98401
100077,98344
100134,98411
100203,98465
100215,98443
100198,98455
100205,98462
100274,98466
100294,98514
100325,98520
100348,98516
100320,98505
100340,98502
100452,98573
100425,98540
100449,98531
100434,98530
100469,98585
100554,98611
100568,98593
100524,98599
100549,98576
100595,98631
100665,98608
100666,98641
100680,98672
100672,98609
100724,98673
100750,98656
100800,98681
100756,98706
100761,98648
100822,98708
100886,98736
100851,98730
100850,98732
100839,98677
100930,98764
100943,98774
100948,98752
100905,98768
100944,98735
100955,98805
100969,98764
100962,98751
101007,98801
100949,98743
101026,98774
101036,98825
101032,98806
101054,98794
101026,98803
101063,98799
101103,98870
101086,98856
101091,98835
101100,98777
101112,98850
101176,98869
101147,98855
101144,98812
101164,98817
101145,98842
101247,98912
101220,98886
101180,98892
101168,98811
101228,98875
101212,98932
101218,98888
101262,98870
101215,98864
101238,98890
101296,98908
101271,98909
101257,98880
101292,98885
101306,98945
101371,98913
101355,98921
101346,98918
101317,98894
101395,98958
101454,98962
101389,98956
101450,98957
101429,98972
101461,98990
101560,99010
101535,98992
101527,99014
101518,98958
101579,99007
101527,98986
101492,98977
101389,98908
101283,98856
101124,98815
100917,98736
100707,98600
100434,98494
100225,98335
100012,98331
99808,98213
99658,98124
99494,98073
99339,98006
99289,98007
99154,97926
98998,97845
98881,97790
98792,97745
98741,97781
98682,97674
98609,97674
98533,97641
98482,97660
98441,97616
98452,97661
98379,97613
98388,97551
98365,97574
98358,97607
98421,97664
98393,97625
98372,97588
98417,97591
98417,97656
98474,97679
98427,97664
98482,97648
98511,97667
98605,97690
98604,97759
98605,97726
98654,97714
98661,97759
98702,97789
98763,97807
98770,97793
98762,97813
98767,97794
98877,97836
98864,97874
98882,97851
98878,97853
98890,97813
98950,97871
98959,97878
98958,97857
98941,97876
98961,97850
98968,97879
99031,97945
98990,97896
98993,97868
99000,97895
99045,97897
99072,97927
99031,97926
99061,97885
99106,97905
99168,97997
99161,97976
99156,97948
99146,97929
99186,97975
99187,97975
99217,98028
99211,98001
99164,97957
99204,97974
99198,98009
99212,98022
99170,97972
99164,97969
99204,97947
99203,98003
99223,97996
99166,97975
99133,97960
99155,97936
99177,97996
99218,97954
99169,97977
99086,97934
99135,97941
99127,97953
99150,97992
99130,97939
99088,97899
99150,97935
99139,97984
99126,97969
99132,97944
99143,97899
99171,97950
99197,97989
99237,98008
99219,97980
99188,97939
99269,97994
99254,98049
99299,98049
99294,98023
99309,98014
99347,98048
99376,98057
99423,98093
99433,98078
99404,98043
99451,98114
99478,98112
99560,98135
99512,98114
99554,98126
99576,98123
99607,98181
99615,98146
99669,98174
99618,98145
99680,98172
99746,98205
99771,98218
99739,98251
99763,98194
99820,98236
99825,98278
99868,98264
99900,98300
99874,98219
99952,98284
99966,98340
100014,98352
99991,98327
100010,98309
100014,98327
100109,98383
100085,98367
100108,98384
100130,98355
100125,98377
100174,98431
100174,98421
100164,98377
100174,98412
100184,98429
100228,98466
100243,98452
100242,98443
100211,98411
100294,98435
100282,98504
100323,98467
100340,98472
100332,98449
100364,98499
100422,98496
100366,98512
100361,98500
100375,98475
100411,98483
100473,98562
100468,98529
100453,98509
100435,98491
100490,98524
100487,98587
100525,98539
100535,98538
100469,98522
100555,98583
100610,98554
100581,98582
100594,98569
100615,98543
100606,98618
100619,98638
100613,98601
100636,98593
100605,98581
100642,98590
100717,98632
100720,98622
100678,98619
100645,98585
100752,98641
100741,98653
100735,98638
100729,98626
100726,98603
100789,98649
100777,98673
100797,98671
100787,98680
100786,98638
100827,98698
100865,98711
100861,98690
100881,98730
100876,98677
100916,98722
100983,98747
100959,98735
101001,98740
100973,98716
101022,98767
101078,98768
101041,98772
101084,98776
101053,98724
101092,98788
101079,98758
101060,98742
100927,98677
100811,98646
100656,98587
100539,98505
100291,98402
100030,98290
99813,98134
99664,98120
99485,98046
99321,97967
99165,97892
99007,97780
98930,97812
98778,97724
98662,97675
98583,97629
98439,97556
98387,97604
98363,97563
98280,97529
98212,97474
98123,97444
98169,97458
98141,97472
98068,97452
98062,97387
97993,97372
98076,97447
98078,97458
98030,97435
98046,97419
98019,97388
98120,97448
98181,97491
98130,97504
98176,97489
98136,97451
98249,97514
98229,97539
98284,97541
98297,97563
98305,97520
98349,97607
98407,97617
98438,97596
98462,97590
98456,97600
98482,97677
98525,97630
98549,97649
98549,97633
98555,97669
98575,97694
98615,97682
98612,97694
98552,97673
98569,97662
98636,97720
98621,97700
98615,97705
98666,97704
98647,97722
98685,97723
98764,97778
98757,97743
98750,97766
98773,97743
98850,97800
98864,97805
98882,97794
98890,97786
98864,97792
98942,97818
98919,97844
98920,97835
98907,97768
98926,97821
98890,97811
98920,97819
98890,97806
98836,97795
98845,97763
98897,97814
98831,97824
98854,97804
98842,97757
98839,97769
98847,97819
98864,97787
98817,97779
98824,97749
98776,97762
98812,97762
98797,97811
98789,97774
98782,97729
98787,97754
98827,97803
98828,97752
98822,97744
98790,97734
98785,97753
98820,97770
98880,97823
98871,97795
98865,97753
98898,97804
98908,97804
98989,97891
98968,97853
98944,97822
98992,97824
99059,97878
99063,97889
99095,97909
99091,97872
99136,97910
99178,97926
99194,97958
99188,97956
99257,97957
99245,97933
99347,98011
99305,97986
99336,98018
99337,97989
99379,97980
99455,98061
99455,98045
99457,98049
99458,98047
99513,98064
99539,98124
99617,98130
99617,98147
99615,98079
99629,98137
99703,98127
99723,98190
99735,98181
99768,98134
99778,98190
99800,98216
99823,98213
99827,98240
99805,98201
99877,98248
99916,98238
99949,98257
99926,98258
99957,98241
99972,98293
99981,98301
100027,98339
100033,98306
100015,98275
100040,98327
100053,98302
100101,98361
100088,98327
100080,98340
100098,98338
100218,98336
100188,98380
100209,98385
100206,98328
100238,98418
