11111,11111
0,0
3268,4270
3482,4593
3713,4960
3989,5333
4334,5849
4669,6396
5126,7035
5672,7791
6331,8699
7074,9814
7942,11010
8872,12341
9809,13699
10789,15055
11653,16266
12317,17155
12615,17578
12495,17419
12168,16961
11770,16426
11328,15841
10872,15173
10460,14558
9987,13961
9644,13446
9320,13061
9102,12717
8873,12402
8690,12131
8585,11985
8521,11878
8512,11902
8552,11904
8638,12087
8735,12237
8965,12530
9258,12944
9579,13446
9925,13900
10289,14392
10617,14810
10889,15225
11118,15575
11358,15892
11602,16238
11816,16525
12062,16803
12271,17170
12543,17469
12819,17876
13138,18341
13496,18839
13933,19414
14378,20035
14842,20694
15400,21507
16177,22548
17057,23766
18138,25230
19237,26783
20314,28252
21319,29586
22233,30861
23042,31997
23891,33116
24622,34148
25311,35037
25844,35707
26232,36290
26655,36820
27162,37557
27821,38453
28716,39651
29772,41115
31062,42861
32581,44876
34328,47272
36317,49860
38603,52897
41327,56407
44369,60369
47675,64586
51061,68696
54422,72769
57559,76325
60156,78999
62086,80530
63417,80981
63830,79811
63507,77581
66752,80039
71715,84262
74177,86412
75361,87647
76900,89176
78829,91178
80625,93089
81992,94600
83094,95921
84130,96971
85043,97918
85808,98562
86505,99138
87047,99577
87641,99923
88173,100277
88715,100552
89310,100900
89860,101196
90430,101498
91048,101835
91731,102196
92467,102602
93241,103053
94017,103444
94881,103906
95713,104348
96620,104873
97456,105331
98295,105818
99090,106315
99915,106818
100723,107231
101474,107671
109349,111715
110689,112277
110617,112228
110407,112086
110431,112115
110471,112102
111769,112697
111845,112749
111921,112778
111970,112798
113055,113320
113133,113347
113109,113344
113079,113348
113094,113302
113102,113303
113034,113280
113049,113285
112974,113268
112911,113223
112882,113189
112799,113179
112776,113118
112693,113105
112623,113101
112554,113037
112458,113000
112401,112950
112378,112978
112322,112918
112263,112898
112190,112865
112139,112821
112126,112839
112057,112825
112021,112771
111983,112750
111962,112745
111904,112722
111872,112729
111863,112713
111820,112692
111811,112689
111756,112696
111746,112679
111743,112677
111735,112654
111718,112683
111693,112637
111705,112652
111694,112606
111675,112651
111695,112629
111687,112642
111658,112608
111647,112652
111671,112626
111652,112638
111628,112666
111612,112638
111650,112616
111626,112651
111646,112605
111612,112604
111630,112630
111582,112635
111604,112604
111597,112636
111576,112626
111566,112615
111587,112619
111572,112607
111580,112607
111534,112608
111577,112616
111538,112599
111559,112564
111544,112598
111556,112606
111526,112620
111502,112577
111541,112600
111499,112622
111480,112552
111518,112580
111461,112590
111464,112551
111483,112572
111446,112574
111451,112553
111419,112573
111412,112540
111444,112561
111385,112571
111383,112552
111384,112541
111353,112530
111363,112526
111299,112520
111299,112512
111226,112454
111156,112445
111116,112444
110996,112329
110947,112321
110818,112306
110675,112175
110551,112133
110462,112104
110298,112002
110129,111938
109981,111837
109843,111777
109666,111691
109507,111633
109349,111553
109177,111490
109010,111354
108916,111363
108746,111259
108588,111215
108516,111182
108407,111117
108273,111058
108188,110984
108073,110978
108008,110939
107935,110912
107806,110855
107762,110817
107732,110829
107648,110797
107608,110760
107586,110724
107539,110753
107468,110699
107464,110705
107417,110686
107397,110712
107384,110690
107344,110641
107360,110652
107312,110678
107298,110627
107283,110645
107288,110655
107281,110619
107233,110642
107264,110642
107258,110647
107273,110636
107280,110605
107314,110669
107282,110646
107311,110640
107371,110692
107388,110683
107372,110706
107434,110674
107454,110713
107468,110727
107544,110776
107568,110779
107641,110799
107657,110818
107732,110841
107734,110897
107793,110890
107795,110884
107837,110913
107859,110925
107912,110943
107930,110928
107952,110957
107990,111006
108008,111004
107964,110986
108003,110976
108013,111024
108012,110984
108028,111005
108006,111035
107996,111010
108051,111028
107995,111035
107986,111004
108016,111016
108015,111024
107979,110981
108036,111020
107987,111035
107932,111011
107996,111003
107965,111012
107934,110990
107972,111019
107923,110975
107918,110978
107931,111011
107912,110959
107932,110961
107928,110974
107886,110967
107889,110972
107882,110964
107901,110970
107912,110978
107887,110972
107855,110967
107891,110947
107909,110977
107879,110950
107891,110941
107853,110971
107875,110938
107881,110983
107868,110964
107917,111006
107889,110959
107922,110959
107926,111001
107964,110986
107941,110999
107955,110999
107994,111004
107995,110994
108043,111011
108011,111031
108041,111069
108050,111045
108106,111052
108136,111083
108116,111052
108187,111078
108155,111080
108198,111115
108219,111086
108292,111164
108242,111129
108288,111142
108327,111141
108329,111150
108393,111199
108358,111180
108409,111194
108443,111205
108442,111219
108474,111202
108469,111242
108518,111250
108498,111237
108535,111249
108588,111289
108623,111247
108629,111313
108638,111283
108672,111294
108654,111283
108677,111309
108673,111310
108737,111340
108740,111364
108773,111324
108782,111351
108829,111375
108823,111357
108894,111378
108896,111441
108927,111408
108959,111444
108962,111442
109006,111453
109006,111444
108997,111447
109037,111475
109006,111441
108978,111437
108943,111385
108918,111363
108821,111362
108743,111297
108618,111269
108565,111213
108448,111136
108355,111091
108206,111010
108117,110964
107960,110879
107831,110845
107726,110792
107569,110754
107438,110630
107355,110619
107214,110563
107098,110498
107026,110449
106899,110421
106813,110326
106718,110337
106679,110291
106626,110262
106543,110223
106514,110247
106457,110196
106446,110187
106443,110211
106427,110194
106387,110182
106395,110154
106364,110190
106354,110132
106385,110167
106364,110174
106383,110172
106398,110213
106405,110177
106463,110211
106442,110172
106474,110215
106488,110239
106484,110211
106564,110266
106534,110249
106575,110302
106563,110289
106622,110284
106625,110294
106633,110338
106697,110307
106702,110324
106699,110350
106746,110354
106762,110400
106801,110369
106819,110420
106832,110398
106879,110425
106940,110445
106964,110431
107007,110508
107035,110469
107057,110518
107077,110551
107117,110551
107190,110565
107187,110569
107225,110598
107238,110623
107249,110616
107335,110628
107327,110658
107389,110669
107373,110677
107362,110645
107429,110659
107424,110695
107403,110688
107458,110693
107467,110695
107474,110697
107461,110701
107493,110721
107505,110704
107463,110720
107480,110725
107476,110704
107502,110721
107479,110709
107467,110724
107496,110721
107471,110720
107483,110697
107477,110719
107488,110721
107476,110718
107458,110715
107481,110732
107472,110719
107496,110733
107503,110732
107480,110729
107531,110734
107521,110733
107533,110751
107533,110755
107548,110741
107525,110760
107607,110769
107608,110782
107593,110784
107636,110786
107663,110826
107653,110787
107644,110810
107708,110829
107719,110846
107698,110838
107750,110852
107743,110852
107728,110866
107790,110871
107774,110859
107830,110923
107851,110912
107843,110896
107885,110910
107885,110927
107922,110945
107919,110943
107925,110945
107937,110986
107940,110960
107990,110995
107984,110982
107980,110977
108021,110961
108052,111047
108042,110990
108074,111008
108121,111021
108088,111071
108092,111023
108176,111076
108164,111068
108171,111073
108208,111072
108223,111068
108259,111139
108254,111107
108324,111091
108340,111158
108389,111148
108372,111154
108423,111187
108458,111183
108496,111213
108475,111197
108561,111272
108535,111250
108536,111233
108617,111245
108606,111276
108607,111259
108636,111286
108641,111301
108670,111280
108717,111329
108705,111296
108733,111327
108681,111317
108682,111290
108656,111303
108632,111235
108568,111226
108470,111185
108454,111133
108309,111130
108255,111039
108120,110994
108027,110949
107911,110903
107803,110797
107648,110741
107557,110702
107442,110638
107311,110592
107204,110528
107092,110498
107035,110446
106932,110397
106859,110356
106756,110303
106749,110318
106664,110264
106611,110249
106587,110222
106577,110236
106556,110217
106495,110209
106540,110215
106526,110222
106514,110206
106519,110210
106544,110219
106561,110234
106577,110221
106587,110271
106656,110244
106648,110282
106672,110291
106738,110297
106735,110306
106807,110368
106817,110346
106852,110356
106922,110392
106908,110375
106953,110449
106978,110428
107024,110439
107017,110458
107124,110490
107141,110502
107149,110537
107188,110508
107235,110541
107223,110574
107304,110574
107333,110579
107360,110636
107388,110624
107437,110633
107476,110655
107526,110708
107550,110677
107584,110722
107646,110733
107633,110736
107726,110744
107738,110828
107767,110801
107823,110808
107859,110830
107846,110853
107926,110864
107900,110895
107938,110869
107961,110883
108003,110895
108000,110889
108036,110918
108004,110926
108030,110904
108045,110920
108065,110925
108034,110948
108018,110876
108014,110917
108014,110909
108020,110900
107987,110899
107962,110862
107966,110872
107972,110858
107981,110851
107966,110878
107950,110829
107929,110849
107935,110874
107921,110845
107927,110860
107914,110822
107926,110871
107936,110848
107913,110837
107964,110847
107939,110835
107950,110878
107972,110842
107926,110827
107970,110858
107955,110893
107974,110861
107957,110881
108021,110886
107994,110899
107971,110857
108006,110877
108016,110892
108035,110926
108015,110912
108053,110884
108050,110899
108094,110918
108086,110913
108075,110925
108137,110917
108122,110911
108140,110941
108179,110959
108205,110973
108205,110986
108232,111005
108237,110999
108247,111002
108301,110991
108333,111023
108323,110998
108365,111021
108355,111010
108407,111066
108375,111093
108419,111064
108399,111096
108445,111106
108420,111098
108465,111089
108466,111107
108485,111111
108456,111122
108494,111108
108515,111140
108489,111109
108524,111116
108541,111129
108585,111141
108594,111137
108601,111191
108586,111138
108635,111168
108623,111162
108657,111196
108646,111159
108649,111169
108610,111174
108629,111155
108598,111135
108544,111125
108487,111106
108455,111059
108343,111054
108291,110976
108183,110934
108056,110882
107957,110818
107861,110741
107746,110710
107599,110611
107496,110591
107342,110460
107254,110450
107106,110395
106983,110310
106897,110269
106820,110240
106689,110199
106610,110155
106545,110077
106524,110111
106426,110038
106381,110041
106361,110017
106322,109982
106340,109993
106276,110007
106264,109971
106286,109998
106279,109963
106259,109993
106279,109975
106313,110013
106271,109994
106324,110006
106292,110038
106323,110020
106333,110038
106339,110045
106341,110009
106377,110063
106398,110038
106397,110061
106416,110088
106406,110058
106474,110077
106478,110107
106490,110104
106484,110103
106498,110112
106518,110079
106515,110135
106555,110116
106538,110129
106582,110124
106635,110177
106614,110133
106663,110177
106707,110177
106713,110209
106746,110238
106765,110181
106800,110243
106812,110225
106841,110258
106863,110257
106918,110288
106928,110306
106972,110300
106983,110353
107013,110331
107034,110363
107019,110340
107050,110364
107055,110360
107092,110356
107095,110350
107087,110359
107096,110350
107098,110346
107108,110377
107093,110343
107102,110345
107057,110328
107072,110324
107070,110345
107063,110314
107035,110316
107011,110329
106987,110302
107007,110279
106998,110319
106965,110287
107000,110271
106962,110251
106982,110265
106984,110271
106983,110308
106980,110261
106986,110279
106974,110301
107002,110248
107017,110288
107003,110268
107024,110291
107044,110279
107032,110287
107062,110331
107053,110298
107065,110318
107093,110315
107102,110333
107087,110313
107139,110379
107130,110368
107167,110333
107192,110379
107182,110401
107247,110384
107215,110407
107258,110437
107266,110405
107329,110434
107318,110426
107333,110435
107409,110458
107425,110487
107430,110485
107509,110528
107506,110513
107546,110537
107560,110551
107638,110561
107615,110579
107643,110575
107739,110613
107717,110637
107778,110655
107802,110638
107851,110664
107852,110710
107919,110706
107926,110711
107974,110731
108041,110742
108010,110743
108086,110763
108107,110773
108153,110808
108147,110816
108187,110827
108204,110843
108241,110860
108278,110881
108291,110876
108311,110890
108350,110916
108366,110913
108398,110927
108436,110943
108475,110953
108521,110962
108541,110995
108554,110998
108597,111034
108620,111034
108629,111065
108642,111016
108619,111023
108566,111000
108589,110984
108490,110940
108398,110902
108346,110893
108204,110808
108165,110747
108035,110705
107913,110664
107742,110530
107616,110495
107500,110423
107327,110365
107191,110320
107104,110241
106942,110178
106846,110096
106749,110052
106621,110014
106532,109941
106467,109920
106378,109918
106302,109864
106286,109840
106207,109812
106206,109772
106176,109814
106128,109793
106129,109778
106079,109763
106140,109763
106080,109788
106102,109777
106096,109800
106135,109770
106134,109800
106160,109833
106203,109803
106207,109809
106256,109853
106261,109878
106287,109837
106298,109879
106342,109888
106338,109885
106408,109914
106371,109898
106376,109930
106446,109947
106439,109972
106516,109975
106507,109950
106551,109995
106522,110007
106563,109997
106626,110021
106632,110038
106632,110036
106679,110065
106705,110074
106719,110098
106782,110106
106812,110121
106832,110112
106899,110161
106857,110168
106907,110146
106949,110200
107003,110231
106997,110223
107039,110206
107062,110259
107073,110259
107099,110253
107123,110269
107182,110279
107139,110312
107145,110314
107221,110314
107193,110325
107205,110311
107178,110312
107175,110320
107196,110280
107221,110302
107182,110285
107199,110302
107159,110297
107141,110299
107086,110244
107154,110264
107097,110288
107103,110236
107113,110257
107092,110243
107079,110246
107083,110216
107084,110248
107070,110246
107059,110202
107073,110226
107074,110241
107024,110232
107073,110224
107081,110234
107073,110235
107120,110275
107104,110255
107118,110234
107115,110263
107120,110295
107143,110274
107193,110289
107223,110298
107182,110288
107209,110262
107248,110324
107241,110329
107287,110344
107316,110348
107326,110370
107371,110333
107368,110346
107423,110382
107424,110384
107489,110431
107456,110412
107515,110422
107550,110440
107531,110467
107625,110489
107618,110480
107659,110498
107681,110499
107698,110497
107747,110547
107745,110564
107811,110539
107782,110556
107859,110578
107853,110600
107912,110613
107908,110626
107942,110610
107949,110612
107992,110653
107979,110659
107986,110646
108035,110629
108060,110678
108043,110687
108105,110676
108136,110695
108085,110691
108141,110732
108140,110716
108212,110733
108191,110760
108207,110720
108240,110760
108276,110783
108284,110767
108307,110760
108362,110796
108363,110795
108365,110834
108423,110791
108430,110829
108418,110856
108417,110832
108449,110841
108416,110831
108413,110814
108395,110803
108315,110798
108240,110707
108173,110687
108074,110620
107965,110613
107844,110476
107753,110465
107600,110383
107471,110321
107301,110211
107212,110165
107022,110122
106906,110032
106736,109956
106628,109902
106528,109815
106390,109770
106311,109738
106211,109703
106144,109646
106082,109603
105995,109628
105967,109558
105895,109536
105879,109535
105889,109500
105881,109538
105854,109508
105824,109515
105822,109549
105828,109505
105893,109552
105906,109530
105876,109552
105912,109586
105911,109551
105983,109590
105973,109574
106008,109598
106005,109598
106053,109631
106030,109600
106065,109659
106066,109641
106118,109643
106149,109651
106106,109679
106176,109660
106192,109728
106191,109690
106178,109689
106222,109696
106214,109722
106239,109718
106282,109723
106273,109732
106259,109745
106331,109749
106358,109803
106377,109753
106409,109812
106417,109814
106469,109836
106470,109821
106515,109832
106536,109860
106528,109838
106605,109892
106583,109885
106632,109863
106636,109897
106651,109931
106666,109899
106694,109921
106687,109910
106693,109921
106712,109941
106666,109906
106687,109891
106683,109945
106675,109913
106708,109912
106683,109926
106630,109890
106684,109912
106621,109895
106617,109879
106629,109881
106585,109883
106626,109901
106609,109874
106580,109841
106587,109831
106550,109859
106575,109851
106605,109835
106533,109860
106575,109834
106577,109841
106565,109880
106571,109833
106602,109871
106580,109866
106642,109862
106638,109858
106656,109885
106660,109885
106701,109887
106759,109925
106730,109904
106779,109911
106779,109953
106771,109946
106854,109985
106883,109955
106878,109993
106919,109992
106933,110008
106945,109989
107021,110063
106996,110041
107052,110046
107097,110081
107110,110081
107169,110125
107139,110116
107213,110126
107234,110127
107287,110145
107317,110164
107313,110197
107348,110166
107422,110222
107427,110252
107432,110200
107478,110252
107506,110253
107523,110278
107572,110281
107585,110290
107634,110333
107613,110295
107627,110357
107685,110360
107696,110319
107695,110360
107738,110398
107780,110362
107768,110408
107814,110392
107861,110433
107860,110427
107880,110428
107872,110431
107908,110445
107930,110466
107974,110452
107991,110483
107985,110489
108011,110504
108000,110499
108033,110497
108052,110489
107990,110501
107973,110466
107937,110411
107918,110445
107809,110362
107745,110336
107648,110316
107539,110234
107410,110155
107294,110098
107203,110076
107043,109971
106905,109914
106810,109867
106672,109774
106566,109722
106394,109650
106349,109609
106206,109556
106113,109521
106009,109472
105926,109444
105876,109415
105842,109365
105767,109344
105681,109332
105698,109339
105663,109321
105602,109277
105593,109286
105629,109273
105617,109285
105608,109272
105617,109298
105655,109309
105642,109317
105684,109329
105652,109331
105700,109340
105701,109333
105748,109375
105764,109363
105790,109387
105836,109406
105832,109384
105861,109411
105842,109388
105923,109431
105907,109451
105929,109462
105964,109449
105950,109478
106007,109493
105997,109478
106057,109499
106073,109511
106050,109526
106106,109504
106087,109566
106118,109564
106164,109572
106196,109558
106240,109567
106243,109608
106280,109605
106300,109604
106355,109679
106342,109648
106436,109681
106415,109685
106427,109681
106473,109670
106493,109697
106469,109704
106484,109710
106503,109726
106502,109706
106487,109686
106495,109673
106508,109688
106495,109703
106474,109706
106466,109650
106453,109712
106470,109689
106403,109688
106420,109634
106452,109645
106379,109621
106365,109639
106374,109637
106375,109657
106336,109615
106363,109625
106344,109639
106315,109628
106343,109632
106303,109570
106353,109625
106333,109596
106346,109572
106306,109611
106347,109592
106319,109606
106352,109597
106345,109588
106362,109609
106408,109651
106421,109652
106415,109639
106416,109620
106475,109658
106441,109707
106501,109647
106495,109696
106490,109674
106549,109684
106549,109725
106570,109703
106589,109723
106609,109769
106626,109735
106663,109743
106643,109740
106700,109751
106699,109814
106768,109798
106742,109821
106810,109798
106814,109844
106818,109862
106856,109829
106918,109860
106913,109857
106977,109869
106970,109883
107018,109928
107030,109902
107088,109924
107110,109937
107094,109976
107145,109956
107216,109987
107188,109983
107240,110029
107276,110023
107280,110041
107321,110032
107331,110047
107395,110070
107420,110079
107411,110104
107443,110134
107455,110088
107528,110136
107504,110176
107551,110102
107563,110198
107587,110156
107611,110190
107656,110189
107680,110211
107659,110223
107739,110254
107731,110244
107749,110247
107798,110257
107824,110300
107820,110258
107883,110318
107904,110321
107919,110315
107893,110347
107908,110315
107871,110273
107885,110287
107783,110261
107710,110234
107658,110138
107554,110103
107454,110090
107298,110000
107169,109881
107039,109863
106839,109761
106742,109716
106581,109620
106460,109557
106264,109519
106130,109384
106049,109364
105872,109288
105767,109232
105678,109160
105617,109180
105511,109063
105447,109087
105377,109038
105301,109011
105301,109021
105282,109020
105253,108978
105217,108988
105233,108994
105191,108958
105248,109015
105236,108989
105272,109004
105268,109026
105229,109004
105295,109036
105298,109043
105301,109069
105337,109039
105407,109063
105400,109076
105412,109079
105456,109080
105460,109135
105484,109104
105500,109175
105540,109138
105539,109157
105585,109166
105617,109176
105588,109206
105630,109185
105643,109216
105668,109236
105681,109199
105689,109214
105739,109234
105717,109252
105742,109227
105793,109263
105811,109288
105780,109262
105864,109303
105873,109307
105924,109316
105932,109316
105971,109360
105997,109365
106068,109380
106081,109426
106105,109395
106146,109429
106187,109463
106210,109454
106195,109471
106229,109490
106244,109489
106252,109481
106286,109478
106286,109516
106270,109476
106299,109478
106273,109491
106286,109502
106308,109503
106241,109448
106285,109488
106231,109510
106248,109464
106202,109465
106207,109465
106175,109426
106220,109460
106139,109417
106184,109437
106183,109439
106152,109425
106160,109419
106125,109433
106179,109435
106176,109442
106171,109407
106154,109437
106183,109422
106209,109432
106197,109414
106247,109452
106222,109451
106253,109477
106265,109446
106321,109507
106286,109495
106354,109515
106370,109512
106375,109508
106386,109528
106404,109535
106456,109538
106463,109546
106467,109554
106505,109575
106525,109605
106568,109559
106582,109627
106610,109598
106629,109648
106690,109635
106682,109652
106707,109643
106719,109665
106764,109696
106797,109696
106827,109709
106850,109711
106912,109710
106925,109758
106972,109776
106995,109763
106999,109775
107080,109835
107054,109810
107117,109815
107146,109825
107158,109849
107205,109880
107211,109861
107247,109904
107245,109907
107321,109909
107314,109946
107349,109929
107405,109957
107400,109967
107466,109983
107466,110008
107486,109985
107528,110037
107571,110052
107560,110059
107612,110040
107626,110081
107661,110098
107670,110103
107697,110082
107751,110170
107769,110123
107794,110144
107833,110189
107876,110213
107839,110178
107907,110236
107920,110226
107945,110249
107985,110222
107995,110265
108014,110266
108042,110242
108051,110305
108054,110300
108063,110237
107992,110265
107981,110217
107903,110184
107829,110114
107741,110085
107652,110054
107483,109970
107395,109913
107188,109842
107106,109737
106915,109692
106779,109621
106662,109582
106494,109473
106385,109399
106209,109370
106117,109291
105998,109222
105859,109143
105777,109102
105656,109074
105580,109014
105505,108986
105493,108981
105412,108970
105353,108955
105319,108912
105334,108937
105314,108907
105305,108919
105341,108914
105290,108935
105286,108893
105348,108947
105317,108941
105332,108943
105398,108947
105379,108952
105407,108961
105423,109012
105451,109003
105489,109036
105488,109027
105523,109060
105556,109071
105565,109070
105641,109116
105635,109104
105696,109103
105676,109134
105700,109131
105731,109171
105732,109183
105746,109158
105800,109158
105815,109206
105816,109185
105885,109241
105889,109243
105944,109256
105968,109272
106003,109279
106030,109301
106094,109332
106110,109346
106171,109376
106194,109377
106229,109405
106281,109409
106288,109419
106341,109445
106392,109452
106396,109452
106441,109492
106452,109477
106458,109472
106481,109489
106506,109505
106516,109502
106504,109509
106542,109536
106537,109518
106523,109536
106532,109509
106550,109509
106488,109507
106500,109498
106523,109488
106478,109505
106507,109476
106495,109471
106522,109477
106491,109505
106520,109490
106502,109472
106447,109489
106460,109506
106469,109464
106534,109479
106503,109512
106535,109509
106493,109514
106558,109472
106581,109507
106562,109495
106555,109529
106625,109510
106639,109561
106625,109545
106678,109565
106688,109569
106702,109582
106751,109566
106776,109597
106755,109607
106829,109622
106830,109647
106889,109654
106899,109666
106896,109683
106972,109712
107016,109738
106969,109739
107007,109722
107029,109720
107080,109762
107084,109786
107097,109751
107158,109776
107158,109817
107205,109815
107207,109808
107273,109840
107269,109864
107291,109835
107308,109866
107331,109857
107378,109884
107382,109920
107417,109888
107437,109925
107426,109910
107446,109925
107476,109953
107544,109958
107524,109955
107514,109978
107581,109975
107566,109973
107616,110024
107622,110016
107667,109996
107713,110047
107705,110047
107751,110072
107771,110076
107775,110112
107771,110078
107865,110093
107854,110118
107887,110128
107906,110132
107905,110139
107962,110138
107968,110195
107994,110172
108026,110183
108101,110205
108087,110209
108149,110228
108141,110249
108139,110240
108131,110206
108117,110240
108057,110162
108020,110178
107940,110141
107848,110068
107770,109979
107621,109965
107509,109901
107374,109833
107242,109724
107149,109705
106977,109596
106848,109558
106683,109469
106589,109423
106456,109382
106330,109272
106247,109247
106132,109183
106038,109159
105995,109110
105869,109086
105838,109027
105778,109031
105734,109002
105745,109023
105687,108954
105683,108990
105657,108965
105677,108980
105663,108959
105645,108977
105686,108962
105696,109027
105698,109004
105727,109035
105735,109031
105770,109026
105820,109083
105818,109055
105837,109077
105935,109126
105906,109115
105935,109103
105980,109103
105974,109143
106025,109183
106035,109176
106074,109150
106126,109198
106120,109211
106186,109196
106199,109202
106190,109237
106227,109256
106213,109264
106302,109260
106317,109319
106328,109291
106335,109317
106395,109315
106407,109348
106457,109313
106504,109400
106504,109384
106525,109384
106565,109383
106602,109417
106584,109415
106637,109426
106663,109446
106660,109418
106669,109455
106681,109440
106732,109435
106705,109475
106728,109440
106708,109461
106747,109488
106731,109470
106729,109418
106737,109474
106727,109430
106759,109467
106754,109482
106697,109444
106734,109437
106723,109450
106724,109443
106718,109421
106744,109427
106674,109428
106701,109395
106667,109432
106668,109413
106662,109399
106641,109396
106645,109382
106658,109417
106631,109389
106664,109389
106682,109424
106667,109429
106696,109388
106687,109447
106660,109400
106714,109449
106738,109415
106752,109424
106809,109450
106785,109500
106829,109464
106861,109497
106900,109510
106917,109516
107005,109529
106976,109579
107031,109561
107059,109569
107090,109633
107112,109617
107178,109635
107180,109670
107240,109657
107259,109677
107328,109727
107317,109672
107356,109752
107376,109743
107420,109733
107461,109761
107458,109783
107512,109790
107526,109814
107586,109853
107588,109808
107614,109830
107657,109854
107664,109887
107668,109895
107741,109876
107741,109955
107770,109894
107821,109929
107840,109952
107845,109944
107880,110003
107902,110001
107962,110007
107923,110003
107982,110051
107977,110032
108016,110018
108045,110070
108052,110036
108117,110043
108115,110084
108097,110076
108147,110118
108141,110097
108162,110126
108198,110149
108218,110121
108218,110138
108263,110133
108281,110184
108295,110157
108335,110187
108341,110193
108356,110211
108339,110172
108374,110216
108396,110226
108382,110209
108429,110239
108464,110251
108462,110245
108514,110254
108506,110291
108498,110283
108533,110265
108576,110308
108512,110290
108525,110279
108492,110259
108456,110232
108348,110189
108299,110139
108198,110111
108080,110034
107971,109945
107813,109896
107678,109813
107549,109759
107377,109703
107233,109581
107076,109538
106926,109465
106766,109401
106608,109276
106466,109276
106343,109155
106207,109130
106115,109035
105979,109026
105919,108937
105805,108967
105704,108891
105667,108885
105613,108854
105575,108804
105563,108821
105525,108846
105532,108807
105487,108832
105510,108796
105521,108831
105484,108774
105511,108836
105516,108814
105515,108862
105536,108852
105593,108869
105604,108886
105618,108877
105663,108903
105660,108931
105689,108899
105712,108951
105705,108940
105768,108930
105778,108957
105830,108968
105795,108985
105855,108999
105871,108970
105900,109052
105900,109009
105940,109059
105944,109048
105955,109051
106012,109037
106042,109122
106089,109075
106084,109081
106129,109126
106137,109144
106170,109171
106202,109149
106285,109193
106273,109181
106321,109239
106334,109232
106380,109246
106445,109249
106428,109278
106500,109317
106503,109315
106565,109311
106555,109354
106569,109303
106630,109363
106628,109330
106599,109362
106600,109362
106691,109355
106610,109360
106661,109339
106631,109376
106640,109362
106625,109347
106652,109359
106606,109328
106649,109348
106628,109368
106597,109311
106583,109323
106593,109309
106607,109340
106591,109332
106582,109338
106592,109346
106619,109335
106656,109349
106610,109337
106657,109355
106633,109359
106650,109375
106685,109346
106670,109373
106698,109386
106713,109398
106719,109382
106758,109420
106782,109431
106764,109410
106783,109428
106822,109440
106828,109452
106864,109461
106849,109465
106913,109490
106927,109500
106954,109513
106985,109527
106969,109480
107008,109532
107041,109540
107038,109585
107060,109540
107077,109598
107118,109582
107164,109608
107136,109609
107179,109606
107204,109642
107224,109657
107223,109667
107266,109634
107286,109688
107292,109651
107337,109666
107354,109690
107328,109725
107392,109708
107371,109751
107402,109715
107420,109743
107439,109788
107443,109739
107484,109810
107484,109784
107486,109807
107532,109793
107524,109778
107556,109836
107599,109808
107608,109788
107627,109866
107634,109851
107668,109838
107674,109884
107695,109877
107729,109878
107771,109925
107782,109907
107768,109917
107812,109938
107838,109942
107839,109975
107888,109962
107932,109952
107905,110004
107946,109990
107956,109974
107969,110039
108015,110021
108043,110039
108077,110052
108107,110092
108102,110037
108139,110096
108174,110097
108172,110126
108243,110126
108252,110134
108301,110133
108292,110169
108252,110141
108274,110168
108252,110111
108180,110099
108134,110050
108032,110019
107942,109965
107805,109874
107730,109814
107523,109727
107417,109670
107279,109571
107099,109526
107007,109485
106864,109410
106690,109335
106538,109236
106436,109204
106344,109141
106197,109083
106102,109072
105967,108967
105932,108978
105839,108923
105784,108876
105759,108890
105719,108875
105677,108831
105645,108839
105638,108829
105625,108859
105643,108841
105643,108822
105638,108866
105665,108890
105641,108846
105725,108861
105722,108898
105759,108906
105786,108932
105777,108946
105833,108925
105842,108997
105909,108995
105941,108996
105957,109017
105984,109075
105994,109028
106071,109063
106076,109041
106127,109080
106096,109089
106131,109110
106178,109150
106160,109135
106203,109125
106251,109160
106293,109173
106281,109212
106313,109173
106378,109216
106366,109220
106415,109246
106421,109256
106451,109253
106508,109261
106506,109331
106533,109297
106599,109328
106618,109337
106671,109365
106682,109389
106711,109381
106723,109406
106805,109411
106783,109449
106814,109402
106814,109447
106846,109438
106878,109444
106881,109487
106923,109480
106898,109486
106875,109453
106919,109478
106900,109471
106858,109457
106863,109481
106864,109393
106890,109466
106839,109431
106833,109457
106858,109444
106876,109415
106850,109424
106858,109398
106854,109460
106857,109426
106841,109423
106826,109409
106851,109408
106841,109456
106862,109456
106864,109430
106886,109438
106899,109458
106879,109456
106892,109441
106947,109490
106930,109459
106967,109473
106995,109512
106972,109479
107008,109473
107035,109541
107023,109497
107084,109530
107086,109541
107106,109551
107118,109564
107180,109568
107180,109596
107206,109603
107185,109611
107255,109611
107237,109643
107260,109611
107270,109679
107323,109669
107332,109673
107351,109695
107386,109711
107383,109695
107426,109725
107472,109721
107457,109754
107532,109743
107518,109799
107560,109749
107551,109797
107574,109783
107637,109795
107654,109828
107649,109845
107707,109831
107706,109877
107753,109882
107761,109888
107814,109868
107817,109921
107854,109906
107875,109920
107910,109932
107921,109994
107960,109980
108008,109991
108001,110030
108066,110021
108048,110070
108117,110024
108121,110049
108157,110102
108180,110085
108257,110089
108231,110112
108272,110109
108307,110139
108295,110141
108388,110136
108408,110152
108410,110173
108424,110242
108440,110184
108509,110247
108488,110205
108456,110190
108488,110187
108432,110155
108357,110134
108250,110080
108200,110014
108068,109990
107932,109898
107810,109803
107628,109752
107492,109641
107350,109602
107218,109512
107065,109467
106876,109362
106756,109285
106623,109273
106480,109139
106366,109117
106254,109073
106120,108985
106058,108968
105917,108926
105886,108879
105805,108863
105780,108857
105717,108801
105699,108795
105642,108800
105643,108778
105639,108790
105655,108809
105615,108783
105626,108748
105663,108808
105649,108758
105702,108820
105696,108810
105724,108805
105746,108844
105731,108854
105771,108864
105793,108877
105847,108886
105846,108879
105854,108870
105901,108954
105926,108887
105940,108945
105943,108929
106014,108962
105984,108968
106018,108953
106060,108988
106025,108993
106123,109025
106124,109018
106164,109049
106160,109029
106201,109061
106237,109063
106251,109111
106260,109079
106320,109109
106309,109110
106385,109099
106382,109174
106407,109166
106484,109159
106475,109208
106487,109159
106532,109221
106543,109195
106559,109206
106598,109215
106594,109262
106598,109213
106616,109241
106622,109225
106602,109234
106637,109244
106630,109221
106622,109219
106608,109249
106610,109215
106644,109255
106580,109233
106588,109217
106614,109239
106593,109261
106562,109223
106565,109181
106580,109195
106534,109211
106543,109197
106533,109209
106563,109189
106536,109200
106512,109208
106528,109174
106583,109209
106565,109188
106541,109210
106581,109218
106593,109248
106584,109203
106628,109255
106635,109235
106661,109268
106686,109276
106669,109287
106720,109297
106732,109318
106785,109328
106789,109337
106792,109330
106847,109327
106846,109355
106860,109361
106910,109393
106925,109420
106932,109444
106944,109403
107019,109457
107013,109429
107039,109435
107060,109494
107106,109497
107132,109509
107153,109525
107225,109546
107244,109550
107271,109577
107325,109581
107317,109609
107364,109598
107416,109643
107399,109653
107462,109669
107463,109665
107492,109671
107514,109685
107547,109709
107557,109751
107594,109769
107651,109750
107641,109759
107651,109776
107690,109780
107728,109816
107701,109806
107783,109824
107780,109806
107796,109843
107804,109835
107842,109862
107859,109855
107898,109838
107924,109906
107937,109884
107950,109911
107975,109940
108012,109917
108031,109968
108059,109989
108113,109970
108115,110008
108143,110010
108187,110007
108225,110006
108184,110062
108268,110025
108307,110073
108296,110087
108299,110079
108396,110104
108365,110118
108387,110152
108429,110125
108479,110142
108527,110170
108542,110196
108544,110235
108581,110193
108588,110195
108572,110195
108542,110187
108450,110112
108395,110117
108297,110051
108156,110006
108034,109924
107923,109807
107742,109761
107623,109663
107452,109609
107285,109512
107159,109414
106963,109342
106819,109282
106684,109215
106535,109176
106384,109098
106275,109003
106192,109003
106046,108931
105983,108871
105862,108852
105787,108773
105747,108765
105692,108725
105629,108764
105548,108686
105593,108706
105552,108684
105520,108696
105505,108663
105553,108697
105516,108651
105524,108673
105542,108690
105573,108732
105570,108684
105639,108762
105637,108751
105648,108736
105717,108760
105749,108790
105725,108812
105788,108829
105799,108830
105855,108862
105893,108877
105942,108869
105955,108902
105958,108920
106028,108901
106051,108950
106025,108917
106094,108960
106124,108959
106128,109016
106124,108964
106212,109037
106191,109009
106221,109075
106255,109078
106295,109069
106317,109102
106349,109061
106435,109143
106436,109119
106474,109138
106525,109195
106572,109185
106578,109217
106604,109209
106678,109257
106688,109238
106712,109275
106738,109306
106743,109274
106830,109305
106843,109328
106845,109336
106865,109341
106831,109334
106889,109353
106877,109346
106854,109356
106897,109359
106880,109316
106892,109357
106852,109315
106897,109346
106849,109348
106852,109344
106879,109333
106852,109315
106849,109333
106823,109288
106857,109309
106810,109340
106871,109322
106829,109328
106830,109314
106864,109339
106831,109326
106891,109353
106883,109388
106903,109332
106889,109357
106867,109351
106874,109380
106898,109361
106944,109380
106944,109363
106961,109434
106990,109406
106990,109409
106968,109415
107014,109411
107032,109414
107079,109471
107094,109472
107138,109506
107129,109503
107145,109512
107238,109521
107219,109593
107245,109552
107293,109557
107278,109602
107320,109580
107389,109624
107378,109653
107413,109641
107457,109635
107441,109673
107514,109650
107483,109709
107546,109679
107564,109715
107586,109737
107569,109714
107613,109709
107656,109752
107643,109735
107690,109769
107652,109747
107734,109807
107726,109782
107742,109761
107754,109812
107767,109800
107810,109795
107831,109824
107861,109847
107881,109845
107918,109834
107934,109879
107980,109854
107994,109914
108004,109913
108077,109885
108064,109958
108097,109953
108139,109977
108187,109963
108242,110037
108252,110005
108296,110058
108308,110018
108311,110069
108397,110101
108406,110080
108448,110095
108446,110098
108503,110157
108502,110121
108569,110176
108571,110159
108644,110171
108702,110218
108680,110236
108781,110244
108779,110272
108828,110268
108923,110329
108898,110347
108950,110341
109000,110338
108997,110355
109024,110376
108962,110342
108922,110307
108859,110265
108724,110192
108629,110121
108460,110053
108306,109996
108140,109869
107978,109793
107850,109700
107655,109630
107546,109564
107376,109481
107207,109362
107115,109340
106937,109271
106817,109206
106757,109150
106612,109134
106572,109069
106449,109050
106383,109022
106368,108964
106292,108935
106249,108951
106218,108890
106201,108933
106221,108900
106175,108909
106205,108902
106184,108947
106230,108909
106248,108944
106293,108957
106329,108978
106303,108989
106393,109014
106409,109051
106442,109034
106479,109058
106508,109099
106554,109103
106614,109150
106657,109126
106670,109156
106721,109191
106740,109225
106766,109201
106842,109258
106831,109252
106873,109273
106883,109278
106972,109319
106968,109311
107047,109316
107043,109316
107094,109376
107075,109352
107158,109402
107194,109400
107214,109458
107256,109446
107285,109465
107383,109509
107404,109516
107474,109557
107464,109584
107534,109568
107591,109598
107624,109626
107625,109647
107684,109642
107730,109685
107726,109648
107761,109700
107767,109697
107779,109696
107819,109683
107777,109723
107789,109712
107825,109728
107834,109683
107803,109705
107797,109692
107798,109682
107783,109708
107773,109670
107750,109702
107750,109635
107757,109640
107719,109660
107694,109607
107706,109609
107704,109658
107677,109623
107679,109599
107710,109613
107674,109629
107682,109610
107699,109624
107648,109621
107685,109606
107739,109642
107705,109608
107716,109634
107690,109640
107737,109638
107735,109668
107777,109661
107797,109707
107806,109660
107795,109669
107833,109695
107857,109676
107885,109713
107826,109670
107848,109704
107900,109738
107897,109691
107932,109720
107902,109734
107985,109742
107946,109745
107997,109740
107989,109732
108036,109795
108016,109749
108070,109786
108086,109796
108113,109818
108147,109856
108161,109873
108223,109881
108193,109863
108250,109927
108287,109899
108324,109913
108327,109930
108393,109966
108422,109965
108454,109984
108440,109984
108495,110014
108548,110026
108577,110050
108606,110061
108616,110049
108645,110072
108692,110100
108746,110107
108718,110121
108774,110147
108814,110145
108836,110161
108879,110211
108920,110209
108927,110217
108962,110255
108983,110271
109042,110269
109057,110269
109056,110305
109101,110311
109169,110320
109178,110314
109157,110304
109186,110347
109263,110353
109249,110379
109234,110369
109232,110351
109238,110326
109197,110359
109122,110286
109071,110273
108935,110175
108861,110125
108692,110070
108547,109981
108380,109905
108259,109822
108100,109735
107933,109652
107751,109545
107628,109503
107489,109445
107316,109365
107201,109267
107067,109241
106956,109183
106853,109120
106750,109043
106653,109066
106575,108982
106511,108985
106438,108930
106412,108902
106333,108921
106325,108871
106268,108877
106251,108844
106243,108811
106251,108875
106257,108826
106266,108848
106262,108863
106268,108854
106284,108912
106310,108868
106332,108894
106358,108939
106372,108923
106433,108941
106431,108958
106501,108986
106522,108975
106588,109023
106555,109012
106642,109034
106620,109055
106663,109073
106674,109049
106734,109089
106743,109083
106772,109080
106782,109101
106848,109140
106829,109167
106889,109155
106869,109161
106920,109182
106979,109186
107019,109237
107048,109234
107070,109280
107100,109280
107174,109324
107177,109293
107237,109360
107272,109343
107293,109345
107371,109401
107411,109393
107374,109411
107463,109443
107480,109429
107512,109479
107523,109470
107566,109478
107613,109490
107581,109509
107621,109510
107629,109538
107635,109520
107656,109535
107662,109515
107637,109511
107639,109538
107633,109498
107632,109477
107612,109535
107602,109493
107625,109483
107606,109487
107562,109484
107588,109456
107543,109461
107562,109426
107546,109448
107527,109442
107570,109449
107552,109461
107519,109428
107563,109432
107514,109439
107555,109432
107528,109469
107546,109417
107520,109461
107570,109466
107574,109456
107602,109487
107582,109437
107620,109481
107658,109506
107629,109468
107675,109504
107682,109532
107696,109512
107714,109527
107737,109509
107791,109545
107802,109547
107781,109549
107837,109550
107860,109589
107900,109602
107901,109612
107918,109605
107997,109662
107961,109642
108024,109667
108024,109682
108084,109704
108090,109716
108093,109741
108127,109712
108153,109748
108164,109751
108187,109786
108221,109751
108263,109786
108247,109796
108315,109796
108294,109802
108356,109829
108381,109838
108338,109844
108414,109842
108386,109874
108441,109908
108440,109865
108434,109877
108476,109886
108465,109943
108487,109906
108492,109917
108499,109874
108487,109927
108543,109912
108494,109897
108545,109947
108512,109924
108531,109935
108566,109929
108550,109939
108591,109926
108585,109945
108638,109978
108585,109969
108646,109965
108672,110014
108665,109974
108676,109983
108732,109989
108747,110031
108759,110066
108787,110020
108785,110094
108813,110038
108804,110084
108871,110091
108872,110083
108849,110104
108906,110138
108895,110115
108902,110133
108939,110132
108903,110120
108893,110108
108902,110090
108888,110093
108829,110060
108806,110058
108714,109996
108602,109938
108527,109913
108397,109815
108239,109724
108084,109647
107938,109607
107753,109493
107555,109379
107443,109324
107201,109223
107074,109141
106937,109079
106731,108984
106575,108914
106489,108881
106305,108781
106208,108717
106058,108679
105920,108603
105862,108572
105781,108537
105659,108483
105598,108446
105550,108433
105508,108452
105479,108395
105431,108383
105420,108379
105385,108373
105399,108344
105406,108358
105418,108382
105397,108386
105427,108379
105473,108416
105486,108393
105484,108402
105508,108445
105552,108436
105582,108439
105590,108467
105586,108506
105643,108469
105723,108505
105681,108517
105743,108558
105766,108541
105758,108540
105817,108548
105848,108583
105867,108596
105891,108606
105892,108609
105922,108605
105942,108641
105976,108610
105992,108649
105984,108654
106060,108667
106041,108706
106086,108710
106109,108696
106170,108720
106182,108735
106244,108779
106257,108778
106303,108755
106316,108837
106349,108808
106382,108841
106434,108845
106450,108888
106494,108864
106502,108861
106488,108854
106528,108867
106561,108886
106531,108871
106592,108871
106567,108897
106543,108898
106585,108864
106549,108905
106583,108903
106567,108900
106548,108864
106535,108891
106546,108870
106495,108858
106512,108848
106529,108856
106534,108841
106508,108831
106509,108830
106464,108835
106484,108846
106431,108803
106467,108837
106439,108808
106472,108822
106459,108806
106472,108825
106437,108806
106506,108840
106478,108827
106500,108830
106496,108854
106484,108814
106562,108868
106530,108845
106581,108904
106550,108875
106609,108880
106632,108883
106616,108902
106663,108935
106643,108894
106712,108948
106696,108987
106726,108947
106759,109002
106749,108976
106765,109007
106839,109027
106854,109017
106870,109046
106862,109039
106923,109070
106916,109055
106959,109071
106985,109100
106991,109090
107017,109138
107030,109130
107041,109175
107079,109156
107150,109185
107134,109174
107146,109201
107191,109189
107259,109225
107247,109263
107266,109238
107319,109237
107334,109294
107362,109266
107351,109310
107432,109324
107424,109315
107451,109344
107460,109368
107505,109347
107510,109375
107528,109368
107558,109423
107554,109369
107643,109442
107619,109392
107619,109435
107660,109444
107710,109455
107682,109454
107722,109448
107758,109456
107777,109490
107764,109487
107805,109512
107859,109507
107857,109520
107898,109546
107894,109542
107932,109554
107956,109582
107963,109564
107985,109593
108002,109589
108049,109621
108075,109649
108070,109638
108102,109658
108137,109662
108137,109679
108175,109661
108176,109673
108180,109653
108164,109649
108125,109648
108057,109580
107959,109528
107861,109458
107700,109413
107602,109334
107463,109259
107302,109204
107132,109078
106946,109010
106761,108917
106605,108832
106489,108793
106303,108657
106158,108591
105994,108539
105872,108458
105725,108416
105651,108375
105533,108318
105450,108270
105373,108220
105291,108188
105267,108198
105221,108165
105158,108134
105149,108153
105130,108143
105159,108149
105137,108133
105157,108163
105179,108163
105201,108169
105235,108181
105234,108194
105250,108217
105255,108232
105326,108257
105380,108276
105375,108279
105426,108282
105474,108305
105526,108340
105541,108371
105564,108376
105588,108371
105637,108428
105684,108415
105687,108415
105712,108424
105742,108452
105741,108444
105752,108443
105787,108495
105831,108481
105831,108495
105871,108497
105879,108519
105910,108526
105934,108529
105975,108568
106010,108592
106003,108591
106088,108589
106063,108634
106097,108648
106154,108618
106181,108633
106210,108677
106236,108676
106270,108687
106283,108718
106295,108711
106307,108740
106348,108715
106344,108729
106347,108749
106367,108739
106345,108728
106356,108739
106376,108732
106338,108753
106342,108697
106323,108738
106333,108711
106301,108695
106320,108694
106255,108663
106289,108709
106267,108663
106260,108643
106278,108668
106222,108677
106212,108679
106214,108638
106222,108648
106212,108634
106240,108644
106226,108635
106206,108652
106224,108681
106213,108653
106277,108676
106224,108649
106260,108650
106263,108653
106275,108667
106293,108689
106305,108664
106314,108722
106351,108722
106343,108713
106388,108704
106352,108729
106430,108721
106434,108733
106433,108766
106426,108709
106420,108771
106480,108757
106485,108735
106493,108786
106552,108766
106555,108792
106602,108799
106582,108794
106637,108821
106648,108838
106647,108874
106702,108869
106741,108878
106758,108908
106765,108915
106808,108935
106818,108934
106872,108967
106852,108956
106923,108972
106940,108985
106966,108995
106966,109003
107041,109006
107059,109051
107084,109060
107124,109056
107152,109059
107143,109088
107194,109122
107227,109119
107235,109138
107264,109163
107301,109185
107311,109165
107313,109173
107344,109187
107353,109180
107349,109197
107356,109189
107395,109210
107424,109219
107377,109196
107427,109206
107438,109217
107438,109196
107454,109241
107472,109249
107487,109266
107482,109253
107518,109261
107490,109264
107526,109295
107550,109292
107551,109298
107588,109314
107604,109316
107601,109323
107643,109312
107615,109331
107622,109315
107621,109329
107629,109309
107584,109287
107536,109282
107514,109226
107394,109187
107313,109152
107193,109085
107085,109037
106940,108933
106773,108855
106647,108780
106481,108700
106358,108628
106166,108542
106003,108463
105845,108402
105684,108314
105546,108251
105377,108176
105295,108139
105143,108071
105033,107997
104928,107969
104872,107922
104791,107891
104701,107867
104693,107834
104616,107821
104591,107811
104542,107780
104534,107792
104520,107787
104546,107797
104545,107774
104517,107772
104535,107788
104529,107787
104572,107813
104602,107831
104614,107822
104619,107821
104674,107852
104697,107867
104739,107872
104755,107893
104778,107907
104795,107922
104841,107924
104856,107960
104888,107942
104925,107979
104930,107994
104987,108002
105000,108014
105021,108017
105065,108039
105044,108036
105102,108066
105116,108068
105115,108095
105165,108076
105167,108106
105222,108125
105238,108132
105251,108134
105317,108161
105362,108179
105370,108164
105391,108216
105459,108239
105494,108255
105532,108274
105547,108303
105600,108277
105615,108306
105695,108329
105709,108365
105722,108359
105763,108378
105803,108401
105805,108399
105817,108415
105832,108413
105857,108421
105852,108424
105848,108420
105882,108430
105866,108406
105886,108412
105851,108428
105900,108417
105902,108402
105871,108416
105866,108428
105922,108425
105896,108451
105898,108408
105886,108433
105910,108433
105896,108418
105889,108432
105895,108415
105926,108456
105911,108436
105950,108423
105946,108482
105953,108447
105974,108478
105960,108477
106024,108471
106031,108517
106019,108499
106056,108521
106032,108520
106090,108553
106142,108562
106115,108596
106165,108561
106194,108592
106230,108614
106245,108590
106228,108658
106296,108627
106318,108639
106307,108662
106346,108685
106409,108708
106402,108706
106439,108715
106467,108739
106499,108739
106499,108749
106531,108775
106584,108803
106602,108784
106573,108806
106640,108825
106643,108830
106639,108818
106714,108856
106713,108863
106727,108854
106745,108869
106786,108882
106789,108883
106789,108909
106814,108895
106828,108916
106865,108932
106850,108918
106902,108964
106900,108950
106918,108954
106929,108977
106958,108975
106995,108980
106971,108986
107034,109017
107001,109016
107035,109038
107069,109042
107092,109072
107129,109074
107106,109068
107151,109088
107159,109083
107162,109107
107189,109111
107178,109120
107202,109113
107244,109129
107263,109169
107301,109157
107309,109161
107336,109175
107333,109174
107375,109227
107420,109220
107420,109229
107460,109240
107478,109264
107502,109276
107527,109291
107571,109287
107585,109328
107601,109320
107608,109316
107649,109336
107680,109358
107693,109376
107725,109385
107725,109389
107798,109416
107818,109430
107818,109440
107859,109438
107889,109448
107944,109489
107960,109480
107950,109482
107974,109482
107971,109474
107976,109489
107950,109475
107857,109412
107807,109373
107679,109306
107533,109230
107401,109136
107244,109077
107103,108980
106909,108896
106783,108802
106599,108727
106441,108645
106239,108534
106095,108476
105947,108393
105778,108324
105589,108236
105488,108176
105337,108115
105229,108031
105149,108013
105004,107956
104966,107910
104839,107898
104791,107867
104731,107841
104712,107826
104656,107829
104630,107774
104597,107789
104639,107785
104620,107800
104604,107774
104663,107821
104635,107788
104679,107861
104661,107817
104689,107853
104730,107836
104753,107863
104782,107890
104806,107897
104863,107934
104840,107958
104918,107939
104918,107956
104951,107987
104949,107991
105001,108022
105019,108044
105091,108042
105059,107997
105086,108071
105123,108067
105176,108054
105158,108075
105230,108119
105206,108118
105241,108127
105265,108119
105294,108170
105301,108143
105332,108191
105359,108189
105374,108198
105429,108194
105413,108223
105464,108232
105511,108295
105539,108289
105565,108268
105570,108297
105552,108287
105618,108298
105636,108324
105633,108324
105666,108345
105622,108316
105668,108323
105646,108320
105691,108320
105655,108333
105670,108305
105686,108363
105677,108310
105657,108311
105646,108330
105595,108320
105648,108298
105625,108307
105618,108298
105575,108289
105575,108278
105553,108249
105550,108279
105553,108265
105502,108278
105500,108271
105529,108248
105538,108263
105478,108260
105512,108225
105512,108255
105502,108233
105507,108240
105545,108277
105531,108256
105548,108281
105527,108247
105549,108284
105580,108286
105568,108302
105577,108260
105631,108339
105646,108322
105661,108356
105695,108301
105714,108349
105715,108319
105760,108367
105761,108382
105809,108391
105805,108419
105813,108401
105883,108441
105879,108457
105926,108452
105919,108467
105963,108460
106019,108479
106018,108519
106066,108490
106073,108546
106092,108542
106116,108539
106181,108570
106182,108588
106232,108606
106236,108625
106274,108586
106317,108642
106343,108620
106317,108645
106376,108684
106399,108668
106382,108685
106430,108683
106395,108689
106475,108668
106493,108737
106474,108698
106475,108737
106508,108755
106559,108731
106552,108785
106572,108737
106631,108805
106630,108804
106663,108797
106674,108814
106651,108798
106692,108828
106717,108842
106708,108825
106732,108868
106732,108839
106792,108875
106810,108867
106772,108884
106793,108865
106837,108904
106831,108893
106866,108906
106824,108903
106883,108888
106898,108967
106929,108914
106898,108928
106911,108973
106937,108948
106973,108936
106954,108968
107003,109016
106988,108959
107024,108971
107034,109004
107033,108965
107015,108980
107008,108982
106945,108928
106925,108900
106841,108851
106749,108810
106624,108753
106501,108703
106380,108615
106258,108559
106092,108475
105938,108405
105798,108308
105614,108239
105463,108148
105335,108089
105144,107992
105031,107935
104909,107894
104746,107824
104623,107730
104574,107729
104451,107672
104369,107646
104301,107593
104284,107573
104182,107572
104171,107538
104165,107521
104117,107541
104118,107492
104110,107557
104099,107536
104122,107505
104186,107559
104182,107574
104199,107547
104218,107604
104272,107592
104301,107604
104345,107636
104360,107656
104402,107686
104455,107660
104486,107716
104533,107730
104580,107754
104592,107757
104642,107783
104656,107801
104666,107807
104726,107836
104720,107846
104757,107845
104778,107875
104787,107851
104825,107905
104838,107887
104853,107897
104903,107908
104910,107927
104982,107916
104979,107977
104979,107946
105048,107985
105076,108008
105101,108004
105181,108063
105183,108073
105210,108081
105260,108091
105315,108131
105330,108127
105372,108160
105401,108158
105376,108171
105447,108174
105457,108185
105461,108163
105478,108192
105458,108211
105503,108181
105511,108175
105495,108203
105519,108202
105455,108201
105487,108181
105526,108205
105479,108209
105469,108179
105463,108184
105464,108208
105485,108193
105452,108175
105454,108184
105447,108175
105443,108167
105440,108187
105461,108169
105461,108188
105448,108151
105426,108182
105453,108163
105425,108162
105424,108168
105416,108190
105449,108196
105440,108163
105438,108170
105468,108190
105462,108183
105449,108193
105505,108220
105489,108199
105540,108230
105529,108243
105526,108210
105573,108218
105591,108278
105638,108275
105626,108260
105676,108279
105625,108333
105699,108286
105719,108303
105720,108310
105772,108342
105745,108336
105831,108331
105836,108365
105849,108372
105883,108372
105876,108418
105930,108401
105961,108412
105985,108462
106008,108478
106056,108459
106088,108505
106095,108502
106161,108503
106170,108551
106180,108535
106233,108567
106271,108602
106296,108593
106337,108626
106310,108642
106385,108629
106411,108649
106439,108703
106430,108663
106501,108673
106488,108717
106525,108712
106558,108717
106601,108735
106609,108719
106594,108767
106644,108757
106654,108802
106673,108778
106661,108818
106714,108793
106720,108799
106708,108819
106727,108788
106758,108808
106744,108807
106790,108839
106796,108844
106773,108830
106802,108825
106781,108843
106815,108836
106787,108864
106824,108866
106849,108851
106807,108840
106850,108873
106836,108906
106838,108875
106821,108890
106865,108852
106893,108890
106887,108896
106883,108923
106887,108889
106951,108935
106927,108927
106986,108933
106974,108942
106994,108955
106999,108930
107053,108976
107068,108996
107054,108989
107090,109011
107101,108973
107081,109001
107088,109018
107061,108996
107064,108949
106981,108937
106883,108886
106794,108796
106686,108779
106550,108696
106409,108610
106254,108525
106068,108468
105925,108344
105760,108309
105577,108193
105443,108135
105314,108066
105114,107999
104959,107889
104853,107862
104711,107792
104605,107699
104499,107663
104440,107660
104306,107552
104264,107585
104186,107550
104107,107479
104088,107472
104048,107474
104021,107469
104022,107446
104015,107465
103998,107441
104019,107434
103997,107467
104016,107467
104047,107484
104048,107486
104079,107525
104120,107497
104140,107515
104163,107559
104167,107529
104216,107612
104265,107600
104312,107633
104292,107645
104376,107628
104378,107674
104446,107686
104495,107722
104483,107692
104559,107759
104572,107737
104594,107791
104634,107802
104652,107786
104704,107825
104715,107828
104743,107848
104772,107862
104795,107877
104829,107874
104848,107884
104894,107926
104919,107906
104988,107952
104975,107981
105012,107980
105024,108008
105066,108007
105128,108007
105152,108056
105158,108037
105195,108051
105224,108081
105249,108083
105208,108126
105268,108121
105238,108082
105290,108119
105240,108124
105275,108077
105250,108073
105242,108082
105210,108100
105232,108073
105192,108067
105217,108092
105208,108063
105185,108040
105201,108061
105154,108057
105139,108010
105124,108029
105112,108028
105100,108031
105099,107983
105078,108013
105067,108013
105079,108003
105072,108022
105029,107993
105049,108021
105079,108005
105076,108022
105030,108019
105063,107995
105087,107992
105059,108011
105081,108020
105103,108036
105108,108015
105132,108061
105134,108069
105217,108076
105241,108088
105253,108105
105238,108120
105268,108096
105307,108166
105295,108157
105345,108168
105358,108145
105389,108203
105398,108168
105424,108192
105426,108248
105467,108204
105445,108212
105532,108243
105518,108245
105532,108247
105575,108256
105571,108281
105610,108308
105600,108322
105633,108289
105648,108300
105684,108328
105708,108330
105710,108322
105777,108395
105768,108375
105813,108372
105854,108397
105828,108418
105860,108408
105882,108427
105943,108461
105949,108440
105979,108478
106011,108521
106034,108520
106060,108520
106099,108559
106079,108574
106159,108581
106178,108563
106213,108603
106220,108616
106260,108614
106268,108655
106303,108662
106355,108681
106351,108653
106411,108677
106393,108724
106391,108719
106475,108723
106500,108725
106515,108775
106540,108725
106543,108757
106574,108791
106571,108786
106602,108787
106603,108821
106617,108825
106670,108829
106657,108849
106720,108828
106703,108876
106738,108878
106794,108875
106771,108904
106840,108903
106821,108923
106855,108926
106879,108950
106896,108942
106940,108940
106951,108986
106953,108970
106993,108967
106964,108996
106952,108933
106935,108974
106882,108928
106827,108884
106766,108835
106596,108777
106512,108705
106372,108632
106207,108533
106087,108482
105937,108386
105742,108272
105611,108211
105384,108144
105268,108061
105111,107961
104961,107910
104798,107839
104636,107779
104531,107671
104458,107649
104297,107615
104210,107570
104151,107507
104090,107513
104016,107454
103986,107467
103959,107423
103918,107443
103905,107394
103942,107412
103884,107402
103901,107425
103947,107424
103966,107451
103952,107436
104012,107492
104036,107503
104090,107496
104087,107525
104123,107550
104187,107553
104235,107547
104228,107602
104230,107607
104288,107594
104310,107650
104366,107655
104377,107663
104421,107679
104488,107714
104513,107735
104521,107733
104554,107730
104611,107804
104639,107781
104648,107775
104686,107822
104724,107825
104770,107837
104799,107868
104816,107872
104869,107892
104929,107925
104925,107932
104995,107969
105052,107966
105043,107995
105102,108015
105146,108027
105202,108046
105190,108081
105206,108088
105277,108093
105248,108074
105281,108091
105302,108104
105318,108128
105325,108096
105339,108105
105305,108134
105320,108094
105297,108099
105291,108099
105289,108088
105257,108105
105290,108083
105223,108068
105228,108062
105177,108025
105191,108047
105124,107998
105140,108029
105103,108014
105102,107965
105064,107999
105051,107945
105008,107960
104980,107951
104990,107924
105013,107947
104944,107928
104983,107935
104952,107899
104998,107942
104945,107948
104980,107934
104957,107953
104984,107958
104972,107965
104967,107927
105008,107963
105001,107968
105010,107962
105063,107990
105069,108030
105106,108000
105100,108001
105126,108044
105108,108035
105165,108021
105160,108070
105183,108067
105235,108079
105257,108118
105264,108088
105279,108143
105294,108139
105325,108165
105368,108150
105403,108206
105412,108176
105425,108192
105440,108218
105432,108196
105519,108227
105478,108218
105562,108249
105556,108281
105562,108247
105594,108325
105644,108287
105658,108313
105667,108290
105729,108325
105738,108365
105793,108357
105778,108393
105817,108385
105842,108391
105858,108443
105923,108414
105909,108432
105948,108476
105955,108477
106001,108474
105996,108510
106052,108500
106052,108504
106089,108531
106086,108582
106140,108544
106132,108573
106197,108574
106223,108585
106187,108593
106226,108581
106233,108621
106266,108631
106232,108636
106312,108629
106308,108666
106341,108643
106356,108672
106358,108670
106395,108646
106373,108665
106436,108707
106424,108687
106441,108720
106455,108685
106440,108739
106472,108716
106511,108727
106522,108730
106546,108761
106561,108748
106548,108784
106579,108776
106604,108773
106658,108818
106643,108779
106641,108792
106666,108822
106662,108797
106674,108818
106663,108804
106634,108797
106552,108733
106528,108705
106418,108690
106307,108603
106202,108544
106049,108458
105932,108386
105731,108332
105583,108244
105411,108154
105261,108050
105059,107981
104903,107856
104748,107773
104592,107731
104421,107657
104279,107604
104145,107496
104023,107450
103918,107408
103822,107350
103763,107351
103718,107300
103625,107284
103597,107262
103586,107239
103538,107274
103534,107220
103522,107219
103531,107213
103490,107250
103527,107219
103535,107270
103557,107226
103596,107235
103590,107281
103614,107254
103639,107326
103668,107320
103660,107309
103740,107336
103715,107346
103769,107356
103807,107376
103821,107411
103882,107413
103883,107464
103908,107420
103958,107453
103981,107498
104031,107470
104051,107510
104050,107536
104091,107549
104120,107543
104142,107564
104204,107590
104183,107597
104224,107608
104296,107625
104277,107642
104321,107641
104353,107681
104377,107696
104424,107692
104429,107713
104492,107741
104542,107759
104590,107747
104598,107783
104608,107764
104641,107809
104649,107860
104654,107811
104727,107830
104746,107857
104719,107865
104749,107891
104730,107855
104770,107845
104750,107835
104744,107859
104778,107866
104748,107875
104775,107819
104728,107873
104732,107841
104751,107866
104737,107847
104725,107836
104707,107857
104725,107823
104670,107850
104712,107828
104692,107834
104693,107803
104694,107827
104653,107786
104685,107816
104650,107808
104680,107801
104696,107856
104677,107806
104673,107814
104730,107839
104721,107811
104702,107885
104745,107840
104759,107857
104741,107848
104798,107899
104815,107877
104804,107861
104857,107890
104852,107953
104856,107915
104939,107952
104953,107952
104979,107967
104957,108010
104997,107991
105042,107996
105047,108013
105112,108022
105111,108073
105130,108054
105143,108046
105212,108109
105212,108074
105282,108114
105280,108115
105292,108143
105348,108163
105349,108201
105382,108155
105414,108179
105430,108223
105479,108238
105513,108254
105514,108270
105538,108259
105556,108307
105597,108266
105639,108303
105637,108340
105665,108325
105743,108351
105704,108381
105744,108370
105820,108392
105802,108408
105848,108386
105841,108454
105848,108431
105908,108439
105901,108444
105965,108449
105944,108483
105956,108461
105979,108484
106027,108493
105987,108507
106050,108533
106085,108530
106073,108532
106102,108522
106149,108560
106143,108557
106180,108583
106208,108608
106235,108588
106232,108634
106264,108604
106281,108656
106307,108610
106346,108687
106335,108646
106367,108662
106403,108660
106381,108675
106432,108684
106417,108723
106460,108683
106444,108717
106521,108731
106494,108713
106553,108712
106529,108762
106586,108747
106625,108791
106624,108795
106680,108788
106699,108831
106693,108843
106753,108859
106769,108851
106753,108894
106792,108861
106759,108837
106768,108863
106729,108825
106661,108806
106600,108731
106488,108683
106373,108625
106256,108556
106111,108466
105949,108369
105787,108289
105599,108214
105443,108147
105276,108050
105095,107965
104938,107847
104752,107804
104648,107733
104499,107661
104362,107604
104228,107541
104110,107488
104010,107449
103908,107400
103850,107372
103791,107314
103702,107308
103687,107300
103695,107297
103628,107263
103631,107279
103600,107301
103629,107253
103608,107270
103654,107303
103671,107309
103717,107325
103744,107351
103749,107320
103787,107355
103812,107383
103858,107382
103882,107427
103937,107430
103940,107471
104008,107492
104025,107482
104036,107512
104111,107526
104150,107556
104159,107590
104217,107589
104237,107629
104246,107618
104301,107625
104314,107669
104345,107659
104359,107679
104375,107654
104408,107714
104425,107735
104486,107719
104502,107719
104538,107723
104547,107777
104578,107773
104592,107788
104608,107807
104664,107835
104691,107802
104738,107835
104732,107856
104770,107899
104804,107889
104827,107891
104818,107897
104856,107928
104861,107930
104867,107909
104913,107940
104895,107931
104860,107904
104925,107916
104918,107925
104871,107938
104869,107891
104846,107924
104840,107923
104816,107880
104848,107899
104820,107884
104777,107885
104770,107859
104752,107850
104741,107883
104712,107836
104743,107848
104706,107838
104690,107802
104702,107830
104663,107823
104694,107822
104658,107818
104659,107784
104665,107812
104630,107800
104677,107849
104685,107838
104658,107817
104709,107805
104695,107839
104711,107814
104736,107861
104771,107858
104756,107892
104790,107879
104804,107888
104831,107906
104839,107903
104864,107945
104921,107918
104923,107991
104939,107948
104977,107968
105000,107997
104991,108025
105034,107987
105060,108025
105083,108008
105118,108020
105100,108056
105140,108051
105186,108101
105193,108062
105220,108107
105257,108107
105292,108130
105297,108155
105342,108141
105343,108176
105379,108169
105389,108214
105432,108201
105457,108220
105472,108250
105483,108247
105539,108268
105555,108271
105572,108302
105576,108302
105647,108292
105631,108355
105686,108303
105726,108363
105753,108337
105726,108382
105764,108352
105839,108408
105845,108385
105831,108420
105848,108409
105902,108442
105863,108414
105946,108464
105908,108434
105957,108457
105964,108480
105939,108498
105972,108456
106039,108472
106013,108477
106029,108509
106050,108490
106060,108496
106100,108556
106054,108533
106097,108526
106136,108546
106159,108557
106146,108584
106174,108549
106199,108616
106184,108569
106248,108591
106210,108584
106274,108612
106244,108614
106247,108585
106252,108567
106222,108573
106194,108574
106145,108527
106111,108471
105986,108469
105892,108391
105783,108358
105693,108271
105515,108183
105340,108097
105252,108020
105066,107977
104936,107849
104740,107784
104620,107754
104441,107647
104350,107577
104194,107513
104096,107460
103962,107384
103899,107365
103752,107336
103695,107290
103632,107246
103570,107235
103547,107220
103493,107169
103464,107202
103486,107205
103484,107203
103435,107186
103483,107195
103464,107203
103492,107180
103493,107245
103546,107211
103538,107269
103578,107259
103611,107266
103623,107264
103680,107289
103671,107337
103721,107339
103741,107343
103790,107395
103794,107353
103889,107419
103856,107421
103914,107428
103945,107429
103970,107444
103984,107465
104018,107488
104066,107507
104082,107493
104089,107507
104115,107507
104128,107530
104118,107540
104188,107540
104212,107559
104198,107576
104260,107585
104313,107650
104324,107590
104332,107666
104380,107651
104368,107667
104430,107701
104446,107650
104481,107696
104439,107691
104494,107710
104498,107743
104530,107705
