11111,11111
0,0
81112,80221
101684,98306
101704,98307
101724,98335
101721,98362
101749,98320
101732,98299
101753,98332
101777,98382
101829,98407
101793,98349
101822,98321
101808,98378
101868,98399
101891,98408
101890,98395
101922,98385
101894,98375
101983,98461
102020,98443
101997,98454
102017,98422
102041,98481
102077,98472
102132,98499
102133,98498
102106,98474
102160,98482
102206,98563
102144,98488
102110,98465
102006,98429
101831,98285
101707,98274
101441,98128
101244,98052
100968,97916
100755,97782
100593,97735
100395,97670
100253,97542
100089,97523
99947,97411
99906,97401
99745,97337
99662,97294
99546,97281
99503,97167
99451,97211
99387,97206
99326,97160
99220,97098
99228,97074
99213,97112
99180,97105
99124,97061
99074,97032
99101,97052
99083,97054
99116,97056
99077,97040
99019,97041
99060,97007
99061,97038
99090,97081
99070,97090
99046,97021
99104,97070
99110,97117
99165,97117
99130,97077
99137,97065
99183,97104
99185,97132
99235,97171
99240,97140
99208,97131
99206,97130
99324,97162
99314,97213
99310,97166
99317,97112
99317,97186
99336,97188
99372,97195
99368,97205
99356,97180
99364,97182
99451,97228
99383,97255
99377,97218
99406,97195
99440,97201
99463,97250
99466,97256
99502,97277
99481,97256
99531,97232
99585,97327
99590,97284
99595,97326
99578,97261
99638,97316
99648,97357
99673,97352
99651,97310
99687,97313
99659,97338
99685,97376
99724,97355
99696,97351
99677,97326
99680,97354
99702,97344
99730,97331
99709,97343
99674,97299
99662,97321
99721,97328
99681,97379
99654,97311
99621,97309
99653,97282
99644,97338
99829,97399
100249,97576
100288,97642
100472,97675
100534,97710
100542,97756
100816,97850
100794,97792
100846,97854
100899,97895
101190,98030
101141,97984
101176,97976
101132,97940
101227,98025
101205,98052
101254,98048
101207,98022
101204,97986
101228,98036
101234,98015
101258,98051
101272,98034
101209,98013
101263,98036
101282,98062
101319,98036
101297,98059
101235,97982
101322,98047
101318,98052
101363,98081
101348,98119
101321,98012
101411,98092
101387,98124
101389,98102
101435,98084
101375,98106
101420,98113
101488,98145
101485,98112
101503,98138
101415,98061
101486,98123
101482,98157
101440,98116
101349,98061
101221,97965
101160,97953
101016,97872
100753,97775
100538,97660
100312,97523
100159,97501
99991,97385
99824,97324
99698,97228
99494,97105
99450,97134
99341,97115
99213,97024
99078,96981
99017,96921
98948,96914
98925,96876
98825,96857
98796,96836
98722,96748
98721,96813
98635,96753
98601,96782
98556,96721
98476,96665
98519,96719
98496,96687
98494,96684
98426,96685
98372,96611
98447,96665
98389,96703
98378,96647
98414,96652
98377,96634
98384,96679
98389,96710
98411,96659
98431,96693
98382,96640
98450,96714
98445,96751
98466,96718
98515,96747
98480,96675
98563,96782
98560,96772
98522,96758
98525,96762
98561,96735
98602,96784
98621,96821
98588,96796
98584,96793
98626,96751
98644,96808
98649,96839
98614,96796
98623,96800
98668,96819
98677,96836
98709,96810
98731,96843
98714,96847
98699,96834
98792,96881
98806,96901
98809,96901
98834,96881
98811,96871
98897,96922
98933,96974
98915,96939
98911,96917
98875,96888
98962,96913
98975,96954
98956,96923
98932,96947
98904,96904
98960,96923
98969,96990
98934,96955
98951,96923
98906,96931
98931,96939
98989,96955
98903,96921
98911,96919
98891,96881
98927,96948
98908,96955
98889,96902
98942,96913
98887,96879
98943,96946
98955,96947
98923,96952
98917,96891
98901,96924
98956,96925
98980,96940
98939,96953
98948,96906
98960,96933
98993,96956
99021,96955
99037,96969
98979,96939
98993,96904
99106,97006
99072,96967
99083,96994
99127,96998
99108,97006
99158,97037
99235,97052
99206,97082
99227,97063
99230,97033
99293,97098
99312,97113
99347,97106
99326,97146
99369,97107
99429,97159
99455,97165
99445,97186
99461,97135
99515,97174
99542,97209
99512,97219
99547,97206
99575,97184
99584,97212
99627,97219
99646,97272
99682,97273
99679,97276
99677,97242
99786,97279
99780,97359
99816,97324
99837,97336
99869,97342
99905,97399
99963,97399
99956,97397
99978,97408
100005,97389
100026,97444
100108,97456
100070,97473
100125,97408
100120,97446
100168,97493
100143,97490
100208,97476
100218,97506
100204,97473
100289,97533
100262,97551
100272,97546
100280,97508
100297,97533
100362,97537
100379,97602
100394,97558
100356,97581
100365,97547
100489,97629
100457,97603
100450,97601
100515,97616
100498,97624
100582,97671
100554,97643
100574,97647
100559,97625
100567,97638
100627,97668
100687,97716
100631,97671
100647,97708
100681,97681
100700,97728
100756,97744
100734,97754
100728,97682
100764,97750
100808,97758
100824,97787
100842,97760
100767,97756
100820,97734
100865,97811
100864,97791
100827,97766
100878,97766
100852,97793
100919,97778
100919,97858
100902,97822
100908,97756
100919,97777
100973,97836
100997,97833
101008,97863
100962,97806
101003,97807
101050,97874
101075,97869
101086,97913
101074,97838
101095,97856
101172,97888
101173,97946
101152,97919
101187,97924
101192,97929
101271,97967
101227,97958
101270,97970
101212,97911
101244,97935
101252,97958
101149,97930
101032,97814
100843,97767
100660,97648
100530,97564
100293,97516
100120,97411
99930,97285
99749,97220
99651,97131
99496,97134
99334,97021
99209,96930
99144,96924
99071,96946
98954,96872
98900,96803
98796,96783
98741,96750
98715,96781
98685,96708
98598,96702
98534,96597
98520,96644
98518,96656
98411,96651
98433,96586
98364,96602
98377,96564
98386,96611
98366,96588
98337,96587
98319,96591
98315,96548
98394,96616
98358,96603
98348,96615
98367,96573
98375,96619
98374,96631
98406,96681
98389,96623
98388,96595
98437,96641
98451,96699
98440,96655
98480,96662
98423,96640
98473,96680
98521,96694
98514,96718
98479,96683
98517,96696
98523,96704
98592,96742
98579,96729
98580,96755
98562,96669
98589,96773
98629,96759
98644,96743
98632,96791
98639,96795
98680,96765
98740,96799
98735,96816
98762,96835
98758,96820
98785,96827
98852,96862
98826,96852
98883,96867
98863,96820
98896,96885
98896,96877
98910,96878
98843,96860
98843,96875
98877,96864
98856,96889
98852,96863
98910,96903
98813,96799
98850,96841
98873,96876
98868,96840
98864,96869
98810,96821
98882,96826
98842,96884
98823,96888
98842,96843
98787,96799
98849,96864
98836,96827
98819,96846
98831,96839
98736,96815
98849,96849
98822,96887
98844,96841
98833,96846
98783,96830
98831,96838
98846,96880
98859,96856
98870,96865
98867,96863
98861,96869
98900,96889
98890,96883
98942,96902
98922,96877
98953,96901
99001,96929
99003,96961
99014,96942
99008,96919
99061,96946
99076,96999
99103,96960
99102,96983
99117,96954
99166,96984
99185,97048
99198,97030
99237,97062
99210,96999
99275,97046
99292,97055
99365,97095
99327,97091
99305,97088
99398,97088
99434,97146
99423,97157
99452,97115
99458,97128
99532,97157
99569,97205
99579,97240
99559,97173
99567,97186
99612,97235
99687,97292
99690,97246
99701,97251
99692,97197
99739,97264
99747,97288
99779,97282
99757,97322
99772,97238
99836,97323
99870,97360
99859,97326
99906,97364
99881,97276
99933,97375
99969,97415
99942,97363
99959,97362
99954,97360
100023,97400
100031,97428
100058,97413
100026,97445
100028,97385
100068,97420
100115,97406
100110,97458
100071,97432
100091,97419
100135,97435
100136,97470
100116,97427
100163,97465
100098,97397
100184,97498
100196,97503
100165,97463
100197,97482
100145,97410
100202,97487
100237,97516
100231,97512
100220,97468
100176,97481
100283,97504
100241,97522
100264,97487
100245,97521
100255,97486
100298,97518
100282,97526
100326,97528
100279,97555
100286,97514
100329,97552
100382,97581
100328,97570
100391,97587
100371,97530
100424,97577
100391,97573
100436,97603
100462,97600
100409,97591
100472,97606
100533,97649
100523,97622
100487,97610
100509,97596
100559,97668
100558,97635
100541,97657
100564,97649
100530,97615
100591,97677
100536,97617
100511,97620
100432,97571
100281,97489
100164,97454
100058,97390
99800,97274
99666,97181
99493,97077
99373,97070
99254,96986
99117,96923
98959,96863
98836,96780
98783,96798
98689,96742
98605,96697
98483,96653
98413,96579
98374,96617
98330,96579
98237,96533
98191,96526
98061,96445
98057,96434
98019,96479
97978,96413
97869,96397
97817,96334
97847,96338
97809,96385
97740,96314
97719,96321
97683,96279
97697,96298
97689,96372
97610,96289
97658,96286
97575,96250
97626,96298
97636,96331
97609,96320
97592,96249
97566,96287
97588,96293
97645,96309
97598,96341
97584,96294
97608,96285
97615,96353
97674,96374
97629,96349
97622,96308
97605,96287
97677,96340
97665,96349
97648,96359
97656,96335
97600,96282
97709,96340
97653,96368
97664,96327
97640,96357
97659,96342
97711,96340
97769,96407
97724,96420
97734,96355
97776,96396
97786,96402
97857,96464
97824,96444
97867,96422
97852,96437
97912,96493
97935,96461
97957,96489
97910,96433
97930,96466
97971,96508
98030,96520
98000,96532
97973,96497
97980,96453
98056,96527
98026,96542
97983,96543
98001,96483
97993,96478
97984,96519
98036,96546
98030,96547
98025,96519
97984,96500
98061,96519
98022,96561
98002,96487
98037,96511
97983,96480
98079,96520
98078,96568
98049,96534
98069,96528
98031,96485
98087,96560
98107,96578
98127,96555
98104,96538
98087,96538
98142,96543
98166,96549
98132,96565
98136,96593
98103,96539
98192,96572
98190,96591
98225,96586
98223,96556
98240,96608
98268,96650
98337,96667
98324,96662
98328,96620
98375,96652
98366,96706
98417,96688
98471,96738
98429,96699
98440,96711
98513,96740
98494,96755
98491,96762
98532,96744
98524,96733
98613,96767
98589,96799
98604,96807
98613,96754
98637,96781
98664,96825
98699,96891
98728,96818
98729,96839
98703,96819
98774,96869
98798,96876
98796,96886
98831,96882
98825,96898
98889,96885
98926,96983
98891,96926
98952,96926
98932,96907
98989,96963
98965,96991
98992,96996
98996,96925
98998,96946
99021,97011
99064,97001
99103,97025
99062,96995
99067,96987
99142,97037
99166,97054
99163,97031
99163,97056
99180,97014
99267,97080
99242,97064
99248,97070
99221,97053
99284,97067
99256,97092
99301,97137
99318,97120
99332,97099
99309,97094
99333,97147
99390,97144
99363,97117
99326,97109
99367,97097
99413,97154
99416,97176
99418,97119
99408,97129
99442,97137
99469,97172
99491,97183
99482,97214
99466,97131
99502,97170
99561,97194
99558,97216
99575,97240
99536,97147
99571,97209
99593,97217
99578,97233
99625,97255
99568,97185
99558,97220
99604,97242
99626,97283
99611,97253
99639,97254
99662,97254
99704,97282
99711,97302
99692,97281
99715,97284
99728,97286
99793,97332
99794,97334
99813,97347
99826,97298
99865,97351
99914,97387
99947,97413
99957,97407
99923,97386
99991,97393
100028,97429
100030,97444
100029,97426
100020,97414
100027,97436
100062,97456
99951,97412
99910,97359
99752,97280
99681,97211
99495,97191
99360,97094
99174,97025
98975,96874
98868,96809
98709,96794
98608,96741
98499,96643
98341,96627
98251,96550
98230,96547
98125,96527
97998,96434
97910,96394
97799,96328
97748,96373
97663,96327
97578,96280
97487,96177
97420,96158
97405,96187
97303,96149
97253,96087
97121,96072
97051,96032
97052,96053
96998,96055
96937,96027
96890,95937
96890,95952
96835,96004
96863,95989
96811,95977
96747,95916
96785,95915
96774,95974
96773,95958
96787,95954
96775,95943
96748,95955
96813,95954
96809,96006
96766,95988
96802,95962
96826,95989
96851,96010
96836,96004
96835,96008
96813,95930
96865,96020
96924,96005
96911,96039
96876,96049
96865,95962
96914,96012
96915,96027
96946,96041
96921,96036
96912,96017
96946,96070
96972,96061
96999,96098
97011,96097
96967,96048
97043,96072
97070,96158
97065,96131
97089,96122
97049,96121
97106,96142
97128,96145
97149,96159
97124,96129
97111,96095
97143,96168
97175,96146
97167,96150
97175,96163
97140,96139
97166,96134
97173,96192
97150,96146
97198,96147
97131,96160
97162,96127
97198,96161
97184,96160
97140,96159
97140,96105
97191,96177
97174,96140
97167,96138
97147,96154
97129,96108
97134,96128
97191,96184
97123,96181
97163,96156
97135,96106
97139,96152
97207,96176
97165,96197
97175,96135
97104,96141
97206,96160
97246,96225
97187,96195
97253,96184
97203,96185
97246,96182
97300,96264
97335,96228
97284,96269
97308,96210
97396,96258
97403,96290
97447,96297
97471,96321
97422,96301
97505,96332
97512,96345
97552,96357
97598,96351
97584,96349
97595,96351
97668,96434
97684,96444
97692,96407
97680,96388
97694,96410
97783,96455
97760,96485
97787,96437
97737,96426
97845,96472
97889,96508
97887,96517
97888,96534
97872,96483
97951,96553
97990,96568
97980,96576
98029,96579
97991,96535
98072,96590
98121,96614
98098,96609
98130,96627
98133,96563
98184,96632
98206,96653
98227,96644
98237,96659
98223,96613
98231,96663
98290,96715
98306,96683
98284,96696
98284,96653
98324,96686
98356,96724
98361,96737
98372,96712
98365,96683
98369,96723
98446,96779
98394,96772
98430,96729
98423,96672
98411,96763
98479,96790
98472,96792
98477,96745
98497,96757
98493,96757
98553,96818
98573,96802
98580,96814
98515,96796
98595,96797
98629,96877
98613,96831
98616,96821
98608,96774
98654,96862
98713,96882
98641,96869
98691,96861
98652,96843
98672,96827
98706,96910
98693,96875
98698,96886
98655,96852
98739,96875
98762,96884
98766,96909
98737,96885
98741,96857
98852,96927
98861,96928
98851,96941
98902,96939
98835,96935
98950,96960
98947,96977
98961,96996
99005,97016
98975,96985
99066,96998
99069,97048
99119,97056
99098,97087
99052,96999
99155,97074
99158,97080
99126,97074
99107,97046
99049,97017
99027,96976
98920,96962
98813,96935
98693,96838
98502,96685
98413,96703
98271,96649
98165,96559
98019,96518
97853,96409
97814,96437
97722,96392
97580,96329
97484,96294
97341,96163
97323,96188
97228,96173
97117,96069
97010,96055
96851,95933
96812,95962
96720,95909
96626,95879
96533,95828
96422,95777
96415,95757
96322,95749
96239,95710
96176,95690
96070,95650
96107,95681
96058,95660
96031,95628
95994,95644
95900,95585
95973,95604
95966,95644
95915,95632
95909,95608
95919,95579
95913,95621
95940,95635
95955,95653
95935,95684
95894,95591
95994,95693
95972,95691
95965,95675
95965,95698
95942,95628
96050,95728
96066,95728
96026,95715
96088,95735
96069,95688
96103,95761
96154,95768
96169,95767
96151,95721
96143,95733
96206,95802
96249,95832
96260,95787
96280,95812
96286,95817
96385,95853
96409,95900
96378,95867
96434,95883
96438,95887
96470,95926
96491,95937
96509,95932
96484,95947
96470,95860
96551,95984
96558,95977
96566,95961
96547,95924
96578,95941
96575,95948
96606,95994
96600,95946
96555,95957
96577,95950
96596,95965
96620,95961
96626,95993
96647,95967
96582,95931
96627,95979
96625,95983
96634,95982
96623,95937
96632,95944
96630,95981
96678,95994
96648,96030
96643,95959
96664,95962
96679,95998
96712,96019
96673,96033
96663,95980
96694,95971
96699,96051
96724,96035
96763,96050
96730,96039
96711,95968
96807,96099
96799,96092
96800,96050
96836,96073
96772,96075
96872,96077
96903,96148
96876,96135
96903,96117
96894,96073
96936,96152
96969,96144
97021,96210
97009,96173
97007,96146
97029,96185
97105,96207
97109,96183
97120,96232
97105,96197
97206,96270
97210,96289
97221,96268
97224,96257
97263,96263
97303,96302
97349,96352
97328,96343
97345,96299
97404,96341
97413,96368
97494,96413
97463,96388
97511,96399
97480,96383
97580,96418
97546,96475
97574,96412
97570,96408
97607,96422
97641,96450
97650,96479
97695,96503
97660,96464
97687,96443
97703,96479
97763,96506
97707,96550
97745,96478
97740,96477
97815,96550
97842,96545
97818,96571
97832,96526
97872,96554
97896,96571
97944,96616
97926,96562
97934,96565
97892,96581
97989,96587
97980,96646
97985,96589
97963,96597
97933,96558
97991,96648
97998,96655
97994,96603
98022,96612
97985,96590
98069,96669
98020,96681
98020,96628
98016,96628
98051,96622
98066,96640
98093,96690
98088,96682
98052,96652
98061,96631
98140,96716
98131,96691
98115,96695
98112,96643
98130,96704
98163,96724
98145,96721
98189,96705
98180,96685
98155,96705
98255,96741
98259,96756
98243,96762
98260,96732
98270,96707
98321,96806
98315,96777
98331,96804
98300,96778
98370,96792
98358,96833
98387,96812
98426,96838
98367,96805
98383,96768
98414,96812
98378,96842
98277,96725
98194,96702
98111,96630
97982,96600
97873,96554
97687,96441
97587,96392
97430,96320
97327,96303
97243,96254
97100,96163
96979,96095
96825,96069
96787,96031
96603,95967
96498,95893
96375,95811
96230,95762
96136,95782
96045,95711
95904,95682
95762,95583
95729,95533
95645,95579
95552,95507
95506,95484
95391,95417
95289,95389
95284,95399
95255,95430
95176,95344
95092,95328
95045,95294
95074,95360
95035,95346
95026,95329
94940,95300
94974,95297
94962,95311
95012,95345
95001,95321
95004,95367
95014,95318
95075,95403
95085,95408
95155,95397
95118,95380
95191,95417
95208,95440
95287,95468
95269,95419
95294,95458
95326,95489
95324,95523
95361,95487
95378,95538
95328,95486
95416,95489
95420,95552
95494,95595
95486,95552
95453,95541
95512,95558
95555,95640
95553,95591
95634,95649
95589,95611
95676,95625
95717,95694
95737,95714
95726,95686
95750,95668
95755,95705
95832,95709
95838,95764
95826,95712
95830,95706
95824,95753
95845,95736
95890,95772
95895,95730
95862,95732
95876,95761
95907,95760
95876,95781
95906,95747
95869,95711
95853,95725
95924,95777
95863,95775
95895,95749
95836,95703
95902,95734
95913,95770
95862,95776
95919,95767
95853,95745
95895,95729
95916,95787
95918,95761
95865,95758
95889,95720
95920,95784
95966,95812
95977,95793
95947,95799
95921,95721
95960,95807
96005,95811
96013,95828
96029,95831
95999,95792
96083,95820
96059,95852
96086,95890
96085,95874
96082,95845
96168,95860
96222,95937
96209,95915
96269,95932
96244,95915
96289,95942
96314,96013
96341,95939
96335,96012
96340,95946
96436,96022
96479,96056
96502,96022
96493,96054
96483,96006
96545,96085
96609,96122
96597,96115
96604,96107
96617,96102
96622,96111
96698,96154
96740,96148
96698,96140
96681,96116
96742,96190
96753,96195
96817,96197
96802,96194
96770,96170
96817,96177
96876,96221
96876,96258
96865,96211
96851,96220
96879,96243
96920,96248
96917,96257
96918,96285
96899,96230
96920,96270
96953,96298
96947,96279
96901,96263
96906,96236
96959,96277
96962,96292
96943,96292
96951,96281
96925,96261
96975,96269
97012,96312
97023,96330
97028,96315
96997,96302
97068,96338
97094,96357
97096,96345
97146,96376
97142,96334
97223,96413
97215,96466
97244,96413
97281,96462
97289,96398
97298,96456
97368,96496
97387,96474
97385,96504
97389,96469
97440,96488
97493,96540
97475,96517
97512,96511
97499,96524
97540,96535
97552,96601
97598,96609
97609,96606
97561,96533
97680,96614
97686,96645
97695,96642
97726,96654
97663,96603
97763,96629
97772,96688
97756,96694
97766,96708
97768,96595
97806,96689
97892,96714
97846,96731
97859,96697
97872,96653
97919,96734
97954,96729
97949,96797
97963,96750
97973,96710
97984,96794
98008,96786
98011,96807
98045,96807
97998,96743
98083,96815
98097,96811
98034,96829
98023,96812
98028,96756
98071,96810
98092,96810
98069,96828
98068,96795
97970,96713
97988,96764
97887,96726
97773,96643
97609,96564
97478,96451
97339,96425
97276,96355
97115,96328
96971,96230
96799,96119
96715,96132
96608,96064
96463,96033
96299,95904
96140,95834
96058,95820
95932,95790
95797,95695
95699,95689
95484,95560
95469,95598
95405,95558
95251,95494
95200,95454
95049,95394
95081,95392
94979,95432
94943,95340
94867,95320
94760,95277
94814,95292
94770,95309
94727,95311
94670,95302
94674,95242
94722,95298
94709,95333
94731,95283
94714,95338
94666,95288
94786,95347
94793,95429
94840,95361
94840,95377
94871,95362
94935,95394
95006,95467
95015,95455
95020,95474
95042,95410
95074,95519
95144,95529
95111,95536
95188,95536
95155,95485
95181,95527
95263,95564
95228,95564
95227,95563
95271,95533
95295,95597
95334,95578
95366,95627
95360,95609
95390,95599
95423,95655
95468,95620
95501,95696
95507,95659
95481,95655
95582,95722
95618,95751
95586,95733
95629,95714
95607,95728
95683,95749
95686,95787
95697,95780
95695,95777
95717,95718
95750,95816
95761,95773
95794,95824
95787,95793
95782,95747
95860,95851
95839,95850
95859,95832
95841,95805
95811,95795
95870,95818
95876,95843
95865,95819
95850,95803
95821,95780
95890,95838
95875,95898
95875,95825
95868,95836
95858,95791
95868,95842
95882,95871
95933,95855
95919,95843
95895,95840
95949,95901
95982,95925
95959,95884
95965,95851
96004,95889
96027,95911
96072,95964
96106,95929
96090,95954
96096,95899
96165,95982
96183,96003
96167,95973
96216,95981
96214,95996
96230,96026
96283,96029
96260,96036
96306,96059
96276,96044
96340,96054
96376,96104
96402,96105
96387,96090
96400,96076
96452,96149
96503,96144
96493,96185
96472,96139
96540,96144
96575,96167
96610,96212
96584,96223
96568,96186
96606,96174
96649,96211
96683,96257
96672,96276
96660,96214
96698,96245
96759,96258
96761,96315
96802,96277
96787,96306
96775,96296
96846,96293
96873,96354
96911,96331
96892,96360
96877,96343
96949,96365
97017,96382
96964,96404
96979,96383
96991,96382
97068,96409
97064,96433
97082,96395
97078,96433
97070,96382
97141,96455
97136,96466
97129,96426
97147,96474
97131,96413
97165,96484
97190,96480
97196,96442
97237,96473
97171,96470
97251,96480
97253,96532
97277,96510
97257,96481
97264,96478
97241,96513
97310,96541
97285,96508
97291,96507
97283,96514
97290,96540
97330,96522
97323,96576
97323,96542
97312,96525
97337,96556
97376,96550
97338,96573
97322,96531
97351,96560
97393,96600
97445,96588
97380,96581
97403,96550
97429,96597
97462,96611
97486,96634
97470,96606
97470,96581
97506,96625
97493,96629
97526,96632
97523,96644
97529,96627
97537,96645
97545,96676
97578,96646
97571,96691
97547,96647
97548,96647
97626,96677
97657,96732
97602,96691
97667,96682
97647,96698
97701,96766
97714,96737
97750,96763
97738,96762
97779,96745
97800,96782
97872,96803
97890,96797
97848,96747
97919,96795
97914,96806
97853,96832
97808,96756
97672,96665
97603,96650
97502,96562
97365,96544
97218,96448
97049,96366
96927,96319
96844,96261
96741,96253
96591,96145
96441,96084
96304,95989
96242,96002
96092,95904
95965,95880
95835,95792
95703,95748
95668,95749
95514,95679
95448,95637
95337,95580
95238,95544
95188,95545
95141,95567
95036,95464
94992,95406
94911,95444
94893,95419
94857,95443
94790,95379
94761,95357
94694,95345
94779,95371
94751,95407
94709,95401
94686,95359
94671,95373
94733,95377
94810,95449
94766,95385
94748,95404
94804,95406
94870,95497
94916,95454
94899,95495
94948,95468
94967,95510
95029,95571
95053,95526
95106,95583
95080,95566
95069,95529
95175,95641
95201,95650
95148,95627
95185,95583
95195,95625
95233,95647
95299,95675
95271,95678
95334,95628
95350,95712
95411,95694
95416,95749
95451,95751
95467,95708
95537,95763
95556,95823
95617,95811
95578,95818
95630,95808
95638,95822
95695,95809
95672,95887
95697,95840
95697,95838
95698,95844
95763,95874
95746,95896
95733,95855
95736,95884
95734,95846
95803,95900
95790,95867
95786,95888
95755,95886
95798,95858
95839,95939
95831,95890
95823,95928
95741,95830
95793,95894
95811,95914
95825,95897
95790,95888
95767,95870
95770,95853
95810,95930
95816,95904
95767,95909
95795,95872
95751,95888
95815,95873
95816,95951
95803,95893
95768,95889
95836,95902
95828,95929
95902,95953
95851,95965
95873,95895
95897,95918
95924,95996
95939,95967
96008,95981
95937,95970
95997,95974
96052,96039
96050,96033
96060,96041
96062,95998
96103,96031
96138,96086
96183,96115
96180,96087
96202,96065
96240,96109
96248,96142
96329,96169
96324,96170
96319,96162
96311,96139
96401,96164
96414,96229
96431,96198
96439,96153
96475,96202
96534,96276
96526,96226
96552,96276
96520,96196
96573,96234
96624,96297
96631,96311
96629,96290
96635,96286
96656,96293
96708,96352
96743,96356
96724,96328
96707,96313
96724,96319
96814,96375
96803,96374
96828,96383
96815,96348
96847,96405
96890,96420
96882,96405
96911,96438
96891,96391
96932,96441
96973,96458
96977,96454
96985,96451
96940,96415
97022,96466
97061,96503
97042,96495
97058,96480
97052,96449
97059,96491
97106,96536
97111,96505
97150,96514
97094,96498
97150,96518
97191,96540
97213,96551
97186,96567
97145,96490
97214,96551
97232,96575
97217,96540
97255,96569
97187,96531
97222,96564
97282,96601
97292,96605
97243,96596
97221,96558
97291,96592
97302,96611
97322,96594
97303,96593
97283,96586
97323,96646
97335,96616
97327,96648
97330,96612
97344,96608
97338,96619
97402,96645
97372,96620
97390,96654
97368,96605
97400,96619
97454,96711
97420,96642
97411,96673
97420,96638
97446,96690
97439,96708
97482,96689
97455,96687
97436,96683
97492,96684
97555,96729
97556,96735
97553,96735
97539,96706
97596,96740
97621,96805
97665,96780
97631,96781
97618,96770
97650,96756
97684,96782
97595,96766
97561,96714
97437,96649
97366,96609
97262,96560
97108,96506
97001,96438
96839,96330
96719,96309
96639,96278
96486,96157
96353,96113
96159,95977
96077,95986
95950,95948
95826,95890
95644,95813
95519,95693
95414,95695
95319,95633
95193,95622
95023,95545
94905,95496
94839,95449
94826,95465
94678,95404
94580,95341
94513,95316
94483,95299
94375,95307
94350,95249
94303,95272
94178,95189
94171,95215
94162,95245
94156,95202
94160,95241
94126,95135
94178,95220
94198,95267
94203,95226
94240,95284
94213,95235
94306,95296
94410,95326
94385,95334
94437,95362
94451,95323
94508,95408
94527,95391
94586,95408
94543,95415
94598,95378
94664,95445
94694,95467
94718,95499
94753,95498
94710,95444
94783,95492
94828,95499
94835,95561
94823,95519
94822,95496
94918,95557
94933,95608
94946,95606
95005,95607
94989,95594
95051,95653
95085,95676
95134,95675
95158,95700
95172,95641
95240,95739
95267,95729
95262,95731
95255,95731
95259,95689
95288,95760
95302,95755
95296,95751
95332,95738
95255,95707
95343,95750
95357,95815
95356,95768
95386,95750
95369,95732
95399,95790
95458,95792
95433,95826
95431,95759
95411,95757
95509,95817
95538,95854
95492,95837
95530,95834
95517,95820
95574,95868
95602,95844
95591,95868
95630,95883
95602,95821
95666,95903
95715,95923
95743,95916
95701,95933
95719,95879
95802,95964
95806,95951
95847,95979
95842,95997
95851,95934
95906,96051
95923,96012
95953,96067
95969,96017
96003,96051
96050,96084
96094,96132
96086,96115
96137,96100
96156,96110
96189,96159
96258,96177
96264,96183
96288,96244
96323,96164
96376,96238
96415,96282
96448,96249
96455,96301
96450,96209
96550,96305
96583,96338
96581,96335
96605,96347
96590,96294
96709,96385
96709,96390
96746,96404
96722,96401
96737,96383
96777,96427
96839,96475
96840,96429
96911,96459
96854,96399
96931,96483
97009,96501
97009,96527
97004,96507
97013,96490
97060,96543
97111,96583
97081,96579
97125,96524
97094,96551
97206,96605
97206,96612
97258,96615
97186,96612
97222,96580
97290,96651
97296,96636
97333,96645
97304,96646
97334,96639
97383,96672
97382,96733
97366,96721
97373,96690
97365,96647
97480,96747
97456,96711
97496,96730
97470,96718
97441,96708
97540,96759
97559,96804
97555,96746
97551,96749
97544,96750
97611,96786
97638,96796
97650,96820
97622,96817
97656,96781
97729,96831
97750,96858
97755,96825
97718,96849
97723,96800
97790,96874
97811,96866
97813,96896
97821,96893
97786,96843
97873,96904
97894,96918
97890,96906
97862,96897
97882,96907
97968,96952
97951,96949
97944,96961
97945,96924
97928,96914
98000,96985
98019,96999
97994,96967
98006,96975
97981,96931
98072,96997
98097,97031
98103,97027
98104,97001
98081,97006
98160,97027
98154,97083
98175,97075
98205,97065
98187,97029
98227,97094
98268,97116
98270,97120
98281,97082
98263,97076
98340,97094
98362,97163
98356,97143
98385,97122
98378,97139
98391,97165
98458,97221
98418,97179
98410,97173
98413,97137
98422,97191
98386,97118
98250,97076
98132,96981
97985,96924
97848,96864
97733,96787
97575,96734
97389,96604
97284,96575
97163,96529
97098,96504
96932,96434
96820,96330
96702,96255
96613,96257
96470,96250
96336,96141
96260,96106
96092,96014
96003,96014
95941,95971
95817,95937
95708,95836
95640,95823
95566,95826
95507,95803
95454,95793
95369,95745
95343,95724
95349,95737
95279,95771
95260,95681
95250,95671
95230,95653
95222,95696
95246,95721
95217,95734
95237,95659
95230,95716
95244,95752
95304,95744
95299,95776
95284,95723
95332,95735
95352,95778
95407,95814
95404,95853
95429,95777
95463,95821
95497,95844
95528,95871
95532,95851
95576,95846
95533,95847
95609,95901
95648,95936
95658,95931
95664,95881
95675,95906
95704,95959
95774,95975
95751,96011
95772,95956
95797,95976
95837,96024
95882,96024
95917,96035
95912,96052
95955,96040
96047,96100
96090,96141
96092,96134
96109,96082
96126,96147
96182,96147
96203,96191
96211,96140
96232,96148
96183,96167
96265,96158
96270,96183
96254,96163
96243,96179
96209,96161
96289,96166
96276,96216
96269,96171
96219,96160
96247,96160
96257,96178
96300,96192
96249,96187
96270,96155
96241,96160
96272,96202
96283,96198
96310,96167
96250,96172
96266,96170
96294,96209
96334,96238
96352,96191
96278,96199
96345,96161
96364,96207
96402,96259
96392,96202
96364,96212
96418,96224
96431,96267
96462,96287
96476,96250
96464,96246
96469,96259
96559,96293
96542,96330
96565,96325
96593,96301
96569,96322
96684,96374
96692,96407
96706,96357
96748,96372
96742,96393
96843,96406
96858,96461
96886,96439
96860,96439
96934,96476
96972,96508
97027,96513
96993,96512
97033,96503
97052,96533
97128,96563
97162,96584
97133,96571
97169,96568
97237,96604
97283,96641
97303,96653
97350,96672
97339,96641
97384,96659
97412,96697
97466,96746
97493,96729
97496,96712
97517,96732
97596,96779
97630,96782
97640,96779
97637,96756
97676,96794
97694,96835
97757,96886
97727,96814
97771,96847
97801,96846
97828,96890
97828,96884
97846,96857
97822,96865
97868,96880
97922,96912
97929,96946
97895,96909
97932,96908
97954,96938
98011,96958
97975,96981
98036,96946
97996,96950
98060,96967
98058,96984
98105,96992
98084,97009
98088,96957
98122,96976
98141,97021
98146,97037
98167,97006
98146,96982
98185,97025
98222,97065
98201,97080
98208,97019
98204,97047
98246,97055
98299,97071
98292,97100
98248,97057
98287,97046
98294,97084
98341,97105
98351,97121
98302,97056
98303,97068
98364,97101
98385,97128
98375,97100
98432,97153
98370,97065
98431,97139
98444,97171
98510,97146
98466,97139
98446,97149
98510,97170
98502,97169
98568,97194
98551,97212
98544,97165
98577,97217
98644,97261
98647,97237
98684,97262
98655,97206
98706,97280
98767,97306
98749,97339
98776,97291
98773,97278
98820,97323
98872,97388
98883,97361
98928,97378
98902,97333
98919,97359
99004,97419
99003,97410
98918,97356
98881,97339
98870,97327
98734,97275
98582,97197
98455,97096
98242,96974
98107,96942
97971,96883
97784,96805
97632,96713
97445,96633
97394,96586
97311,96607
97172,96508
97100,96451
96933,96378
96881,96357
96812,96361
96698,96282
96628,96269
96487,96174
96428,96182
96348,96142
96238,96080
96170,96093
96049,95967
96061,96020
95997,96021
95970,95965
95870,95999
95828,95942
95860,95945
95855,95945
95848,95942
95825,95935
95822,95917
95858,95958
95882,95953
95955,96006
95934,96000
95906,95945
95992,95985
96010,96075
96013,96026
96062,96061
96042,96034
96084,96081
96139,96094
96167,96117
96143,96096
96176,96102
96214,96138
96225,96137
96273,96159
96267,96195
96223,96136
96315,96163
96299,96197
96347,96205
96345,96208
96330,96151
96413,96224
96409,96217
96429,96247
96474,96249
96470,96242
96520,96299
96583,96320
96599,96342
96577,96298
96595,96265
96665,96335
96697,96378
96703,96341
96673,96369
96699,96359
96718,96344
96715,96395
96736,96381
96749,96358
96714,96331
96727,96382
96789,96400
96763,96396
96712,96377
96712,96290
96762,96367
96771,96391
96742,96355
96729,96389
96668,96319
96745,96367
96706,96359
96721,96354
96681,96356
96688,96321
96674,96346
96715,96379
96661,96398
96632,96368
96616,96300
96651,96308
96684,96327
96679,96360
96631,96299
96626,96285
96657,96340
96701,96374
96642,96345
96702,96322
96662,96322
96675,96374
96741,96388
96711,96367
96722,96350
96735,96317
96745,96404
96807,96425
96792,96408
96835,96411
96837,96399
96857,96426
96934,96493
96926,96480
96959,96436
96946,96414
96996,96508
97014,96493
97068,96524
97063,96515
97053,96480
97127,96538
97164,96581
97116,96552
97188,96576
97161,96532
97258,96599
97277,96622
97271,96619
97285,96605
97315,96608
97363,96639
97394,96668
97391,96681
97378,96687
97386,96638
97465,96684
97498,96706
97535,96737
97485,96702
97517,96672
97575,96786
97608,96750
97590,96776
97642,96763
97572,96734
97704,96782
97685,96850
97693,96799
97712,96785
97710,96764
97724,96816
97781,96852
97778,96860
97755,96808
97743,96815
97820,96833
97828,96893
97818,96843
97831,96913
97800,96821
97881,96872
97909,96932
97931,96887
97887,96934
97871,96834
97972,96940
97974,96911
97966,96932
97964,96908
97966,96887
98005,96929
98089,96974
98013,96941
98045,96950
97983,96911
98097,96984
98063,96989
98082,96964
98084,96960
98037,96933
98093,97005
98105,96967
98145,97022
98100,96971
98072,96953
98170,97009
98150,97013
98124,96981
98176,97028
98103,96974
98167,97026
98183,97040
98237,97022
98195,97049
98154,97003
98263,97057
98266,97068
98238,97040
98292,97088
98235,97044
98338,97071
98329,97129
98366,97123
98348,97088
98359,97062
98375,97125
98441,97130
98439,97179
98436,97107
98413,97103
98514,97176
98508,97202
98526,97181
98487,97145
98452,97135
98482,97129
98444,97152
98301,97081
98240,97025
98028,96897
97954,96859
97820,96801
97639,96747
97483,96632
97361,96543
97239,96538
97105,96488
96970,96390
96898,96348
96693,96303
96659,96245
96526,96225
96397,96138
96246,96069
96145,96007
96070,96021
95951,95997
95825,95891
95739,95825
95635,95776
95608,95819
95530,95807
95476,95733
95404,95726
95304,95670
95330,95738
95320,95696
95328,95716
95254,95648
95216,95606
95251,95706
95274,95702
95293,95679
95230,95710
95220,95626
95315,95721
95363,95734
95341,95738
95344,95731
95335,95714
95402,95771
95435,95798
95452,95795
95468,95794
95422,95765
95523,95805
95518,95886
95528,95796
95508,95828
95528,95815
95613,95847
95630,95889
95588,95852
95652,95868
95622,95836
95698,95868
95729,95933
95721,95911
95784,95925
95764,95933
95818,95927
95879,95988
95898,96015
95914,96017
95916,95976
96025,96024
96043,96066
96045,96077
96019,96048
96043,95987
96098,96110
96115,96077
96125,96099
96095,96064
96064,96013
96152,96116
96123,96100
96124,96104
96116,96070
96080,96031
96139,96136
96124,96083
96150,96099
96095,96029
96093,96039
96129,96092
96136,96067
96119,96094
96096,96021
96101,96032
96132,96090
96148,96094
96160,96063
96107,96065
96089,96083
96155,96070
96179,96105
96173,96089
96147,96112
96143,96033
96195,96112
96205,96127
96194,96097
96207,96064
96228,96115
96245,96094
96280,96161
96269,96165
96257,96135
96287,96128
96314,96149
96366,96188
96326,96192
96326,96144
96362,96182
96399,96207
96403,96246
96447,96237
96442,96221
96482,96197
96507,96268
96559,96275
96563,96249
96565,96262
96559,96239
96627,96320
96684,96337
96655,96333
96677,96305
96693,96327
96791,96359
96817,96398
96794,96385
96804,96367
96817,96379
96922,96457
96961,96458
96941,96442
96943,96430
96957,96443
97022,96501
97061,96510
97057,96506
97058,96485
97041,96492
97104,96551
97161,96544
97152,96550
97135,96533
97128,96516
97210,96579
97193,96593
97165,96577
97202,96524
97259,96577
97292,96612
97272,96625
97249,96592
97300,96568
97278,96619
97363,96633
97383,96683
97387,96634
97353,96612
97380,96632
97432,96695
97445,96700
97430,96706
97409,96648
97465,96659
97480,96737
97469,96704
97531,96693
97469,96682
97502,96656
97564,96735
97557,96758
97587,96709
97547,96715
97555,96740
97616,96723
97640,96804
97576,96734
97606,96716
97612,96763
97685,96791
97708,96813
97664,96778
97690,96776
97669,96782
97727,96805
97727,96817
97733,96815
97763,96796
97756,96834
97850,96863
97801,96866
97827,96855
97820,96807
97810,96885
97881,96888
97864,96892
97883,96917
97887,96849
97859,96904
97927,96906
97973,96942
97964,96923
97919,96885
97976,96913
98048,96954
98021,96968
98051,96967
98046,96934
98039,96948
98102,97005
98152,97015
98104,96994
98132,96955
98124,96992
98189,97014
98196,97058
98228,97037
98190,97010
98193,97026
98284,97054
98276,97089
98260,97075
98243,97046
98251,97046
98290,97068
98283,97100
98233,97009
98154,96959
98039,96921
97971,96908
97793,96833
97651,96747
97447,96619
97330,96580
97252,96540
97079,96460
96957,96391
96799,96318
96669,96226
96579,96178
96456,96170
96293,96086
96129,95992
96031,95986
95916,95922
95810,95902
95698,95816
95518,95738
95496,95699
95371,95751
95301,95656
95192,95656
95095,95572
95028,95541
94998,95527
94962,95559
94892,95484
94859,95489
94828,95469
94847,95481
94824,95490
94799,95470
94765,95426
94748,95475
94797,95507
94793,95479
94783,95520
94753,95448
94821,95495
94856,95532
94858,95536
94884,95508
94858,95542
94870,95503
94957,95596
94978,95568
94968,95600
95021,95549
95017,95608
95091,95617
95095,95642
95112,95673
95115,95625
95166,95627
95183,95679
95248,95690
95205,95684
95236,95620
95289,95730
95324,95768
95374,95728
95376,95778
95348,95716
95409,95765
95447,95802
95487,95793
95511,95804
95484,95804
95536,95782
95567,95870
95573,95810
95574,95853
95523,95821
95572,95817
95591,95856
95615,95852
95595,95822
95567,95804
95595,95822
95595,95866
95623,95845
95578,95854
95599,95813
95591,95810
95639,95850
95607,95896
95625,95859
95574,95819
95624,95825
95628,95880
95652,95832
95603,95864
95576,95805
95604,95815
95639,95856
95606,95852
95644,95850
95575,95835
95601,95842
95652,95854
95676,95878
95622,95886
95623,95841
95666,95852
95688,95903
95689,95898
95700,95889
95671,95837
95687,95920
95732,95912
95773,95928
95749,95908
95760,95902
95747,95933
95796,95924
95837,95983
95828,95934
95812,95941
95861,95998
95863,96012
95946,95998
95924,96004
95918,95963
95967,95970
96018,96065
96034,96075
96048,96043
96057,96039
96088,96081
96127,96111
96139,96122
96152,96070
96198,96087
96198,96104
96237,96151
96231,96137
96285,96138
96259,96166
96302,96149
96354,96193
96357,96226
96340,96204
96307,96150
96381,96194
96416,96268
96448,96214
96417,96246
96423,96239
96488,96279
96503,96281
96558,96303
96531,96288
96569,96236
96588,96307
96679,96360
96654,96361
96679,96340
96638,96294
96700,96355
96740,96368
96741,96370
96785,96401
96692,96372
96778,96371
96811,96424
96801,96407
96804,96408
96746,96394
96854,96399
96835,96447
96810,96418
96821,96417
96827,96363
96864,96422
96844,96479
96871,96427
96884,96433
96812,96394
96907,96452
96925,96475
96885,96442
96936,96421
96901,96438
96919,96446
96963,96511
96966,96482
96965,96502
96907,96410
96971,96512
96992,96505
96998,96527
96982,96489
97040,96485
97004,96497
97050,96532
97066,96526
97062,96542
97022,96491
97094,96543
97120,96589
97113,96557
97107,96565
97074,96494
97149,96569
97188,96556
97136,96626
97173,96562
97135,96562
97206,96563
97196,96620
97220,96614
97214,96584
97204,96557
97252,96633
97303,96633
97292,96678
97281,96610
97299,96604
97295,96654
97357,96688
97391,96656
97369,96679
97311,96608
97415,96697
97436,96724
97412,96720
97450,96735
97417,96633
97453,96743
97523,96781
97524,96772
97519,96763
97510,96718
97528,96779
97587,96788
97617,96826
97603,96781
97620,96754
97627,96783
97662,96800
97591,96804
97517,96713
97421,96654
97351,96621
97239,96584
97108,96503
96922,96455
96752,96284
96681,96265
96527,96230
96403,96173
96240,96093
96076,95949
95960,95940
95845,95899
95662,95833
95536,95773
95390,95658
95294,95697
95175,95629
95087,95576
94983,95525
94833,95418
94791,95467
94676,95406
94652,95383
94535,95337
94449,95269
94417,95273
94396,95269
94297,95277
94218,95218
94141,95159
94139,95210
94142,95209
94071,95182
94053,95211
93989,95087
94021,95154
94040,95211
93993,95189
94075,95215
94039,95134
94137,95225
94204,95234
94213,95272
94231,95268
94265,95263
94338,95314
94441,95355
94458,95344
94504,95381
94499,95379
94548,95427
94604,95421
94621,95436
94654,95414
94611,95428
94698,95452
94761,95512
94757,95465
94762,95499
94716,95482
94778,95508
94862,95563
94855,95557
94885,95581
94868,95510
94947,95582
94967,95600
94995,95570
95016,95618
94971,95557
95080,95634
95117,95653
95085,95638
95142,95684
95063,95586
95157,95684
95168,95689
95178,95676
95182,95701
95160,95677
95212,95669
95277,95737
95238,95700
95266,95708
95227,95691
95317,95720
95297,95709
95312,95759
95272,95737
95277,95693
95333,95729
95296,95751
95309,95719
95324,95736
95269,95651
95324,95721
95287,95759
95321,95716
95325,95764
95268,95677
95330,95744
95359,95769
95354,95745
95377,95747
95338,95687
95423,95779
95444,95827
95457,95782
95456,95779
95424,95754
95482,95842
95528,95858
95532,95828
95547,95822
95527,95802
95598,95883
95600,95899
95631,95896
95623,95897
95637,95899
95710,95931
95715,95960
95734,95947
95751,95941
95780,95940
95836,95995
95882,96016
95890,96024
95911,95999
95932,95989
95944,96051
96021,96099
96023,96059
96028,96081
96014,96038
96113,96126
96115,96146
96120,96123
96158,96127
96093,96078
96187,96169
96201,96203
96200,96148
96237,96135
96192,96150
96269,96182
96288,96215
96285,96215
96321,96211
96308,96186
96377,96241
96414,96284
96413,96265
96407,96261
96446,96229
96481,96293
96546,96338
96536,96298
96542,96327
96548,96295
96577,96329
96615,96385
96623,96362
96606,96342
96599,96310
96663,96371
96693,96434
96706,96393
96654,96355
96674,96373
96711,96422
96744,96416
96784,96446
96743,96391
96728,96424
96782,96430
96865,96454
96841,96472
96852,96457
96841,96403
96901,96478
96930,96504
96918,96511
96887,96464
96888,96452
96965,96522
96962,96522
96987,96514
96934,96482
96958,96508
96972,96511
97013,96536
97020,96516
97005,96551
96993,96481
97052,96562
97070,96589
97070,96548
97106,96589
97086,96531
97177,96609
97156,96617
97132,96582
97154,96593
97132,96555
97188,96630
97201,96654
97206,96626
97225,96644
97212,96599
97253,96659
97280,96685
97279,96631
97258,96686
97264,96665
97315,96689
97313,96725
97305,96679
97319,96675
97298,96655
97338,96709
97396,96753
97387,96687
97441,96727
97417,96692
97474,96767
97472,96768
97529,96760
97482,96772
97507,96755
97582,96781
97565,96806
97586,96826
97548,96761
97568,96808
97630,96819
97590,96823
97563,96795
97495,96753
97358,96661
97320,96639
97166,96611
97019,96514
96887,96411
96694,96324
96648,96289
96459,96271
96321,96167
96200,96086
96014,96017
95890,95999
95799,95928
95637,95848
95466,95739
95356,95707
95207,95707
95122,95656
94961,95582
94869,95498
94715,95423
94675,95434
94569,95420
94476,95343
94407,95278
94282,95232
94306,95268
94216,95234
94144,95223
94061,95160
94011,95168
94023,95174
94014,95214
93923,95170
93934,95136
93917,95114
93949,95176
93965,95191
94005,95199
93955,95155
93994,95185
94093,95233
94104,95275
94166,95251
94149,95300
94179,95296
94297,95335
94340,95341
94343,95344
94348,95340
94393,95358
94473,95406
94487,95443
94511,95434
94562,95392
94569,95423
94593,95469
94636,95511
94629,95459
94666,95479
94688,95485
94707,95537
94753,95523
94784,95556
94757,95519
94811,95521
94888,95604
94941,95598
94923,95628
94917,95568
94968,95605
95004,95672
95020,95660
95012,95665
95035,95611
95058,95657
95048,95676
95116,95655
95096,95670
95056,95644
95061,95619
95134,95711
95120,95689
95116,95663
95114,95665
95090,95642
95166,95713
95154,95703
95145,95698
95108,95654
95131,95686
95183,95725
95188,95689
95204,95712
95142,95676
95143,95666
95184,95721
95218,95727
95181,95727
95161,95650
95194,95713
95230,95759
95244,95709
95216,95735
95241,95712
95202,95743
95273,95751
95301,95775
95303,95777
95275,95722
95312,95771
95300,95778
95375,95828
95377,95820
95357,95785
95376,95792
95445,95811
95457,95882
95435,95832
95447,95796
95495,95832
95506,95887
95567,95930
95561,95926
95582,95886
95572,95895
95669,95925
95671,95974
95686,95919
95671,95962
95705,95961
95732,95985
95810,96030
95784,96043
95787,95985
95797,96033
95864,96030
95875,96065
95870,96053
95866,96036
95926,96008
95992,96114
96005,96103
95985,96112
96006,96058
96036,96076
96109,96135
96080,96166
96121,96150
96102,96113
96125,96152
96197,96180
96218,96221
96227,96239
96222,96162
96253,96216
96266,96225
96330,96242
96301,96261
96280,96193
96332,96268
96355,96266
96417,96281
96367,96307
96385,96236
96381,96286
96423,96284
96407,96334
96464,96326
96416,96296
96420,96311
96488,96342
96490,96335
96505,96332
96502,96325
96472,96341
96580,96359
96550,96391
96582,96376
96570,96319
96601,96370
96644,96436
96656,96403
96681,96398
96639,96403
96702,96415
96749,96462
96762,96491
96724,96445
96748,96441
96757,96452
96809,96467
96808,96487
96792,96488
96801,96438
96799,96496
96814,96486
96826,96499
96813,96483
96790,96453
96824,96453
96824,96535
96849,96500
96826,96515
96868,96507
96870,96494
96900,96519
96924,96590
96919,96544
96952,96497
96945,96558
96985,96580
97014,96561
97008,96598
96998,96551
97020,96568
97046,96587
97097,96593
97057,96634
97055,96544
97098,96613
97096,96628
97119,96630
97098,96644
97120,96583
97161,96659
97163,96682
97161,96692
97182,96696
97160,96653
97219,96651
97256,96756
97281,96717
97270,96710
97278,96675
97300,96732
97366,96754
97374,96768
97363,96746
97343,96736
97391,96742
97432,96770
97446,96789
97387,96792
97285,96689
97293,96681
97188,96657
97071,96604
96941,96487
96727,96430
96652,96369
96481,96307
96366,96206
96183,96151
95980,96019
95881,95974
95737,95932
95568,95857
95391,95760
95249,95704
95076,95665
94993,95602
94847,95521
94713,95470
94540,95386
94461,95385
94421,95360
94280,95319
94158,95238
94084,95199
94049,95179
93956,95180
93916,95171
93816,95074
93748,95055
93716,95047
93687,95060
93703,95082
93608,95075
93605,94999
93650,95054
93658,95119
93715,95092
93695,95144
93703,95075
93804,95154
93816,95173
93860,95181
93917,95217
93893,95139
93990,95205
94019,95277
94111,95277
94099,95281
94129,95258
94192,95312
94260,95350
94304,95368
94315,95363
94313,95347
94341,95379
94440,95446
94429,95448
94478,95414
94424,95393
94539,95469
94583,95470
94607,95514
94594,95501
94663,95486
94701,95519
94725,95593
94753,95555
94801,95602
94774,95560
94867,95603
94905,95646
94899,95657
94927,95626
94897,95637
94945,95649
94961,95659
94990,95654
94978,95660
94945,95612
95040,95686
95029,95655
95043,95686
95026,95676
94976,95659
95050,95667
95055,95723
95031,95692
95066,95678
95026,95643
95021,95704
95095,95697
95111,95705
95040,95672
95049,95671
95065,95658
95114,95721
95082,95710
95036,95680
95012,95661
95039,95679
95060,95703
95058,95674
95060,95709
95028,95637
95031,95675
95059,95711
95057,95679
95049,95707
95053,95655
95114,95694
95143,95776
95155,95743
95166,95745
95172,95739
95248,95762
95260,95791
95280,95802
95294,95817
95293,95773
95385,95836
95406,95858
95418,95877
95475,95845
95450,95826
95497,95901
95513,95926
95572,95962
95560,95950
95568,95861
95604,95969
95642,96001
95626,95987
95672,95988
95689,95933
95773,96040
95790,96015
95825,96059
95840,96057
95858,95992
95878,96094
95961,96128
95969,96122
96023,96142
95945,96095
96038,96112
96081,96196
96116,96202
96133,96209
96100,96136
96196,96252
96240,96257
96238,96218
96235,96236
96229,96199
96307,96275
96348,96322
96334,96274
96353,96278
96354,96276
96402,96313
96466,96383
96488,96345
96457,96344
96471,96320
96527,96364
96551,96410
96587,96392
96551,96405
96578,96368
96663,96432
96648,96455
96671,96453
96714,96445
96654,96390
96722,96470
96805,96492
96779,96507
96801,96501
96772,96453
96830,96516
96886,96555
96902,96542
96880,96538
96887,96502
96952,96555
96981,96598
96956,96571
96955,96570
96961,96551
97015,96581
97042,96615
97052,96623
97072,96636
97025,96587
97108,96626
97156,96663
97144,96668
97177,96653
97141,96631
97227,96692
97257,96713
97261,96696
97248,96713
97240,96678
97326,96751
97374,96757
97320,96737
97335,96747
97322,96717
97351,96763
97422,96819
97419,96787
97402,96766
97399,96753
97451,96787
97476,96848
97502,96831
97473,96801
97523,96792
97536,96849
97582,96857
97615,96859
97577,96877
97570,96809
97632,96912
97692,96903
97701,96913
97685,96911
97667,96858
97770,96959
97793,96959
97767,96959
97791,96939
97783,96942
97806,96952
97863,96994
97907,97044
97908,96994
97910,96999
97953,97064
97977,97080
98043,97094
98039,97053
98043,97030
98077,97106
98108,97121
98090,97124
98117,97092
98082,97044
98091,97085
98027,97043
97866,96978
97771,96896
97525,96775
97471,96728
97292,96687
97098,96596
96976,96495
96780,96437
96683,96323
96578,96310
96402,96227
96285,96188
96114,96083
96067,96039
95942,96050
95759,95960
95675,95898
95469,95813
95429,95804
95347,95765
95199,95725
95098,95621
95019,95604
94947,95620
94936,95573
94829,95556
94780,95499
94718,95482
94713,95507
94698,95510
94624,95472
94644,95465
94578,95456
94570,95436
94621,95481
94628,95453
94630,95514
94568,95473
94664,95513
94709,95556
94665,95562
94700,95515
94750,95529
94776,95610
94828,95630
94882,95643
94915,95627
94890,95599
94947,95656
95031,95700
95043,95710
95048,95682
95011,95682
95105,95739
95122,95762
95136,95735
95158,95755
95140,95723
95177,95770
95217,95796
95226,95790
95252,95776
95270,95757
95327,95815
95342,95855
95355,95830
95370,95838
95366,95827
95424,95867
95426,95897
95487,95890
95462,95869
95462,95840
95523,95897
95553,95924
95527,95920
95566,95898
95511,95870
95573,95929
95619,95952
95628,95956
95630,95906
95609,95908
95641,95945
95648,95965
95656,95951
95632,95940
95623,95902
95676,95960
95676,95954
95623,95927
95658,95927
95610,95899
95627,95958
95640,95949
95638,95906
95622,95921
95597,95899
95635,95944
95671,95957
95661,95935
95618,95937
95622,95903
95683,95948
95731,96006
95745,95974
95739,95983
95724,95953
95789,96024
95858,96054
95850,96034
95843,96017
95848,96018
95924,96069
95967,96102
95986,96077
95977,96105
95984,96082
96064,96153
96109,96162
96108,96143
96125,96153
96145,96138
96199,96215
96246,96245
96273,96235
96304,96224
96296,96229
96335,96265
96404,96309
96408,96271
96431,96292
96447,96301
96540,96363
96549,96355
96583,96366
96601,96375
96606,96377
96684,96391
96743,96440
96701,96447
96777,96471
96743,96416
96830,96492
96894,96523
96904,96507
96880,96504
96892,96508
96955,96564
97006,96589
96995,96579
96967,96552
97007,96551
97071,96591
97101,96635
97099,96637
97092,96605
97106,96605
97171,96651
97192,96672
97174,96631
97241,96653
97191,96621
97292,96712
97288,96716
97328,96695
97281,96685
97301,96698
97359,96728
97392,96736
97360,96754
97371,96752
97357,96689
97396,96755
97438,96762
97393,96771
97424,96740
97400,96750
97459,96772
97471,96794
97486,96791
97464,96797
97487,96735
97503,96816
97571,96837
97531,96806
97549,96815
97526,96788
97564,96850
97593,96857
97598,96815
97595,96837
97540,96786
97621,96878
97663,96873
97625,96851
97631,96851
97597,96853
97688,96902
97727,96908
97689,96877
97702,96891
97673,96869
97744,96919
97757,96922
97781,96936
97756,96900
97746,96908
97820,96940
97820,96969
97826,96974
97827,96957
97833,96960
97876,96997
97899,97000
97858,96994
97894,96976
97894,96956
97944,97032
97986,97051
97972,97047
97985,97019
97972,97020
98055,97054
98043,97102
98021,97049
98038,97042
98028,97023
98020,97048
97962,97036
97853,96959
97765,96883
97599,96808
97505,96774
97338,96699
97164,96602
97020,96529
96900,96438
96751,96406
96663,96372
96515,96294
96388,96217
96266,96153
96158,96131
96047,96109
95897,96004
95759,95924
95643,95879
95564,95894
95473,95848
95326,95774
95234,95691
95142,95667
95100,95691
95047,95656
94928,95590
94859,95558
94779,95518
94806,95538
94767,95553
94731,95526
94672,95489
94636,95454
94666,95510
94683,95512
94644,95528
94666,95500
94642,95472
94692,95530
94695,95556
94735,95563
94708,95561
94750,95563
94807,95627
94851,95600
94827,95613
94877,95601
94906,95640
94994,95686
94998,95697
95005,95680
95032,95668
95054,95710
95107,95757
95122,95740
95147,95766
95136,95723
95153,95756
95195,95783
95251,95785
95242,95815
95236,95773
95271,95760
95359,95856
95371,95843
95425,95896
95442,95860
95456,95844
95510,95915
95552,95931
95577,95954
95559,95911
95534,95887
95568,95955
95618,95953
95587,95955
95548,95927
95593,95928
95628,95973
95600,95949
95630,95961
95558,95929
95592,95923
95646,95947
95609,95994
95588,95955
95553,95885
95577,95929
95613,95968
95605,95923
95616,95935
95562,95912
95615,95914
95608,95939
95637,95961
95606,95934
95557,95919
95574,95911
95618,95972
95630,95990
95601,95935
95568,95889
95606,95944
95584,95973
95646,95952
95635,95970
95595,95922
95582,95917
95652,95936
95667,96000
95661,95965
95616,95948
95678,95984
95709,96003
95757,95998
95728,96022
95753,96009
95777,96013
95837,96044
95870,96073
95844,96067
95874,96052
95857,96063
95944,96111
95965,96072
95948,96118
95969,96106
95984,96096
96057,96149
96074,96164
96049,96170
96066,96141
96103,96176
96119,96202
96198,96212
96203,96234
96176,96207
96210,96218
96267,96240
96293,96316
96335,96277
96332,96268
96323,96232
96358,96300
96425,96314
96415,96324
96403,96333
96456,96298
96469,96359
96482,96407
96483,96358
96506,96333
96509,96366
96553,96420
96562,96432
96562,96375
96622,96392
96583,96395
96683,96469
96678,96428
96699,96440
96668,96457
96714,96419
96770,96490
96760,96503
96755,96473
96791,96468
96768,96433
96827,96533
96821,96502
96804,96508
96754,96465
96808,96473
96862,96546
96820,96510
96834,96522
96845,96489
96810,96528
96856,96524
96920,96576
96910,96532
96862,96510
96901,96546
96916,96590
96964,96586
96974,96562
96955,96572
96964,96547
97057,96611
97015,96655
97012,96636
97071,96605
97061,96574
97078,96656
97128,96669
97147,96677
97097,96609
97143,96625
97201,96715
97186,96666
97178,96668
97217,96653
97217,96712
97193,96698
97280,96718
97233,96722
97236,96690
97242,96716
97294,96724
97302,96779
97300,96757
97319,96693
97333,96754
97338,96787
97408,96771
97413,96785
97375,96792
97392,96780
97419,96837
97471,96795
97478,96813
97471,96788
97512,96827
97566,96891
97577,96861
97590,96897
97564,96841
97634,96857
97664,96919
97627,96861
97603,96847
97499,96789
97469,96767
97380,96772
97216,96638
97085,96574
96850,96468
96785,96412
96646,96412
96530,96312
96349,96227
96201,96116
96099,96099
95963,96073
95837,95991
95664,95922
95499,95833
95364,95789
95286,95739
95115,95704
95001,95618
94857,95568
94804,95520
94751,95518
94641,95464
94508,95445
94423,95360
94389,95344
94377,95397
94250,95302
94207,95288
94164,95223
94171,95286
94092,95291
94108,95297
94078,95276
94034,95241
94058,95236
94106,95312
94139,95280
94129,95334
94146,95278
94190,95350
94279,95353
94285,95405
94338,95400
94366,95374
94410,95426
94466,95462
94493,95433
94512,95451
94490,95434
94588,95489
94589,95547
94598,95505
94643,95543
94614,95486
94665,95553
94696,95556
94768,95583
94761,95592
94750,95521
94829,95602
94870,95606
94891,95639
94907,95664
94924,95632
94950,95662
95035,95680
95043,95737
95082,95718
95069,95679
95135,95730
95137,95766
95201,95807
95181,95749
95192,95751
95197,95796
95225,95779
95299,95841
95251,95803
95230,95743
95328,95806
95304,95845
95329,95827
95353,95838
95311,95788
95388,95811
95380,95842
95429,95842
95428,95851
95371,95803
95410,95880
95426,95850
95432,95886
95392,95851
95390,95840
95409,95827
95448,95878
95428,95837
95423,95855
95399,95845
95418,95848
95474,95868
95445,95875
95474,95860
95432,95856
95442,95885
95486,95885
95494,95900
95523,95895
95487,95867
95563,95912
95596,95954
95624,95972
95580,95937
95568,95929
95645,95934
95741,96033
95732,95984
95707,96001
95742,95983
95794,96006
95882,96100
95864,96052
95895,96093
95924,96078
95950,96091
96019,96157
96027,96133
96053,96167
96037,96112
96122,96185
96180,96196
96162,96213
96199,96247
96215,96222
96249,96252
96295,96305
96337,96264
96345,96295
96382,96258
96430,96348
96467,96334
96530,96351
96556,96400
96545,96314
96642,96392
96665,96478
96718,96476
96756,96464
96742,96424
96817,96522
96848,96536
96886,96536
96926,96542
96930,96525
97003,96596
97072,96601
97082,96622
97131,96639
97140,96619
97176,96680
97244,96716
97268,96690
97313,96733
97307,96693
97346,96762
97420,96789
97431,96782
97474,96817
97491,96773
97526,96826
97595,96865
97638,96884
97644,96885
97650,96836
97739,96905
97771,96930
97796,96934
97830,96944
97801,96905
97880,96974
97952,97008
97936,97026
97974,97026
97988,96982
98069,97063
98091,97045
98114,97106
98135,97073
98114,97036
98202,97088
98221,97175
98233,97168
98272,97147
98228,97085
98345,97157
98377,97183
98367,97183
98398,97212
98338,97158
98415,97192
98468,97271
98486,97233
98461,97235
98491,97220
98533,97266
98603,97289
98603,97293
98592,97301
98568,97250
98678,97324
98691,97379
98687,97341
98744,97355
98734,97316
98805,97390
98811,97400
98826,97403
98847,97404
98816,97350
98869,97446
98941,97449
98956,97451
98945,97471
98895,97412
98986,97468
99048,97516
99040,97488
99032,97504
99052,97494
99107,97543
99175,97546
99194,97566
99175,97564
99207,97547
99242,97619
99319,97656
99290,97606
99254,97588
99129,97511
99124,97488
98977,97489
98797,97366
98646,97273
98403,97154
98206,97065
98111,96998
97881,96867
97704,96761
97548,96713
97440,96651
97306,96618
97173,96570
97082,96485
96946,96388
96948,96405
96828,96406
96733,96339
96672,96308
96585,96258
96532,96253
96543,96275
96435,96203
96402,96163
96284,96134
96344,96177
96284,96140
96255,96111
96215,96120
96171,96040
96249,96120
96200,96140
96222,96119
96212,96135
96209,96068
96242,96160
96286,96158
96282,96134
96226,96158
96246,96106
96273,96193
96362,96200
96341,96203
96334,96179
96371,96178
96392,96246
96448,96222
96428,96239
96414,96210
96406,96215
96422,96262
96473,96251
96438,96241
96494,96249
96451,96242
96462,96222
96554,96303
96488,96259
96507,96254
96459,96230
96501,96265
96546,96323
96526,96306
96571,96318
96596,96279
96640,96350
96750,96377
96757,96404
96769,96409
96790,96360
96876,96468
96905,96440
96913,96431
96915,96464
96920,96464
96979,96464
97021,96485
97021,96506
97025,96528
96948,96458
97005,96475
97068,96531
97028,96515
97028,96473
97041,96476
97061,96547
97124,96537
97105,96508
97100,96513
97122,96510
97123,96558
97181,96587
97131,96556
97161,96537
97150,96538
97183,96578
97254,96624
97194,96569
97201,96557
97179,96527
97227,96607
97294,96621
97251,96592
97267,96603
97216,96560
97325,96593
97298,96636
97324,96616
97354,96611
97315,96617
97362,96625
97405,96671
97425,96690
97402,96680
97429,96610
97489,96715
97528,96716
97541,96719
97552,96739
97542,96687
97673,96776
97675,96765
97704,96800
97764,96791
97727,96786
97807,96869
97852,96849
97826,96875
97860,96870
97844,96831
97930,96937
98000,96923
97955,96911
98002,96948
97983,96892
98053,96976
98133,96991
98101,96992
98130,96975
98124,96994
98147,96993
98240,97072
98224,97053
98240,97025
98273,97018
98291,97099
98366,97131
98327,97073
98384,97112
98369,97091
98403,97120
98458,97175
98444,97135
98472,97150
98465,97145
98531,97125
98540,97203
98549,97205
98554,97180
98529,97135
98563,97230
98615,97230
98602,97217
98606,97220
98593,97172
98693,97247
98730,97277
98711,97257
98723,97279
98694,97224
98794,97264
98847,97306
98817,97296
98831,97290
98834,97289
98890,97348
98941,97366
98903,97353
98888,97317
98917,97315
98984,97370
98957,97364
98997,97388
98994,97365
98986,97365
99028,97410
99093,97413
99035,97446
99055,97376
99051,97399
99118,97439
99125,97475
99092,97405
99143,97461
99109,97410
99173,97455
99195,97492
99241,97481
99172,97474
99208,97435
99264,97540
99254,97511
99278,97516
99280,97531
99226,97472
99340,97561
99341,97523
99332,97546
99302,97496
99325,97487
99362,97584
99389,97565
99392,97561
99383,97545
99384,97551
99411,97564
99472,97633
99468,97585
99505,97596
99449,97550
99541,97670
99605,97659
99567,97629
99585,97657
99543,97630
99652,97696
99683,97698
99680,97696
99642,97677
99663,97637
99710,97727
99721,97761
99745,97726
99671,97693
99640,97634
99674,97707
99575,97657
99440,97542
99237,97452
99082,97345
98870,97330
98700,97209
98489,97099
98278,96984
98181,96886
98027,96872
97897,96812
97769,96742
97605,96643
97496,96553
97442,96580
97374,96563
97239,96444
97122,96457
97041,96372
97018,96409
96980,96354
96953,96379
96837,96263
96811,96261
96804,96300
96765,96304
96699,96216
96672,96256
96641,96180
96637,96209
96666,96220
96600,96222
96610,96199
96574,96201
