11111,11111
0,0
82318,82230
113702,114713
113639,114655
113568,114587
113557,114574
113690,114665
113698,114687
113642,114668
113565,114596
113581,114618
113697,114652
113762,114681
113688,114668
113639,114575
113625,114591
113748,114664
113785,114722
113769,114643
113732,114633
113700,114636
113826,114690
113909,114767
113872,114673
113780,114667
113793,114649
113867,114736
113950,114750
113914,114733
113786,114657
113804,114640
113903,114677
113858,114728
113793,114618
113654,114554
113574,114504
113573,114569
113485,114517
113349,114410
113180,114335
113081,114263
113128,114324
113051,114315
112938,114214
112824,114149
112784,114121
112812,114167
112777,114162
112727,114136
112620,114080
112586,114047
112680,114107
112759,114152
112698,114129
112650,114097
112621,114104
112768,114179
112828,114259
112826,114171
112809,114183
112775,114178
112989,114251
113052,114332
113072,114271
113023,114270
113065,114273
113248,114386
113282,114394
113239,114380
113194,114335
113205,114381
113342,114424
113414,114464
113352,114431
113311,114384
113328,114396
113483,114511
113548,114492
113537,114499
113464,114489
113490,114508
113635,114548
113703,114603
113680,114580
113671,114544
113700,114585
113817,114648
113894,114716
113892,114658
113831,114655
113844,114647
113941,114704
114026,114764
113981,114730
113899,114673
113871,114690
113948,114710
114005,114739
113960,114718
113816,114653
113853,114641
113841,114669
113878,114671
113828,114654
113697,114565
113672,114589
113718,114622
113751,114605
113665,114571
113527,114521
113529,114485
113609,114528
113608,114529
113526,114507
113402,114432
113348,114400
113488,114460
113434,114435
113430,114449
113255,114380
113264,114364
113360,114400
113383,114447
113333,114400
113192,114356
113394,114459
113719,114546
113627,114533
113743,114554
113706,114558
113602,114496
114011,114659
114090,114684
114043,114654
113981,114615
114041,114623
114082,114658
114148,114701
114172,114709
114069,114668
113919,114584
113887,114549
113903,114571
113797,114524
113659,114457
113427,114376
113373,114278
113346,114314
113260,114277
113130,114194
112953,114103
112911,114078
112912,114130
112829,114078
112755,114028
112601,113933
112620,113928
112671,114029
112644,113976
112605,113969
112461,113906
112497,113912
112594,113961
112653,114003
112613,113972
112550,113943
112601,113979
112737,114057
112771,114064
112801,114072
112733,114041
112793,114054
112935,114155
112970,114166
113010,114153
112888,114091
112975,114150
113078,114184
113090,114225
113089,114236
113021,114146
113036,114167
113174,114218
113187,114271
113181,114265
113056,114216
113105,114197
113180,114268
113233,114310
113170,114270
113141,114200
113113,114250
113243,114286
113274,114308
113255,114265
113207,114264
113224,114243
113335,114356
113374,114353
113371,114339
113280,114280
113314,114347
113425,114358
113490,114371
113433,114350
113338,114313
113328,114329
113409,114349
113462,114392
113378,114327
113296,114257
113298,114276
113335,114340
113334,114300
113292,114274
113178,114210
113180,114223
113249,114300
113255,114283
113209,114214
113097,114169
113112,114185
113195,114234
113225,114256
113152,114206
113059,114167
113071,114142
113140,114209
113237,114252
113162,114228
113055,114160
113105,114168
113187,114235
113219,114279
113210,114248
113118,114159
113188,114205
113242,114289
113298,114299
113292,114293
113213,114202
113260,114257
113383,114323
113399,114324
113402,114302
113336,114266
113594,114427
113634,114424
113595,114411
113538,114327
113545,114372
113651,114415
113697,114454
113650,114414
113596,114369
113589,114382
113707,114409
113746,114468
113690,114402
113625,114384
113623,114380
113781,114457
113769,114489
113721,114445
113666,114388
113676,114406
113760,114465
113790,114487
113749,114422
113705,114401
113677,114407
113776,114438
113842,114491
113785,114439
113681,114395
113763,114442
113796,114464
113855,114489
113804,114438
113718,114386
113755,114420
113821,114504
113881,114478
113821,114469
113785,114390
113780,114431
113894,114496
113951,114486
113922,114500
113849,114451
113887,114477
113992,114520
114030,114559
114018,114513
113958,114482
114003,114489
114099,114577
114130,114587
114127,114540
114055,114519
114077,114546
114183,114621
114263,114631
114198,114601
114130,114532
114176,114576
114274,114658
114317,114653
114320,114630
114194,114592
114242,114583
114383,114662
114419,114717
114401,114691
114302,114608
114342,114628
114494,114723
114484,114730
114468,114689
114399,114643
114444,114681
114556,114733
114589,114785
114520,114720
114470,114718
114501,114691
114568,114741
114617,114759
114567,114730
114423,114665
114428,114635
114440,114691
114367,114668
114188,114582
114010,114465
113884,114404
113867,114390
113756,114334
113614,114294
113421,114201
113344,114168
113373,114162
113284,114192
113242,114109
113085,114033
113045,114017
113152,114055
113109,114084
113054,114006
112933,113962
112999,113985
113050,114085
113071,114072
113078,114061
112950,114004
113031,114025
113165,114125
113189,114128
113145,114111
113084,114067
113137,114088
113271,114155
113311,114175
113303,114161
113234,114153
113272,114163
113412,114228
113466,114263
113457,114241
113395,114170
113455,114238
113521,114277
113606,114304
113572,114308
113501,114238
113551,114296
113647,114299
113705,114346
113682,114338
113629,114264
113658,114333
113774,114350
113827,114424
113739,114387
113719,114318
113725,114348
113853,114387
113890,114427
113839,114398
113766,114331
113805,114403
113920,114444
113931,114445
113843,114427
113820,114352
113822,114377
113887,114412
113912,114473
113879,114399
113789,114334
113773,114369
113881,114351
113891,114389
113831,114360
113682,114320
113735,114290
113787,114355
113842,114356
113750,114354
113669,114264
113662,114292
113752,114359
113759,114362
113720,114300
113622,114273
113644,114298
113738,114327
113777,114354
113734,114329
113647,114270
113684,114333
113803,114345
113829,114390
113764,114366
113715,114294
113784,114372
113856,114393
113892,114409
113910,114404
113812,114341
113854,114371
113998,114466
114053,114469
114024,114478
113944,114436
113996,114422
114153,114531
114180,114528
114160,114517
114098,114462
114158,114517
114271,114579
114325,114629
114275,114568
114197,114528
114279,114553
114400,114628
114401,114676
114365,114592
114287,114593
114333,114591
114438,114637
114489,114640
114393,114627
114346,114580
114350,114601
114474,114669
114448,114680
114473,114672
114331,114604
114387,114584
114523,114700
114499,114680
114507,114678
114396,114629
114418,114627
114515,114654
114555,114702
114485,114658
114423,114580
114446,114627
114528,114689
114502,114682
114505,114648
114388,114578
114447,114600
114498,114640
114543,114676
114444,114648
114378,114555
114411,114598
114450,114658
114474,114648
114425,114638
114321,114519
114358,114572
114410,114612
114441,114616
114407,114579
114272,114553
114265,114544
114384,114590
114374,114608
114323,114542
114188,114502
114259,114533
114353,114578
114346,114590
114306,114552
114224,114496
114233,114510
114352,114564
114368,114593
114340,114555
114266,114512
114290,114534
114417,114587
114413,114602
114397,114597
114284,114520
114362,114555
114422,114596
114464,114620
114423,114576
114331,114539
114380,114557
114443,114623
114493,114633
114484,114599
114355,114546
114413,114549
114484,114647
114530,114646
114494,114607
114419,114559
114484,114601
114571,114639
114595,114649
114586,114654
114470,114621
114544,114598
114620,114709
114624,114673
114628,114669
114531,114619
114572,114625
114670,114730
114652,114715
114618,114676
114499,114609
114573,114640
114640,114687
114622,114699
114594,114673
114430,114583
114469,114606
114503,114629
114410,114604
114296,114536
114098,114387
113974,114361
113958,114364
113845,114317
113684,114224
113479,114126
113398,114105
113409,114115
113337,114080
113206,114035
113065,113945
113002,113944
113039,113930
113055,113969
112974,113912
112820,113861
112839,113834
112913,113914
112927,113936
112888,113908
112814,113832
112860,113874
112949,113964
112979,113951
112971,113929
112894,113923
112957,113943
113093,114036
113090,114030
113122,114007
113046,113998
113110,114002
113262,114106
113284,114087
113255,114087
113236,114025
113308,114085
113403,114142
113435,114144
113419,114153
113380,114114
113431,114161
113538,114197
113571,114214
113561,114222
113489,114131
113546,114198
113624,114210
113670,114255
113604,114245
113511,114169
113564,114205
113625,114238
113685,114287
113624,114249
113585,114212
113612,114225
113715,114282
113762,114302
113714,114303
113630,114269
113689,114274
113776,114330
113805,114316
113807,114326
113716,114259
113694,114298
113780,114317
113791,114311
113764,114293
113633,114240
113630,114225
113759,114285
113702,114319
113646,114239
113535,114169
113553,114183
113607,114256
113624,114250
113535,114226
113425,114162
113501,114178
113591,114219
113575,114241
113575,114232
113440,114180
113479,114162
113609,114240
113619,114242
113612,114231
113518,114196
113520,114183
113647,114282
113685,114288
113698,114250
113570,114206
113690,114222
113742,114306
113779,114314
113727,114306
113638,114215
113719,114303
113803,114318
113792,114348
113739,114307
113696,114268
113733,114262
113830,114341
113860,114377
113792,114333
113725,114257
113741,114308
113838,114372
113875,114384
113811,114381
113724,114260
113834,114318
113910,114362
113897,114404
113860,114338
113780,114316
113787,114303
113871,114376
113958,114375
113865,114374
113803,114279
113822,114327
113917,114376
113930,114384
113878,114338
113784,114277
113848,114306
113914,114369
113941,114375
113898,114340
113795,114303
113828,114284
113909,114378
113949,114398
113908,114344
113821,114306
113848,114315
113932,114344
113923,114392
113918,114340
113829,114295
113841,114339
113969,114390
113951,114380
113972,114379
113821,114291
113887,114291
113965,114363
113960,114401
113932,114355
113832,114299
113888,114324
113952,114369
114006,114381
113950,114345
113863,114302
113921,114330
113972,114395
114004,114370
113996,114381
113876,114319
113942,114354
114001,114391
114053,114410
113999,114381
113937,114336
113966,114348
114062,114398
114095,114421
114072,114394
113980,114340
114032,114355
114140,114433
114148,114447
114112,114423
114026,114383
114050,114372
114192,114454
114217,114457
114162,114459
114089,114399
114147,114404
114240,114457
114281,114496
114219,114459
114154,114377
114190,114444
114304,114486
114338,114514
114297,114476
114195,114435
114251,114462
114343,114529
114355,114493
114322,114526
114197,114437
114269,114470
114376,114522
114382,114515
114348,114526
114265,114457
114285,114464
114435,114544
114393,114532
114370,114529
114273,114483
114348,114503
114428,114551
114438,114544
114397,114504
114315,114465
114367,114487
114447,114566
114400,114512
114313,114500
114189,114387
114158,114381
114166,114406
114023,114371
113935,114274
113689,114157
113620,114161
113589,114152
113504,114105
113344,114045
113170,113900
113140,113918
113151,113917
113064,113934
112940,113842
112810,113746
112772,113775
112831,113784
112836,113835
112724,113767
112636,113669
112686,113754
112751,113762
112756,113800
112724,113793
112643,113714
112719,113768
112803,113821
112850,113827
112844,113824
112747,113782
112847,113858
112954,113901
112944,113917
112948,113896
112850,113855
112934,113884
113052,113953
113098,114000
113072,113937
112968,113881
113030,113953
113116,113979
113132,114004
113130,113965
113049,113950
113082,113942
113169,114026
113203,114011
113167,113990
113042,113964
113102,113942
113172,114024
113190,114035
113169,113991
113078,113938
113105,113970
113238,114024
113238,114037
113198,114019
113147,113977
113215,113997
113319,114092
113316,114058
113318,114085
113214,113995
113280,114038
113337,114112
113329,114098
113314,114057
113243,113993
113272,114051
113335,114079
113350,114096
113262,114087
113147,113959
113199,114011
113294,114041
113293,114048
113222,114036
113080,113923
113157,114002
113221,114018
113234,114031
113152,113987
113065,113909
113091,113957
113189,114002
113217,114038
113172,114008
113078,113949
113096,113963
113186,114005
113252,114050
113188,114005
113105,113964
113199,114010
113244,114047
113294,114064
113270,114060
113221,113965
113243,114026
113371,114086
113399,114118
113393,114109
113293,114023
113366,114057
113496,114141
113490,114149
113496,114116
113386,114077
113464,114090
113574,114185
113567,114157
113548,114149
113479,114087
113563,114122
113663,114196
113654,114216
113654,114193
113590,114141
113639,114165
113734,114227
113768,114269
113732,114226
113669,114176
113715,114247
113810,114255
113859,114288
113825,114268
113750,114201
113854,114232
113843,114286
113926,114306
113862,114272
113810,114214
113838,114254
113916,114298
113948,114367
113906,114264
113858,114216
113881,114281
113969,114322
113968,114340
113960,114309
113844,114246
113922,114271
113991,114359
114003,114338
113969,114298
113888,114224
113909,114286
113988,114342
113997,114320
113986,114319
113871,114218
113923,114304
114007,114354
114005,114307
113996,114318
113901,114252
113944,114274
114035,114330
114049,114333
114017,114333
113933,114215
113997,114316
114065,114375
114081,114377
114054,114343
113993,114268
113997,114295
114129,114347
114173,114404
114106,114342
114036,114313
114071,114326
114178,114424
114159,114401
114127,114385
114067,114298
114110,114351
114227,114416
114225,114434
114214,114387
114146,114353
114198,114372
114326,114461
114324,114468
114322,114438
114252,114357
114327,114416
114415,114495
114465,114522
114437,114490
114370,114446
114444,114467
114547,114528
114543,114547
114555,114547
114475,114462
114512,114502
114627,114576
114664,114586
114594,114561
114562,114517
114604,114542
114673,114614
114711,114604
114666,114589
114596,114517
114651,114545
114712,114634
114733,114616
114690,114584
114595,114516
114602,114562
114684,114597
114655,114561
114557,114536
114421,114407
114357,114439
114315,114443
114178,114336
113987,114244
113784,114140
113714,114122
113651,114099
113565,114062
113398,114036
113227,113846
113201,113863
113191,113905
113157,113876
113089,113843
112927,113757
112928,113782
113001,113823
112984,113827
112953,113780
112855,113712
112920,113784
112981,113831
112999,113837
113000,113848
112905,113754
113010,113830
113067,113910
113125,113904
113104,113907
113067,113825
113141,113922
113245,113968
113324,114020
113276,113972
113215,113916
113309,113992
113413,114057
113456,114079
113470,114035
113393,113978
113426,114052
113498,114123
113529,114093
113504,114071
113430,114038
113464,114074
113567,114104
113568,114128
113547,114096
113459,114012
113528,114073
113584,114142
113645,114141
113615,114123
113521,114067
113571,114077
113677,114175
113680,114162
113657,114138
113589,114088
113602,114118
113706,114185
113675,114165
113651,114141
113554,114080
113573,114114
113643,114140
113627,114161
113591,114104
113479,113998
113510,114066
113574,114095
113530,114093
113498,114050
113352,113951
113381,113973
113424,114045
113421,114037
113343,113987
113220,113934
113282,113938
113355,113998
113340,113963
113289,113957
113201,113902
113216,113916
113330,114001
113328,113972
113302,113974
113215,113896
113281,113960
113392,114020
113379,114033
113373,114007
113326,113973
113398,114023
113507,114078
113523,114085
113520,114080
113454,114030
113525,114058
113648,114153
113650,114143
113654,114142
113539,114071
113633,114114
113769,114196
113779,114192
113732,114199
113657,114122
113708,114193
113809,114217
113797,114253
113782,114204
113707,114146
113754,114211
113802,114257
113854,114239
113803,114257
113743,114155
113791,114228
113865,114289
113879,114255
113897,114268
113796,114198
113890,114245
113964,114316
113976,114308
113971,114277
113881,114264
113938,114278
114046,114345
114057,114365
114026,114319
113982,114274
114013,114315
114110,114400
114116,114379
114087,114355
114019,114288
114077,114335
114096,114376
114126,114375
114089,114326
113980,114266
114025,114314
114085,114360
114097,114349
114073,114338
113947,114274
114028,114287
114106,114365
114087,114378
114033,114327
113965,114270
114004,114288
114077,114347
114093,114345
114050,114343
113952,114236
113984,114290
114073,114328
114054,114334
114043,114321
113925,114244
113980,114274
114092,114349
114077,114347
114058,114321
113972,114251
114017,114281
114137,114340
114118,114345
114098,114331
114010,114260
114077,114313
114122,114341
114198,114372
114141,114335
114040,114301
114102,114314
114224,114378
114239,114398
114184,114374
114115,114300
114162,114350
114323,114434
114321,114409
114298,114402
114219,114346
114268,114372
114406,114442
114416,114457
114354,114417
114304,114358
114364,114422
114455,114484
114450,114465
114429,114435
114352,114359
114392,114442
114473,114463
114480,114472
114493,114484
114374,114410
114412,114438
114536,114490
114546,114522
114507,114462
114409,114401
114480,114453
114518,114503
114562,114490
114488,114492
114377,114374
114384,114419
114432,114429
114354,114380
114156,114332
113962,114181
113888,114179
113872,114179
113719,114099
113538,113984
113321,113907
113278,113883
113284,113894
113160,113852
113021,113797
112847,113662
112878,113665
112870,113720
112852,113683
112769,113674
112596,113551
112681,113600
112723,113633
112748,113657
112721,113636
112634,113569
112680,113621
112788,113691
112797,113702
112778,113702
112680,113645
112790,113684
112919,113762
112909,113767
112940,113741
112898,113707
112937,113769
113073,113840
113059,113829
113062,113833
112994,113753
113114,113850
113182,113861
113178,113888
113146,113881
113037,113782
113170,113858
113235,113914
113245,113907
113185,113863
113095,113790
113169,113832
113279,113941
113232,113901
113212,113881
113108,113807
113134,113834
113266,113926
113258,113903
113197,113816
113098,113787
113227,113839
113294,113913
113293,113878
113292,113896
113176,113783
113257,113859
113373,113955
113389,113933
113359,113890
113264,113842
113309,113859
113413,113911
113384,113916
113346,113866
113245,113823
113283,113836
113382,113911
113387,113899
113307,113893
113238,113805
113271,113846
113361,113879
113350,113883
113299,113849
113164,113799
113238,113820
113321,113886
113335,113883
113263,113860
113133,113789
113232,113831
113325,113889
113318,113875
113254,113875
113175,113789
113239,113834
113372,113968
113336,113912
113331,113901
113245,113813
113328,113883
113451,113957
113410,113953
113362,113917
113246,113867
113368,113902
113442,113988
113440,113990
113425,113932
113348,113872
113415,113958
113533,113978
113495,113993
113503,113968
113414,113888
113462,113968
113610,113996
113592,114047
113551,113970
113444,113937
113587,113998
113682,114061
113636,114029
113645,114041
113553,113968
113654,113997
113729,114067
113739,114102
113755,114048
113648,114018
113731,114039
113825,114129
113883,114105
113826,114090
113725,114020
113839,114103
113934,114146
113937,114154
113907,114136
113822,114045
113917,114145
114030,114186
114040,114184
114010,114130
113912,114087
114009,114154
114121,114214
114081,114213
114033,114179
113960,114110
114038,114180
114124,114243
114094,114210
114105,114193
113995,114120
114114,114180
114175,114243
114155,114227
114145,114213
114019,114150
114114,114182
114183,114268
114190,114229
114162,114211
114070,114129
114141,114237
114248,114257
114233,114261
114212,114249
114062,114160
114170,114208
114243,114259
114243,114283
114225,114241
114125,114167
114212,114234
114295,114286
114269,114258
114249,114240
114132,114169
114237,114219
114345,114304
114322,114284
114332,114259
114196,114201
114283,114255
114402,114319
114393,114306
114347,114273
114247,114219
114335,114269
114431,114315
114427,114332
114400,114272
114279,114231
114367,114272
114473,114346
114464,114339
114423,114319
114317,114230
114411,114306
114508,114386
114479,114338
114480,114331
114369,114264
114464,114330
114553,114369
114548,114379
114518,114341
114437,114280
114510,114325
114591,114397
114610,114394
114577,114362
114490,114317
114562,114363
114667,114420
114658,114413
114588,114381
114468,114303
114574,114377
114685,114434
114638,114396
114615,114406
114462,114316
114512,114339
114542,114410
114483,114328
114367,114292
114123,114150
114053,114136
114013,114118
113857,114063
113698,113973
113476,113860
113469,113858
113463,113899
113318,113847
113212,113776
113049,113659
113064,113688
113106,113762
113009,113693
113003,113692
112827,113594
112911,113639
112984,113688
112975,113694
112949,113688
112840,113615
112920,113683
113041,113736
113051,113734
113046,113740
112941,113687
113078,113742
113179,113799
113178,113819
113160,113783
113097,113738
113210,113832
113305,113866
113315,113866
113279,113856
113220,113783
113308,113847
113432,113931
113369,113896
113348,113888
113262,113817
113329,113863
113426,113934
113449,113920
113374,113901
113265,113850
113405,113880
113462,113965
113435,113948
113423,113890
113309,113842
113365,113892
113468,113950
113483,113931
113441,113907
113326,113840
113445,113914
113553,113985
113566,113987
113504,113953
113442,113905
113538,113960
113606,114010
113607,114027
113593,113994
113497,113901
113538,113947
113628,114015
113627,114010
113552,113962
113455,113897
113522,113951
113568,113999
113542,113973
113503,113951
113365,113854
113427,113938
113498,113945
113487,113915
113419,113902
113321,113828
113395,113910
113478,113974
113461,113937
113474,113931
113342,113887
113463,113928
113551,113975
113556,113985
113539,113959
113440,113917
113536,113939
113666,114036
113660,114011
113647,113988
113589,113948
113686,114009
113800,114102
113822,114077
113810,114059
113738,114016
113826,114059
113950,114163
113935,114110
113933,114120
113858,114080
113939,114135
114064,114213
114044,114183
114078,114182
113962,114166
114063,114153
114175,114234
114176,114256
114150,114231
114058,114147
114174,114222
114245,114290
114254,114264
114253,114261
114171,114200
114231,114249
114360,114296
114353,114281
114330,114272
114251,114234
114309,114298
114422,114335
114428,114364
114394,114299
114287,114261
114368,114289
114503,114373
114436,114376
114432,114336
114317,114273
114422,114315
114451,114374
114488,114384
114400,114342
114322,114263
114385,114298
114484,114385
114445,114364
114413,114348
114290,114274
114408,114318
114490,114381
114431,114337
114400,114356
114313,114269
114387,114315
114483,114346
114440,114363
114418,114297
114289,114250
114395,114315
114437,114339
114449,114343
114370,114306
114262,114268
114360,114260
114460,114336
114372,114364
114372,114289
114267,114246
114308,114281
114388,114342
114375,114291
114364,114297
114225,114223
114360,114294
114385,114331
114386,114307
114369,114264
114291,114241
114364,114292
114465,114366
114442,114351
114438,114299
114355,114258
114406,114275
114544,114360
114530,114353
114523,114349
114426,114283
114538,114356
114612,114399
114606,114365
114619,114387
114504,114299
114621,114362
114702,114418
114671,114409
114670,114391
114529,114331
114656,114381
114710,114470
114724,114416
114702,114433
114600,114336
114706,114415
114822,114492
114790,114453
114787,114430
114667,114407
114792,114430
114891,114488
114826,114478
114852,114451
114736,114422
114857,114455
114928,114527
114897,114519
114883,114500
114754,114419
114849,114497
114943,114507
114879,114492
114845,114468
114658,114396
114693,114385
114701,114410
114545,114363
114394,114261
114126,114134
114069,114101
114050,114104
113863,114077
113754,113961
113593,113886
113601,113912
113579,113921
113508,113891
113427,113828
113294,113771
113325,113780
113388,113838
113359,113813
113292,113825
113177,113708
113276,113796
113352,113838
113343,113847
113333,113839
113275,113770
113365,113832
113491,113911
113476,113892
113501,113899
113434,113835
113576,113930
113625,114012
113642,113952
113646,113961
113576,113918
113639,113991
113769,114028
113788,114035
113746,114018
113670,113972
113762,114013
113857,114091
113865,114074
113817,114048
113719,113956
113835,114060
113911,114124
113878,114085
113893,114093
113747,114009
113864,114056
113968,114154
113984,114141
113935,114109
113816,114042
113929,114066
114048,114166
114031,114120
114031,114133
113917,114092
114010,114122
114130,114179
114086,114207
114053,114146
113993,114087
114032,114130
114123,114194
114052,114165
114022,114133
113893,114082
113961,114114
113989,114120
113951,114114
113904,114092
113775,113998
113847,114052
113896,114070
113863,114073
113841,114035
113675,113990
113761,113983
113844,114094
113817,114050
113733,114020
113671,113955
113728,114017
113778,114043
113746,113993
113736,113992
113630,113926
113736,114024
113770,114077
113780,114064
113724,114029
113681,113974
113752,114019
113859,114114
113907,114080
113889,114084
113815,114030
113930,114103
114019,114161
114062,114167
114019,114186
113971,114084
114056,114174
114186,114226
114160,114213
114185,114207
114071,114143
114203,114200
114283,114292
114309,114304
114260,114252
114186,114206
114263,114239
114382,114320
114357,114307
114365,114275
114279,114238
114360,114312
114455,114376
114426,114328
114434,114333
114316,114254
114411,114318
114520,114385
114476,114351
114471,114332
114391,114279
114469,114352
114543,114409
114524,114358
114496,114328
114374,114306
114466,114332
114560,114391
114530,114404
114455,114337
114378,114265
114467,114350
114507,114379
114487,114385
114449,114304
114342,114278
114401,114301
114518,114379
114469,114355
114444,114316
114326,114246
114399,114323
114475,114345
114444,114367
114418,114286
114322,114239
114397,114289
114437,114360
114420,114312
114406,114300
114301,114223
114394,114317
114447,114360
114406,114328
114364,114278
114321,114269
114362,114304
114443,114357
114406,114350
114419,114293
114295,114267
114385,114299
114468,114368
114457,114356
114445,114313
114331,114270
114428,114324
114465,114360
114464,114335
114474,114327
114380,114267
114464,114340
114550,114393
114520,114356
114515,114349
114392,114294
114545,114363
114613,114395
114580,114381
114543,114361
114484,114315
114585,114378
114663,114430
114625,114411
114628,114399
114544,114328
114654,114391
114698,114450
114704,114412
114673,114412
114574,114367
114658,114394
114780,114494
114740,114428
114728,114435
114608,114352
114734,114440
114810,114483
114765,114460
114722,114395
114636,114379
114685,114413
114803,114459
114723,114440
114647,114390
114529,114287
114503,114319
114445,114337
114307,114216
114158,114140
113918,114035
113854,114026
113854,114025
113706,113972
113577,113882
113393,113775
113412,113820
113391,113795
113304,113760
113198,113727
113094,113667
113098,113694
113178,113750
113114,113710
113054,113692
112998,113586
113088,113684
113131,113717
113166,113730
113113,113724
113081,113645
113189,113735
113264,113794
113298,113817
113303,113782
113219,113711
113360,113819
113435,113853
113439,113847
113430,113857
113380,113814
113482,113897
113602,113926
113598,113929
113592,113892
113513,113871
113640,113926
113719,114017
113696,113969
113700,113935
113647,113925
113694,113976
113803,114016
113793,113989
113740,114008
113664,113891
113780,113982
113827,114030
113824,114016
113831,114005
113709,113923
113843,114006
113880,114043
113876,114053
113870,114037
113793,113974
113908,114029
114033,114109
113970,114072
113987,114041
113874,113959
113949,114060
114053,114125
113988,114096
113949,114040
113849,114003
113912,114034
113973,114068
113952,114021
113888,114027
113790,113932
113820,114003
113890,114015
113864,114005
113763,113982
113662,113890
113764,113937
113783,113989
113759,113963
113707,113927
113615,113862
113691,113906
113744,113983
113729,113948
113674,113930
113603,113847
113731,113962
113787,113963
113770,113966
113750,113949
113665,113927
113787,113960
113876,114042
113842,113993
113837,113993
113757,113938
113866,114004
113972,114047
113947,114072
113928,113993
113854,113988
113917,114035
114059,114132
114044,114087
114003,114074
113942,114004
114027,114072
114116,114128
114073,114093
114074,114076
113973,114018
114125,114115
114156,114123
114160,114108
114111,114105
114040,114027
114125,114105
114190,114135
114208,114141
114125,114119
114065,114040
114186,114139
114280,114158
114265,114179
114196,114124
114150,114065
114253,114156
114319,114196
114328,114194
114271,114188
114192,114087
114286,114182
114389,114215
114368,114210
114337,114171
114219,114111
114317,114189
114420,114223
114362,114193
114331,114187
114257,114147
114296,114180
114414,114232
114385,114199
114350,114178
114292,114122
114333,114210
114445,114244
114408,114228
114347,114175
114257,114130
114380,114204
114483,114245
114414,114233
114396,114186
114309,114131
114396,114172
114478,114224
114465,114259
114387,114169
114323,114124
114403,114196
114476,114263
114439,114208
114386,114188
114315,114116
114413,114211
114490,114230
114477,114210
114448,114165
114386,114155
114411,114230
114534,114256
114516,114246
114477,114225
114390,114167
114506,114195
114597,114311
114587,114237
114511,114205
114492,114181
114576,114251
114640,114324
114634,114257
114653,114276
114535,114195
114669,114272
114762,114332
114738,114335
114695,114285
114610,114251
114710,114296
114802,114361
114753,114354
114748,114320
114639,114278
114736,114302
114842,114398
114792,114363
114743,114337
114685,114277
114779,114372
114870,114373
114833,114366
114786,114345
114735,114301
114795,114383
114882,114409
114865,114396
114817,114367
114727,114318
114792,114338
114881,114408
114834,114415
114747,114312
114650,114279
114670,114291
114666,114305
114533,114224
114358,114174
114120,113996
114077,114040
114036,114027
113877,113931
113690,113858
113543,113750
113514,113811
113505,113792
113421,113740
113299,113708
113160,113605
113245,113700
113265,113686
113240,113675
113126,113644
113073,113611
113119,113631
113242,113692
113163,113696
113147,113638
113066,113602
113186,113680
113229,113728
113290,113726
113233,113760
113161,113669
113321,113724
113353,113814
113386,113771
113396,113787
113280,113719
113429,113790
113527,113860
113485,113855
113492,113852
113412,113803
113545,113861
113590,113917
113585,113912
113520,113868
113478,113825
113546,113904
113633,113923
113592,113918
113527,113874
113479,113828
113555,113897
113634,113934
113615,113937
113563,113898
113462,113841
113551,113883
113657,113914
113635,113923
113559,113856
113506,113823
113593,113909
113723,113953
113654,113928
113592,113891
113535,113853
113600,113925
113690,113974
113641,113959
113587,113891
113507,113847
113578,113875
113653,113967
113608,113915
113568,113874
113465,113850
113537,113852
113602,113941
113557,113874
113488,113831
113415,113802
113476,113833
113570,113888
113496,113871
113476,113836
113365,113777
113456,113828
113531,113865
113466,113851
113457,113825
113402,113766
113482,113823
113536,113876
113502,113828
113515,113853
113415,113793
113507,113822
113607,113893
113618,113889
113569,113856
113487,113806
113621,113900
113725,113946
113699,113915
113657,113893
113587,113850
113734,113935
113813,113976
113803,113993
113776,113937
113712,113924
113812,113955
113914,114028
113863,113988
113842,113982
113775,113939
113884,114008
113997,114064
113958,114068
113925,113996
113854,113945
114006,114048
114075,114082
114012,114074
114026,114029
113944,114002
114046,114058
114132,114096
114059,114104
114063,114053
113987,114026
114083,114057
114187,114125
114114,114115
114047,114084
114009,113994
114125,114108
114158,114120
114110,114092
114116,114075
114010,114043
114140,114100
114213,114150
114151,114087
114095,114106
114040,114052
114155,114084
114233,114163
114163,114109
114165,114095
114067,114060
114166,114106
114255,114140
114199,114130
114145,114095
114069,114056
114181,114119
114236,114166
114201,114129
114169,114095
114041,114036
114173,114078
114245,114148
114223,114123
114178,114107
114051,114045
114181,114085
114263,114157
114199,114149
114178,114091
114069,114038
114208,114124
114281,114142
114233,114143
114208,114110
114108,114043
114225,114136
114294,114152
114242,114142
114225,114102
114157,114065
114257,114113
114307,114167
114304,114155
114246,114106
114168,114095
114278,114139
114338,114201
114353,114178
114284,114130
114211,114084
114312,114149
114383,114197
114358,114138
114314,114147
114252,114120
114397,114169
114408,114222
114389,114168
114312,114159
114297,114130
114391,114168
114483,114212
114465,114224
114426,114191
114377,114148
114471,114203
114602,114282
114536,114232
114513,114220
114435,114190
114526,114230
114601,114291
114590,114240
114537,114221
114455,114180
114548,114264
114638,114272
114560,114240
114525,114189
114415,114180
114418,114158
114414,114177
114237,114122
114093,114019
113943,113916
113859,113954
113848,113916
113719,113847
113571,113782
113386,113703
113481,113728
113426,113740
113333,113692
113225,113629
113126,113620
113180,113605
113264,113695
113170,113620
113146,113600
113074,113565
113182,113610
113277,113708
113219,113657
113174,113654
113122,113597
113258,113677
113323,113751
113321,113715
113324,113686
113264,113672
113375,113751
113488,113804
113504,113837
113467,113788
113462,113766
113553,113815
113669,113881
113626,113857
113598,113858
113536,113807
113683,113858
113777,113897
113735,113904
113691,113864
113649,113861
113710,113910
113799,113921
113791,113950
113734,113875
113701,113845
113772,113928
113842,113956
113846,113931
113799,113927
113734,113868
113832,113960
113943,114013
113919,113961
113915,113960
113850,113953
113968,113986
114078,114054
114038,114011
114006,114013
113918,113955
114046,114000
114116,114075
114033,114044
114016,113999
113920,113937
113990,114019
114010,114027
113966,113989
113919,113945
113799,113907
113871,113946
113960,113991
113858,113977
113786,113917
113705,113834
113811,113905
113848,113953
113805,113888
113774,113905
113670,113827
113782,113915
113858,113926
113800,113891
113794,113890
113709,113873
113774,113915
113884,113963
113825,113921
113797,113921
113738,113837
113876,113938
113926,114010
113912,113942
113861,113924
113822,113892
113949,113962
113993,114030
113982,113973
113960,113969
113880,113946
113993,113981
114090,114037
114040,114053
113992,113983
113970,113944
114070,114028
114115,114070
114139,114057
114083,114018
114055,114022
114120,114049
114179,114112
114165,114065
114154,114030
114048,114005
114146,114067
114211,114111
114173,114065
114124,114039
114093,114010
114133,114040
114184,114102
114149,114067
114088,114017
114028,113940
114099,114040
114140,114064
114114,114056
114054,114003
113991,113976
114043,113985
114122,114025
114087,114047
114022,113965
113978,113920
114032,113994
114118,114056
114040,114014
114040,113970
113963,113968
114073,114009
114112,114049
114103,114023
114030,113988
114006,113936
114082,114027
114175,114084
114117,114014
114094,113994
114037,113980
114128,114027
114198,114070
114165,114067
114134,114002
114068,113988
114170,114021
114238,114109
114186,114040
114146,114026
114108,113997
114180,114048
114248,114107
114178,114043
114133,114024
114081,113976
114190,114040
114195,114070
114187,114053
114123,114012
114070,113960
114163,114037
114257,114067
114175,114059
114144,113991
114095,113977
114195,114058
114229,114063
114209,114068
114151,113990
114130,114029
114222,114058
114283,114090
114255,114086
114212,114017
114166,114022
114249,114064
114339,114122
114301,114085
114253,114043
114235,114015
114273,114075
114365,114150
114351,114095
114303,114090
114257,114009
114350,114088
114410,114166
114391,114121
114333,114081
114293,114044
114363,114116
114414,114154
114393,114122
114314,114102
114221,114004
114297,114058
114247,114083
114142,114021
114023,113899
113839,113879
113861,113852
113830,113862
113707,113820
113553,113730
113475,113645
113460,113700
113458,113726
113364,113641
113240,113574
113133,113552
113171,113607
113221,113595
113129,113581
113082,113524
112978,113504
113071,113531
113155,113588
113077,113557
113080,113519
113030,113496
113131,113592
113202,113646
113192,113602
113131,113601
113129,113533
113229,113625
113292,113691
113281,113663
113229,113592
113214,113610
113321,113657
113397,113708
113348,113699
113349,113663
113272,113629
113387,113699
113455,113722
113403,113714
113393,113686
113336,113635
113417,113690
113500,113793
113463,113726
113407,113674
113347,113646
113498,113727
113501,113800
113511,113749
113460,113693
113398,113679
113526,113754
113620,113812
113555,113788
113571,113730
113502,113748
113617,113800
113709,113824
113713,113822
113641,113798
113607,113739
113692,113818
113741,113856
113688,113822
113654,113750
113574,113766
113666,113798
113743,113848
113659,113819
113621,113769
113564,113712
113625,113798
113656,113795
113626,113778
113571,113732
113488,113720
113560,113756
113646,113801
113604,113738
113513,113722
113495,113684
113573,113758
113643,113801
113603,113796
113531,113737
113518,113689
113604,113759
113698,113830
113648,113794
113589,113726
113563,113735
113648,113817
113686,113850
113687,113802
113659,113767
113579,113757
113692,113796
113782,113871
113768,113821
113695,113813
113668,113745
113814,113847
113856,113891
113830,113875
113761,113797
113768,113814
113879,113856
113923,113933
113873,113869
113861,113847
113782,113813
113917,113870
113966,113904
113951,113878
113886,113863
113840,113811
113931,113891
113987,113955
113955,113902
113921,113853
113854,113860
113986,113917
114026,113943
114003,113902
113957,113892
113895,113836
114021,113922
114080,113963
114036,113927
113998,113893
113953,113858
114027,113929
114151,113991
114076,113977
114050,113894
113978,113910
114059,113953
114138,114008
114116,113945
114070,113944
114073,113901
114150,113978
114199,114031
114162,113973
114112,113944
114062,113895
114180,113989
114241,114016
114218,113993
114111,113952
114097,113919
114173,113984
114238,114043
114183,113991
114111,113951
114090,113896
114205,113982
114270,114037
114217,114007
114125,113944
114118,113941
114184,113997
114260,114020
114230,114000
114158,113952
114098,113932
114199,113998
114266,114045
114177,113976
114106,113938
114062,113907
114136,113964
114190,113994
114150,113973
114051,113911
114018,113883
114077,113943
114167,114002
114133,113956
114035,113918
114035,113909
114094,113941
114188,113999
114160,113969
114062,113915
114073,113920
114175,113957
114256,114034
114164,113977
114164,113964
114136,113916
114216,113974
114358,114072
114288,114033
114246,113963
114267,113969
114373,114053
114437,114077
114403,114061
114377,114054
114394,114002
114491,114117
114567,114139
114523,114125
114500,114096
114453,114050
114563,114180
114654,114182
114603,114160
114545,114158
114504,114060
114623,114194
114678,114165
114596,114159
114478,114070
114350,114045
114310,114027
114300,114025
114114,113941
113927,113830
113782,113778
113766,113762
113742,113789
113627,113721
113466,113601
113359,113559
113381,113622
113383,113610
113290,113555
113160,113483
113063,113453
113128,113505
113206,113551
113134,113501
113040,113460
112992,113445
113100,113472
113122,113563
113112,113512
113031,113452
113052,113457
113105,113499
113221,113575
113155,113544
113125,113499
113128,113486
113261,113586
113331,113644
113304,113619
113246,113586
113252,113550
113396,113647
113489,113697
113445,113681
113376,113642
113393,113648
113526,113673
113581,113781
113531,113705
113484,113672
113480,113653
113567,113712
113608,113755
113578,113718
113521,113645
113502,113663
113568,113733
113647,113742
113599,113750
113495,113687
113488,113649
113571,113730
113679,113799
113578,113744
113558,113708
113492,113703
113641,113733
113693,113784
113645,113770
113561,113720
113541,113689
113638,113718
113663,113796
113619,113781
113557,113699
113488,113664
113572,113706
113654,113793
113566,113711
113512,113647
113467,113644
113525,113703
113534,113691
113536,113684
113413,113642
113365,113595
113462,113650
113506,113728
113403,113665
113374,113577
113298,113595
113421,113634
113446,113689
113396,113635
113334,113565
113316,113592
113390,113661
113490,113690
113416,113654
113387,113606
113357,113618
113435,113646
113533,113725
113475,113679
113429,113615
113438,113621
113502,113702
113601,113739
113584,113714
113507,113689
113494,113655
113604,113710
113647,113773
113623,113706
113587,113699
113543,113653
113666,113738
113757,113769
113689,113763
113611,113706
113616,113697
113708,113781
113792,113805
113778,113778
113666,113759
113652,113709
113792,113809
113833,113862
113800,113795
113727,113769
113725,113736
113835,113809
113882,113837
113859,113830
113789,113802
113738,113754
113866,113820
113906,113890
113837,113835
113793,113785
113766,113767
113855,113804
113905,113848
113860,113834
113770,113770
113736,113766
113854,113816
113869,113886
113831,113818
113793,113778
113722,113742
113844,113804
113919,113863
113838,113823
113789,113773
113760,113766
113855,113803
113923,113852
113893,113839
113791,113765
113791,113747
113874,113837
113938,113854
113860,113839
113855,113763
113802,113786
113862,113793
113921,113865
113906,113841
113819,113801
113810,113763
113902,113839
113944,113856
113966,113839
113842,113800
113830,113772
113965,113851
114010,113887
113976,113884
113924,113802
113889,113807
114009,113886
114051,113895
114058,113875
113922,113863
113913,113809
114052,113868
114095,113915
114058,113898
113994,113841
113973,113842
114044,113898
114121,113937
114110,113928
114016,113884
114023,113824
114083,113931
114177,113937
114108,113922
114104,113898
114031,113866
114147,113939
114198,113974
114161,113931
114097,113913
114085,113891
114191,113951
114277,113966
114248,113956
114155,113923
114191,113925
114285,113992
114358,114022
114343,114001
114260,113966
114242,113934
114367,114033
114417,114072
114400,114016
114298,113990
114312,113967
114415,114044
114450,114055
114351,114006
114230,113938
114176,113905
114217,113949
114166,113911
114001,113866
113838,113747
113699,113684
113690,113683
113639,113686
113534,113647
113347,113531
113228,113490
113296,113507
113250,113534
113125,113455
113032,113391
112949,113369
113009,113410
113047,113440
112942,113396
112895,113360
112860,113342
112941,113387
113028,113459
113011,113420
112925,113379
112934,113375
113072,113468
113130,113528
113118,113491
113065,113456
113060,113437
113204,113518
113249,113561
113232,113533
113160,113483
113186,113511
113291,113552
113331,113608
113312,113595
113262,113524
113215,113513
113357,113601
113391,113605
113344,113587
113269,113541
113264,113521
113343,113583
113408,113609
113382,113619
113276,113537
113259,113526
113343,113582
113416,113597
113356,113615
113276,113514
113252,113548
113353,113626
113422,113641
113388,113630
113337,113545
113307,113545
113405,113587
113490,113664
113418,113581
113357,113545
113369,113553
113432,113605
113484,113643
113455,113609
113334,113553
113326,113547
113434,113617
113453,113659
113387,113576
113319,113508
113269,113512
113379,113599
113415,113634
113337,113589
113281,113487
113271,113500
113340,113557
113400,113606
113356,113574
113267,113504
113232,113488
113324,113591
113416,113635
113370,113576
113273,113535
113270,113508
113420,113601
113424,113626
113413,113593
113363,113540
113333,113548
113432,113614
113542,113660
113479,113643
113434,113572
113412,113578
113543,113643
113636,113707
113561,113629
113543,113618
113542,113617
113633,113698
113669,113718
113690,113696
113581,113643
113609,113635
113724,113729
113754,113786
113748,113704
113696,113703
113639,113675
113758,113741
113834,113794
113780,113744
113708,113675
113707,113665
113794,113777
113840,113789
113802,113721
113741,113702
113760,113699
113830,113757
113875,113787
113856,113768
113765,113686
113791,113728
113866,113829
113903,113827
113922,113785
113832,113750
113805,113751
113953,113794
113976,113844
113963,113823
113851,113756
113915,113769
113996,113824
114069,113886
114020,113855
113964,113787
113996,113813
114072,113840
114126,113927
114098,113880
114042,113820
113992,113833
114103,113884
114172,113891
114149,113901
114080,113842
114024,113866
114155,113903
114221,113944
114130,113889
114101,113847
114034,113857
114187,113925
114189,113941
114173,113908
114106,113855
114057,113873
114194,113919
114245,113958
114210,113916
114114,113869
114155,113879
114213,113940
114267,113955
114229,113936
114157,113850
114156,113881
114220,113949
114282,113978
114248,113946
114178,113884
114183,113911
114303,113974
114313,114008
114293,113965
114236,113890
114237,113915
114328,113997
114385,113993
114357,113992
114305,113946
114262,113925
114355,113995
114391,114029
114399,114021
114300,113932
114291,113923
114376,114005
114392,114006
114335,113950
114199,113853
114117,113874
114107,113866
114068,113860
113879,113798
113742,113670
113636,113620
113646,113647
113604,113646
113504,113569
113374,113489
113270,113447
113351,113519
113292,113508
113216,113487
113080,113410
113050,113354
113140,113453
113187,113465
113112,113421
113012,113367
113020,113364
113133,113435
113197,113502
113149,113430
113095,113405
113134,113429
113239,113505
113262,113530
113284,113502
113236,113482
113219,113504
113348,113559
113409,113570
113396,113600
113348,113507
113359,113506
113476,113634
113536,113616
113446,113640
113395,113542
113429,113556
113544,113628
113582,113660
113543,113645
113453,113577
113485,113553
113553,113693
113569,113672
113558,113649
113470,113580
113470,113583
113578,113675
113607,113696
113564,113635
113485,113583
113493,113568
113625,113664
113621,113722
113634,113671
113537,113616
113565,113622
113680,113697
113700,113744
113706,113682
113615,113650
113623,113688
113718,113719
113750,113748
113703,113728
113597,113669
113552,113645
113641,113666
113626,113717
113559,113652
113424,113570
113398,113561
113492,113629
113487,113688
113428,113587
113288,113522
113328,113541
113327,113575
113375,113564
113356,113574
113229,113472
113246,113501
113344,113566
113349,113626
113340,113537
113286,113511
113287,113510
113392,113587
113410,113635
113391,113556
113314,113490
113353,113561
113449,113613
113519,113653
113450,113616
113398,113548
113421,113574
113520,113643
113591,113665
113549,113644
113476,113624
113544,113632
113645,113725
113655,113708
113660,113693
113587,113612
113624,113656
113738,113770
113737,113756
113731,113737
113627,113653
113674,113711
113800,113782
113831,113780
113768,113776
113691,113695
113719,113705
113848,113791
113865,113825
113813,113785
113748,113686
113825,113766
113912,113836
113958,113825
113904,113829
113816,113723
113864,113764
113914,113820
114020,113880
113936,113819
113852,113775
113899,113791
113967,113854
114012,113853
113961,113852
113856,113755
113854,113752
113992,113852
113945,113881
113933,113852
113842,113747
113842,113800
113905,113841
113964,113830
113873,113809
113803,113725
113783,113781
113899,113822
113937,113850
113880,113818
113745,113742
113822,113741
113919,113839
113911,113821
113873,113810
113804,113712
113809,113789
113928,113811
113971,113833
113926,113816
113843,113733
113837,113768
113983,113828
113992,113880
113958,113827
113889,113759
113903,113790
114007,113811
114065,113888
113996,113816
113882,113767
113950,113772
114016,113861
114100,113833
114038,113861
113924,113752
113982,113784
114095,113849
114083,113897
114065,113847
114016,113795
114005,113833
114135,113881
114168,113921
114121,113862
114039,113804
114053,113823
114191,113904
114234,113950
114203,113919
114128,113823
114187,113888
114286,113946
114359,113938
114316,113937
114243,113855
114247,113907
114320,113955
114405,113993
114319,113948
114217,113864
114190,113885
114237,113888
114237,113908
114033,113809
113849,113696
113800,113670
113741,113699
113671,113669
113553,113561
113374,113502
113294,113427
113340,113495
113303,113477
113197,113424
113046,113348
112999,113349
113080,113379
113097,113418
113032,113359
112932,113306
112964,113312
113065,113416
113076,113413
113071,113388
112984,113342
113043,113378
113150,113456
113201,113466
113204,113467
113118,113395
113193,113424
113294,113531
113362,113541
113345,113548
113276,113445
113351,113498
113475,113588
113500,113628
113477,113598
113383,113549
113505,113604
113588,113659
113671,113664
113631,113673
113538,113621
113570,113631
113688,113677
113741,113709
113706,113696
113582,113634
113634,113621
113754,113711
113743,113734
113753,113710
113632,113632
113706,113659
113785,113750
113832,113732
113802,113739
113700,113674
113743,113706
113814,113767
113857,113751
113828,113718
113691,113683
113681,113661
113827,113722
113840,113766
113758,113738
113628,113614
113660,113647
113726,113702
113738,113735
113634,113654
113544,113588
113509,113597
113603,113625
113605,113682
113541,113626
113411,113550
113406,113533
113546,113601
113502,113629
113454,113576
113404,113519
113391,113537
113483,113575
113531,113638
113495,113608
113412,113524
113443,113561
113530,113637
113562,113613
113561,113604
113455,113571
113515,113586
113633,113690
113636,113655
113623,113654
113550,113638
113589,113630
113718,113712
113749,113739
113691,113672
113623,113618
113658,113685
113792,113724
113843,113745
113800,113705
113718,113680
113729,113688
113845,113732
113876,113786
113859,113757
113728,113695
113811,113707
113897,113746
113973,113817
113909,113764
113830,113696
113897,113747
113963,113813
114021,113810
113976,113830
113901,113723
113944,113755
114057,113834
114050,113840
114062,113826
113923,113780
113989,113794
114076,113840
114121,113865
114057,113866
113985,113770
114046,113817
114105,113844
114141,113911
114090,113850
114014,113800
114078,113813
114132,113848
114167,113902
114131,113848
114061,113787
114099,113856
114151,113890
114266,113909
114161,113869
114096,113817
114150,113856
114204,113941
114253,113888
114195,113897
114090,113798
114140,113828
114225,113891
114257,113895
114206,113881
114094,113783
114148,113853
114220,113872
114278,113907
114213,113891
114108,113802
114168,113858
114212,113879
114266,113936
114219,113887
114115,113819
114140,113835
114293,113900
114281,113907
114247,113888
114133,113820
114172,113845
114332,113940
114285,113914
114264,113900
114166,113839
114244,113830
114357,113958
114350,113939
114334,113896
114268,113861
114318,113888
114414,113955
114443,113962
114372,113928
114309,113889
114386,113930
114470,113972
114472,114009
114472,113971
114391,113915
114439,113939
114565,113995
114564,114038
114570,114009
114465,113948
114518,113990
114635,114022
114625,114036
114634,114038
114561,113965
114569,113981
114672,114073
114667,114068
114610,114021
114511,113974
114503,113977
114560,114005
114455,113946
114324,113898
114125,113775
114046,113752
114039,113792
113910,113716
113748,113643
113607,113560
113589,113539
113570,113581
113535,113548
113450,113503
113256,113398
113301,113445
113348,113486
113304,113480
113272,113442
113161,113357
113195,113416
113290,113497
113290,113485
113284,113436
113199,113400
113295,113446
113397,113536
113395,113505
113388,113506
113346,113467
113390,113510
113500,113561
113545,113595
113541,113565
113459,113523
113524,113558
113659,113632
113642,113631
113658,113605
113560,113541
113627,113600
113701,113666
113707,113664
113722,113647
113589,113584
113652,113601
113772,113682
113737,113677
113742,113651
113611,113556
113673,113627
113732,113682
113758,113633
113733,113644
113607,113557
113682,113592
113786,113667
113764,113661
113756,113640
113641,113587
113726,113642
113791,113684
113829,113715
113828,113697
113726,113606
113756,113636
113855,113688
113887,113720
113822,113675
113736,113618
113751,113648
113828,113696
113818,113667
113775,113647
113643,113557
113661,113598
113723,113635
113747,113643
113666,113605
113552,113500
113619,113562
113680,113642
113667,113621
113611,113559
113519,113513
113549,113536
113657,113602
113631,113597
113615,113561
113515,113520
113553,113552
113624,113627
113655,113588
113647,113587
113556,113525
113578,113571
113696,113675
113711,113623
113697,113606
113579,113545
113669,113577
113764,113633
113818,113679
113774,113658
113700,113576
113749,113614
113825,113693
113863,113731
113822,113666
113772,113568
113819,113683
113900,113686
113944,113766
113906,113700
113806,113634
113868,113641
114000,113786
114008,113748
114018,113737
113877,113659
113968,113685
114074,113802
114057,113761
114051,113758
113966,113710
114002,113710
114150,113803
114097,113798
114088,113750
114004,113683
114064,113746
114171,113832
114163,113818
114128,113784
114062,113732
114113,113768
114185,113816
114209,113821
114159,113807
114074,113720
114108,113760
114226,113846
114225,113828
114187,113807
114095,113719
114132,113759
114243,113833
114255,113813
114154,113785
114086,113720
114132,113760
114219,113848
114217,113798
114152,113799
114090,113722
114148,113780
114201,113840
114199,113818
114172,113771
114056,113705
114140,113759
114214,113837
114228,113815
114199,113790
114080,113698
114152,113767
114247,113827
114257,113828
114205,113796
114106,113715
114201,113765
114265,113830
114269,113811
114241,113831
114140,113705
114207,113752
114315,113859
114306,113836
114259,113816
114177,113738
114244,113807
114332,113866
114326,113843
114347,113838
114228,113766
114293,113819
114392,113893
114419,113893
114364,113862
114299,113797
114350,113836
114468,113922
114501,113932
114447,113888
114411,113829
114466,113891
114554,113938
114564,113958
114550,113922
114439,113855
114495,113898
114613,113977
114625,113962
114569,113937
114489,113878
114556,113932
114637,113986
114655,113978
114621,113984
114513,113890
114577,113928
114671,113993
114677,113989
114644,113958
114513,113869
114597,113936
114690,113998
114644,113985
114620,113974
114511,113877
114560,113898
114582,113948
114534,113910
114358,113824
114176,113731
114094,113697
114039,113708
113930,113653
113761,113559
113584,113447
113552,113451
113542,113478
113473,113428
113395,113385
113239,113286
113238,113342
113293,113375
113252,113335
113184,113302
113092,113230
113125,113276
113230,113327
113190,113315
113211,113324
113087,113257
113159,113306
113275,113394
113300,113384
113262,113369
113201,113328
113294,113343
113409,113459
113411,113438
113425,113446
113294,113379
113445,113460
113545,113507
113558,113531
113580,113492
113502,113451
113558,113490
113689,113573
113688,113588
113701,113530
113592,113488
113687,113542
113813,113630
113798,113602
113733,113568
113624,113508
113763,113577
113805,113641
113824,113599
113804,113604
113683,113534
113765,113606
113851,113649
113861,113651
113849,113624
113721,113544
113850,113603
113951,113698
113911,113681
113910,113627
113797,113585
113904,113637
113956,113702
113949,113665
113925,113682
113786,113571
113888,113598
113960,113666
113918,113667
113848,113599
113702,113524
113822,113592
113833,113634
113796,113585
113790,113603
113626,113495
113681,113534
113783,113584
113707,113565
113668,113554
113589,113469
113669,113528
113701,113579
113696,113538
113699,113554
113577,113470
113645,113544
113747,113578
113767,113574
113705,113581
113597,113492
113713,113532
113837,113635
113772,113631
113805,113569
113729,113511
113790,113596
113912,113671
113851,113666
113917,113647
113827,113555
113886,113640
113989,113696
114002,113704
113980,113674
113915,113600
113975,113667
114073,113711
114080,113722
114051,113690
113949,113652
114031,113675
114161,113758
114086,113771
114092,113717
113988,113658
114048,113717
114183,113766
114192,113805
114167,113747
114063,113684
114150,113754
114261,113801
114231,113797
114262,113811
114134,113707
114211,113766
114325,113845
114290,113830
114293,113828
114211,113749
114268,113774
114377,113889
114347,113867
114297,113822
114217,113755
114317,113831
114365,113898
114380,113873
114352,113830
114221,113758
114334,113821
114397,113870
114367,113854
114344,113851
114224,113769
114295,113800
114384,113876
114363,113858
114327,113817
114194,113766
114269,113798
114377,113880
114357,113843
114279,113804
114192,113743
114290,113784
114329,113839
114330,113831
114282,113809
114151,113720
114239,113760
114338,113826
114291,113826
114283,113792
114129,113723
114247,113778
114333,113809
114260,113814
114263,113787
114132,113715
114262,113788
114331,113840
114285,113824
114303,113809
114180,113719
114296,113791
114362,113857
114345,113836
114332,113823
114227,113751
114329,113780
114437,113879
114393,113847
114389,113832
114295,113767
114390,113815
114469,113861
114472,113879
114458,113858
114314,113769
114434,113847
114557,113893
114494,113873
114504,113873
114416,113798
114465,113840
114585,113922
114590,113901
114510,113886
114434,113818
114523,113880
114623,113922
114601,113916
114546,113881
114443,113828
114518,113848
114597,113937
114502,113892
114462,113839
114285,113751
114282,113746
114279,113753
114112,113709
114012,113639
113765,113522
113756,113502
113723,113514
113627,113463
113521,113414
113326,113307
113380,113333
113376,113357
113295,113328
113244,113317
113106,113223
113132,113254
113238,113330
113210,113296
113143,113290
113048,113208
113136,113276
113246,113342
113249,113343
113237,113312
113145,113251
113237,113308
113372,113397
113356,113380
113359,113373
113273,113310
113400,113402
113495,113448
113482,113419
113464,113431
113377,113375
113502,113452
113607,113514
113570,113476
113578,113495
113485,113408
113581,113462
113674,113547
113665,113527
113645,113500
113542,113438
113660,113515
113727,113543
113703,113558
113685,113486
113577,113448
113696,113520
113730,113581
113694,113524
113685,113556
113565,113449
113670,113529
113745,113545
113796,113567
113728,113506
113622,113474
113685,113492
113800,113562
113796,113600
113758,113550
113620,113474
113721,113542
113781,113553
113785,113613
113755,113543
113598,113442
113689,113463
113728,113521
113749,113545
113665,113469
113572,113430
113622,113487
113680,113510
113664,113498
113613,113468
113527,113422
113623,113466
113666,113517
113620,113485
113620,113471
113531,113377
113558,113452
113683,113483
113633,113513
113632,113484
113509,113418
113599,113457
113691,113488
113668,113532
113644,113496
113553,113429
113663,113490
113721,113541
113730,113517
113717,113511
113616,113463
113719,113505
113814,113581
113820,113570
113774,113551
113697,113481
113805,113552
113879,113610
113873,113613
113892,113579
113787,113508
113883,113586
113975,113631
113994,113658
113932,113609
113858,113549
113964,113613
114043,113673
114006,113646
114019,113637
113921,113569
113976,113619
114076,113704
114060,113672
114010,113628
113928,113617
114018,113612
114094,113694
114075,113677
114054,113612
113921,113578
114049,113656
114136,113705
114081,113681
114095,113679
113982,113590
114032,113660
114176,113722
114146,113701
114056,113666
113997,113596
114092,113660
114154,113722
114130,113718
114103,113685
114002,113585
114082,113671
114178,113726
114131,113696
114085,113670
114019,113591
114077,113634
114171,113698
114119,113684
114104,113669
113998,113595
114089,113658
114164,113718
114104,113686
114080,113673
113996,113588
114058,113639
114125,113702
114117,113678
114078,113632
113928,113575
114042,113648
114108,113708
114083,113669
114047,113653
113955,113568
114018,113622
114101,113714
114105,113672
114046,113637
113980,113603
114057,113635
114178,113691
114116,113688
114126,113664
114033,113581
114097,113646
114182,113731
114191,113710
114149,113693
114064,113611
114148,113659
114266,113733
114190,113717
114177,113669
114113,113635
114212,113674
114258,113762
114266,113722
114248,113719
114124,113638
114221,113716
114298,113754
114266,113744
114222,113692
114166,113640
114231,113736
114304,113757
114323,113760
114255,113708
114185,113659
114266,113715
114356,113795
114334,113747
114344,113713
114209,113665
114310,113725
114389,113800
114353,113784
114291,113725
114209,113641
114288,113722
114338,113754
114289,113729
114187,113648
114048,113574
113982,113587
113972,113583
113855,113517
113701,113443
113518,113371
113498,113339
113505,113362
113377,113288
113275,113256
113104,113149
113118,113189
113146,113210
113059,113202
112997,113132
112884,113092
112925,113096
113035,113159
112938,113188
112934,113125
112875,113067
112942,113153
113016,113192
113004,113206
113005,113174
112934,113109
113062,113182
113142,113253
113146,113284
113118,113237
113029,113193
113141,113246
113227,113347
113264,113303
113242,113304
113149,113229
113247,113325
113297,113355
113303,113333
113290,113325
113193,113290
113263,113323
113379,113371
113336,113396
113330,113326
113240,113264
113345,113360
113374,113416
113373,113403
113314,113351
113261,113307
113354,113335
113391,113409
113423,113395
113366,113360
113294,113306
113366,113364
113441,113453
113432,113411
113374,113403
113313,113341
113418,113385
113520,113456
113491,113465
113466,113392
113377,113323
113496,113426
113534,113495
113485,113456
113505,113424
113397,113345
113481,113415
113519,113450
113479,113443
113441,113400
113332,113337
113410,113388
113500,113479
113419,113411
113395,113379
113284,113334
113343,113362
113460,113421
113395,113414
113393,113375
113294,113322
113368,113403
113458,113438
113448,113439
113450,113406
113333,113338
113440,113426
113526,113441
113492,113490
113489,113428
113408,113349
113537,113447
113588,113485
113569,113492
113571,113444
113465,113406
113536,113474
113682,113529
113626,113490
113623,113503
113502,113419
113631,113474
113742,113539
113681,113512
113651,113494
113581,113441
113701,113506
113795,113609
113765,113544
113720,113515
113654,113481
113732,113525
113862,113586
113794,113583
113796,113544
113699,113486
113795,113541
113887,113634
113897,113634
113848,113587
113784,113520
113887,113577
113963,113669
113950,113643
113871,113612
113803,113565
113900,113612
114013,113657
113964,113682
113940,113630
113854,113569
113920,113629
114022,113668
113987,113644
113949,113633
113837,113569
113938,113630
114068,113718
114022,113650
113962,113665
113913,113591
113962,113640
114079,113686
114053,113668
114003,113622
113915,113577
114076,113656
114107,113686
114043,113686
114022,113645
113922,113611
114001,113642
114132,113710
114060,113678
113983,113637
113938,113584
113990,113668
114072,113669
114008,113664
114001,113640
113904,113573
113998,113641
114055,113654
114033,113670
113980,113617
113908,113569
114002,113625
114113,113677
114072,113683
114028,113625
113956,113573
114067,113654
114129,113683
114111,113676
114068,113645
113966,113566
114114,113673
114209,113726
114131,113688
114116,113679
114044,113599
114146,113661
114228,113752
114172,113730
114162,113675
114093,113641
114187,113685
114312,113751
114244,113722
114244,113698
114122,113643
114264,113715
114334,113838
114327,113797
114300,113752
114230,113682
114372,113765
114433,113838
114418,113788
114408,113782
114331,113715
114469,113816
114543,113884
114489,113838
114473,113802
114395,113777
114516,113833
114626,113887
114576,113866
114529,113855
114444,113761
114545,113831
114606,113877
114480,113842
114386,113750
114173,113668
114170,113671
114125,113652
113959,113590
113799,113506
113631,113387
113653,113435
113615,113411
113494,113393
113390,113336
113228,113225
113307,113261
113313,113339
113300,113317
113191,113256
113123,113201
113193,113249
113288,113303
113290,113284
113275,113258
113124,113220
113292,113302
113366,113358
113344,113331
113354,113328
113315,113315
113401,113403
113504,113428
113493,113438
113468,113394
113420,113316
113504,113415
113643,113488
113624,113448
113547,113443
113535,113417
113644,113466
113715,113524
113718,113526
113687,113475
113586,113424
113711,113512
113821,113559
113795,113554
113741,113526
113696,113464
113768,113538
113861,113592
113835,113559
113776,113524
113687,113485
113807,113544
113904,113613
113867,113554
113829,113571
113725,113507
113886,113601
113938,113644
113940,113592
113867,113592
113797,113534
113926,113586
113981,113661
113955,113632
113882,113545
113796,113524
113894,113608
113949,113633
113922,113597
113857,113545
113734,113490
113830,113552
113877,113583
113815,113548
113746,113505
113627,113444
113750,113519
113781,113549
113722,113527
113663,113453
113613,113422
113684,113497
113760,113503
113706,113514
113667,113476
113558,113422
113681,113467
113751,113552
113732,113509
113673,113452
113639,113437
113693,113522
113814,113555
113775,113523
113720,113519
113673,113473
113813,113552
113857,113580
113865,113570
113845,113559
113764,113485
113922,113550
113953,113654
113948,113594
113971,113587
113882,113536
113995,113607
114073,113665
114068,113653
114015,113640
113939,113561
114043,113618
114109,113683
114073,113628
114052,113655
113965,113563
114081,113627
114152,113684
114109,113710
114067,113606
114007,113580
114112,113647
114173,113699
114145,113695
114110,113634
114048,113601
114143,113680
114257,113723
114194,113710
114156,113682
114081,113626
114183,113688
114301,113732
114246,113748
114189,113661
114069,113619
114208,113676
114312,113777
114243,113736
114183,113651
114144,113626
114199,113676
114303,113766
114211,113706
114207,113669
114112,113626
114215,113700
114288,113752
114247,113738
114181,113651
114116,113626
114230,113699
114262,113767
114238,113712
114178,113673
114150,113638
114249,113696
114286,113747
114231,113706
114211,113699
114123,113631
114218,113683
114319,113761
114215,113727
114194,113660
114108,113630
114191,113651
114301,113742
114229,113708
114197,113652
114105,113622
114223,113672
114301,113741
114241,113724
114199,113644
114135,113632
114230,113697
114312,113744
114264,113711
114259,113702
114176,113644
114296,113709
114349,113754
114313,113731
114320,113702
114247,113668
114337,113744
114378,113784
114362,113744
114338,113747
114259,113697
114365,113744
114467,113788
114432,113772
114376,113744
114297,113699
114434,113738
114507,113825
114434,113794
114440,113745
114325,113693
114444,113763
114466,113817
114421,113764
114308,113698
114183,113606
114186,113659
114118,113625
114025,113553
113822,113484
113646,113387
113667,113438
113658,113411
113519,113361
113417,113264
113277,113220
113308,113246
113304,113290
113229,113216
113165,113193
113053,113123
113131,113173
113196,113208
113177,113220
113118,113154
113027,113108
113131,113190
113211,113257
113168,113204
113167,113205
113116,113158
113225,113245
113332,113276
113331,113266
113254,113247
113248,113221
113376,113290
113463,113340
113442,113356
113381,113286
113390,113273
113484,113372
113570,113410
113529,113361
113527,113394
113448,113323
113558,113392
113634,113427
113598,113407
113567,113385
113505,113357
113585,113432
113641,113423
113600,113425
113571,113389
113510,113354
113605,113416
113660,113489
113643,113420
113584,113408
113502,113348
113622,113404
113709,113485
113671,113478
113621,113398
113550,113383
113657,113454
113738,113520
113680,113435
113656,113443
113560,113357
113633,113427
113695,113502
113616,113408
113552,113413
113467,113334
113540,113373
113605,113426
113533,113368
113449,113349
113381,113286
113472,113363
113487,113389
113463,113334
113382,113308
113328,113250
113416,113299
113505,113381
113441,113374
113420,113293
113342,113284
113435,113362
113508,113386
113483,113329
113456,113360
113394,113302
113512,113371
113613,113425
113583,113435
113564,113369
113499,113356
113618,113434
113726,113469
113689,113473
113677,113411
113636,113409
113739,113476
113843,113518
113784,113505
113748,113473
113710,113436
113780,113497
113893,113542
113889,113542
113817,113483
113769,113470
113884,113535
113936,113604
113888,113519
113834,113529
113806,113480
113924,113527
113980,113603
113922,113558
113909,113544
113815,113464
113906,113518
113999,113585
113908,113575
113898,113515
113805,113478
113925,113525
113995,113614
113927,113531
113865,113523
113801,113470
113897,113531
113961,113591
113928,113540
113863,113519
113826,113459
113916,113557
113962,113566
113952,113542
113905,113509
113843,113487
113955,113545
114022,113620
113960,113542
113893,113505
113886,113472
113932,113537
114030,113607
113963,113536
113944,113524
113894,113456
114002,113547
113993,113613
114016,113568
113964,113505
113920,113507
113999,113528
114092,113650
114036,113544
113969,113517
113940,113493
114001,113573
114098,113594
114041,113593
114022,113535
113962,113496
114042,113598
114115,113643
114121,113597
114078,113541
113985,113538
114140,113611
114188,113669
114178,113622
114108,113574
114051,113582
114186,113622
114212,113657
114231,113636
114179,113599
114159,113581
114219,113636
114321,113704
114255,113700
114256,113651
114184,113605
114309,113693
114367,113750
114361,113669
114314,113649
114288,113635
114360,113684
114461,113727
114430,113722
114404,113662
114308,113628
114463,113738
