11111,11111
0,0
82460,82327
131518,106382
134133,106378
134162,106412
134268,106449
134337,106477
134389,106480
134430,106477
134457,106483
134487,106504
134618,106574
134650,106612
134669,106581
134714,106617
134762,106632
134826,106650
134921,106663
134913,106707
134910,106691
135009,106685
135095,106755
135105,106760
135172,106746
135215,106799
135286,106809
135374,106846
135381,106843
135477,106876
135492,106913
135551,106933
135680,106957
135770,106986
135772,107023
135879,107058
135909,107111
136042,107107
136090,107146
136179,107196
136177,107207
136251,107195
136341,107245
136365,107233
136440,107261
136492,107275
136528,107331
136657,107323
136745,107381
136813,107449
136878,107462
136995,107495
137093,107515
137168,107563
137194,107576
137224,107591
137306,107640
137410,107622
137406,107675
137369,107598
137357,107620
137285,107635
137258,107529
137164,107529
136977,107418
136832,107373
136639,107319
136422,107208
136254,107095
135971,107013
135676,106903
135473,106815
135213,106698
134954,106554
134678,106498
134409,106349
134204,106289
134004,106185
133798,106135
133565,106040
133412,105975
133349,105920
133249,105910
133147,105882
133089,105823
133030,105818
133078,105834
133074,105845
133090,105842
133093,105888
133106,105866
133242,105925
133323,105950
133375,106010
133457,106027
133501,106059
133620,106088
133740,106122
133773,106182
133862,106210
133918,106239
134022,106238
134159,106289
134220,106372
134339,106380
134406,106446
134586,106506
134688,106551
134761,106548
134912,106644
135027,106662
135122,106733
135255,106775
135389,106836
135455,106869
135535,106886
135717,106923
135750,106970
135824,106953
135849,107018
135900,107038
136012,107043
136074,107057
136120,107109
136148,107105
136187,107164
137288,107516
138599,108034
138660,108083
139761,108482
139763,108504
139895,108528
138899,108068
138707,107982
138554,107941
138379,107879
138283,107815
136834,107276
136863,107263
136904,107280
136944,107283
136933,107294
137003,107353
137063,107321
137142,107359
137195,107383
137231,107432
137336,107468
137410,107504
137487,107511
137572,107561
137637,107576
137719,107628
137808,107658
137890,107733
137948,107684
137987,107734
138093,107745
138237,107812
138246,107861
138254,107821
138335,107851
138384,107901
138468,107915
138478,107959
138578,107949
138602,107977
138634,108027
138727,108021
138786,108053
138858,108076
138904,108080
138946,108129
139067,108168
139080,108160
139142,108166
139187,108163
139216,108216
139259,108246
139287,108224
139365,108268
139301,108241
139420,108266
139459,108306
139479,108338
139504,108300
139493,108338
139526,108328
139588,108318
139649,108346
139585,108383
139581,108345
139659,108372
139710,108362
139750,108406
139711,108364
139722,108419
139762,108426
139793,108400
139808,108444
139842,108425
139852,108454
139871,108444
139946,108433
139921,108449
139949,108498
139926,108473
140015,108488
140078,108529
140132,108560
140129,108537
140109,108546
140159,108556
140258,108552
140305,108599
140289,108610
140322,108644
140372,108670
140463,108659
140527,108674
140504,108728
140554,108734
140681,108777
140696,108755
140783,108788
140787,108816
140845,108847
140908,108855
140977,108850
140985,108901
141019,108884
141019,108922
141078,108928
141114,108923
141173,108960
141217,108986
141188,108963
141261,109031
141328,108985
141382,109004
141372,109039
141368,109061
141460,109066
141504,109112
141507,109057
141542,109118
141562,109106
141630,109109
141716,109120
141708,109185
141729,109152
141693,109173
141823,109211
141814,109181
141850,109237
141881,109238
141857,109226
141940,109256
141954,109257
141992,109237
141960,109257
141994,109226
141991,109265
142030,109241
141992,109248
141902,109179
141785,109181
141736,109120
141599,109069
141406,108957
141276,108953
141101,108866
141055,108826
140928,108787
140759,108694
140629,108687
140517,108635
140494,108601
140414,108572
140293,108555
140197,108466
140128,108464
140081,108437
139993,108416
139972,108368
139843,108371
139835,108357
139800,108321
139773,108341
139741,108305
139668,108291
139646,108288
139695,108270
139670,108299
139644,108263
139587,108252
139577,108285
139606,108241
139651,108271
139593,108277
139577,108263
139656,108259
139655,108300
139699,108329
139691,108261
139713,108312
139738,108301
139853,108327
139829,108335
139814,108316
139831,108354
139854,108387
139946,108380
139921,108385
139972,108416
139908,108407
139999,108401
140069,108444
140065,108436
140075,108458
140075,108418
140198,108507
140204,108469
140242,108480
140274,108544
140292,108542
140327,108516
140388,108535
140388,108583
140414,108546
140407,108562
140408,108607
140440,108547
140480,108544
140419,108588
140410,108573
140465,108567
140454,108604
140461,108541
140472,108592
140407,108575
140474,108560
140484,108584
140514,108596
140452,108572
140424,108544
140529,108572
140508,108582
140525,108586
140484,108584
140493,108565
140525,108604
140489,108582
140479,108564
140461,108541
140452,108545
140485,108588
140520,108622
140486,108578
140547,108593
140535,108596
140578,108609
140598,108618
140601,108587
140670,108643
140675,108667
140727,108660
140816,108660
140881,108700
140857,108764
140918,108716
141027,108785
141053,108814
141116,108793
141135,108840
141176,108854
141265,108883
141315,108898
141348,108894
141344,108902
141392,108932
141419,108922
141470,108927
141506,108962
141472,108987
141502,108976
141593,109019
141613,109008
141693,108997
141657,109025
141695,109052
141758,109041
141778,109067
141778,109100
141792,109057
141822,109087
141892,109123
141936,109144
141903,109132
141923,109131
141916,109154
141979,109117
141991,109137
142002,109139
141987,109167
141982,109153
142073,109146
142090,109140
142058,109194
142058,109195
142042,109193
142120,109184
142158,109200
142121,109175
142106,109187
142161,109214
142199,109197
142216,109212
142197,109239
142210,109214
142204,109220
142243,109248
142261,109234
142329,109235
142299,109269
142292,109257
142365,109252
142381,109272
142380,109263
142369,109252
142347,109288
142314,109209
142277,109200
142131,109172
141986,109113
141877,109000
141758,108996
141633,108960
141405,108866
141290,108774
141202,108742
141066,108668
140925,108635
140796,108577
140661,108574
140586,108508
140546,108475
140432,108457
140319,108399
140199,108383
140196,108369
140135,108327
140042,108323
139990,108261
139931,108276
139895,108262
139872,108255
139865,108216
139824,108185
139818,108221
139772,108209
139802,108213
139824,108232
139790,108187
139771,108221
139775,108199
139834,108227
139799,108206
139799,108179
139790,108209
139809,108242
139846,108217
139885,108242
139856,108259
139841,108252
139900,108247
139890,108231
139915,108275
139944,108243
139909,108267
140004,108276
139996,108281
140069,108324
140068,108307
140068,108331
140144,108324
140154,108356
140212,108376
140227,108383
140226,108391
140314,108411
140379,108409
140346,108421
140356,108418
140391,108423
140393,108423
140442,108451
140442,108433
140394,108429
140424,108432
140433,108412
140428,108447
140446,108468
140423,108442
140430,108436
140413,108429
140492,108445
140463,108450
140426,108418
140446,108420
140422,108404
140445,108425
140432,108457
140376,108402
140403,108416
140404,108395
140428,108424
140406,108431
140375,108361
140374,108401
140393,108398
140380,108397
140406,108396
140322,108380
140348,108387
140400,108392
140389,108396
140382,108381
140324,108387
140383,108415
140386,108379
140352,108387
140375,108411
140359,108372
140345,108382
140403,108396
140369,108395
140376,108382
140332,108390
140353,108387
140413,108388
140383,108422
140423,108382
140436,108419
140528,108453
140573,108483
140598,108468
140637,108466
140627,108520
140756,108514
140785,108556
140839,108553
140872,108571
140889,108578
140968,108636
140974,108617
141011,108633
141032,108627
141070,108651
141110,108672
141112,108657
141171,108694
141194,108689
141195,108720
141196,108752
141245,108696
141255,108702
141220,108732
141220,108715
141279,108727
141273,108750
141247,108736
141266,108722
141277,108708
141307,108772
141375,108751
141399,108778
141353,108767
141393,108780
141391,108765
141471,108829
141463,108819
141461,108821
141428,108800
141493,108771
141540,108825
141525,108826
141504,108819
141485,108820
141573,108824
141567,108854
141577,108837
141560,108845
141559,108816
141623,108852
141613,108852
141643,108843
141619,108841
141614,108858
141633,108863
141695,108881
141672,108865
141676,108874
141664,108879
141705,108874
141675,108887
141668,108866
141660,108831
141581,108838
141543,108806
141466,108768
141372,108708
141159,108631
141053,108625
140994,108517
140864,108510
140717,108451
140515,108387
140369,108313
140300,108281
140143,108222
139988,108138
139817,108088
139690,108064
139608,107998
139496,107948
139331,107922
139189,107876
139096,107805
138988,107815
138900,107724
138758,107713
138689,107681
138593,107643
138545,107614
138471,107546
138395,107527
138371,107511
138276,107484
138276,107490
138249,107460
138151,107432
138116,107422
138062,107411
137967,107352
137906,107347
137838,107299
137658,107240
137615,107226
137506,107208
137445,107168
137324,107134
137303,107109
137293,107110
137295,107144
137373,107146
137430,107160
137445,107207
137503,107206
137615,107271
137673,107291
137727,107302
137801,107307
137849,107379
137954,107376
138044,107406
138077,107427
138132,107460
138173,107504
138289,107492
138316,107535
138304,107554
138363,107549
138422,107566
138427,107577
138482,107591
138470,107605
138499,107579
138576,107606
138615,107638
138567,107629
138620,107632
138593,107669
138658,107646
138674,107635
138701,107652
138657,107680
138635,107664
138653,107646
138694,107654
138651,107642
138709,107681
138582,107642
138624,107654
138621,107639
138630,107661
138597,107605
138599,107650
138592,107619
138609,107620
138616,107622
138589,107632
138566,107614
138579,107621
138630,107588
138593,107599
138568,107648
138545,107573
138537,107608
138618,107630
138590,107617
138568,107615
138540,107608
138593,107604
138595,107622
138599,107616
138625,107613
138590,107620
138643,107628
138707,107632
138761,107663
138711,107690
138730,107667
138813,107702
138833,107719
138882,107696
138907,107726
138903,107745
138937,107750
139018,107769
139005,107773
138993,107785
138970,107774
139061,107765
139110,107819
139060,107760
139119,107796
139066,107797
139168,107795
139190,107835
139176,107844
139174,107819
139191,107872
139253,107851
139309,107863
139331,107874
139286,107866
139296,107883
139410,107908
139395,107898
139408,107920
139372,107916
139410,107961
139499,107965
139520,107945
139558,107957
139519,107918
139586,107972
139655,108027
139711,108013
139745,108036
139765,108069
139772,108080
139841,108076
139925,108097
139960,108094
139931,108121
139986,108153
140026,108133
140088,108138
140056,108175
140077,108200
140113,108199
140130,108204
140163,108189
140125,108210
140120,108204
140132,108205
140218,108194
140192,108200
140145,108212
140152,108184
140186,108216
140217,108203
140144,108194
140134,108160
140113,108176
140050,108151
140018,108095
139958,108047
139838,108036
139683,107977
139573,107927
139494,107868
139309,107811
139163,107750
138964,107697
138774,107622
138633,107500
138461,107480
138243,107402
137966,107243
137805,107218
137614,107119
137367,107058
137055,106885
136736,106796
136512,106722
136250,106571
135973,106462
135762,106407
135491,106339
135376,106307
135299,106255
135277,106232
135242,106227
135170,106217
135232,106215
135288,106259
135319,106260
135362,106276
135422,106327
135471,106354
135586,106359
135642,106418
135704,106423
135725,106466
135848,106498
135886,106527
135916,106538
135946,106534
135994,106588
136051,106592
136160,106648
136147,106658
136145,106623
136184,106683
136289,106688
136388,106724
136489,106780
136540,106832
136655,106846
136804,106928
136916,106963
137007,106980
137122,107020
137196,107112
137325,107131
137446,107181
137505,107179
137617,107246
137657,107249
137706,107256
137858,107317
137839,107305
137854,107286
137867,107334
137950,107346
137995,107368
138000,107372
137998,107375
137992,107356
138029,107371
138059,107361
138042,107404
137991,107345
137976,107365
138067,107341
138006,107347
137974,107323
137944,107329
137928,107321
137917,107319
137891,107272
137866,107265
137809,107276
137769,107252
137810,107228
137754,107201
137770,107208
137681,107214
137640,107188
137698,107190
137680,107221
137646,107202
137646,107179
137672,107177
137679,107213
137677,107181
137683,107176
137644,107168
137666,107195
137735,107216
137677,107195
137706,107192
137701,107218
137670,107207
137783,107219
137760,107258
137748,107213
137827,107270
137881,107271
137963,107270
137959,107310
137997,107348
138035,107320
138125,107364
138184,107402
138219,107422
138239,107412
138295,107452
138341,107492
138397,107451
138433,107488
138456,107481
138458,107529
138467,107522
138551,107494
138560,107556
138531,107515
138533,107557
138522,107536
138605,107551
138616,107539
138632,107586
138608,107527
138693,107571
138702,107595
138751,107607
138755,107582
138730,107620
138778,107599
138836,107628
138850,107657
138854,107631
138904,107670
138909,107692
138982,107672
138977,107695
139045,107712
139042,107752
139117,107745
139198,107747
139203,107766
139250,107778
139236,107789
139276,107820
139346,107831
139334,107832
139361,107823
139341,107846
139389,107843
139435,107849
139415,107839
139373,107829
139356,107836
139371,107815
139337,107806
139304,107803
139149,107732
139042,107689
138966,107664
138894,107603
138678,107532
138556,107475
138366,107381
138185,107335
138050,107251
137777,107162
137562,107048
137256,106939
137051,106840
136750,106765
136495,106650
136189,106509
135926,106409
135741,106345
135531,106274
135351,106182
135159,106140
135077,106107
134996,106068
134956,106039
134876,106046
134802,105974
134787,105963
134820,105972
134806,106002
134791,105978
134791,105973
134814,106006
134866,106030
134922,106041
134925,106044
134894,106067
134957,106100
135070,106088
135110,106100
135142,106156
135125,106129
135192,106192
135303,106199
135348,106256
135392,106259
135450,106296
135482,106308
135609,106351
135651,106360
135723,106395
135793,106456
135877,106457
136015,106505
136068,106562
136146,106550
136221,106624
136302,106620
136414,106682
136495,106699
136583,106743
136580,106783
136642,106785
136748,106799
136801,106813
136836,106856
136830,106853
136903,106901
136979,106878
136955,106876
136972,106878
137016,106905
137001,106896
137075,106943
137021,106887
137008,106902
137000,106891
137041,106898
137097,106952
137049,106877
137047,106885
137037,106888
137034,106894
137022,106908
137004,106860
137010,106868
136919,106869
136947,106841
136984,106858
136919,106832
136888,106805
136890,106824
136859,106801
136905,106807
136881,106833
136851,106815
136841,106804
136845,106831
136876,106798
136857,106778
136892,106818
136854,106828
136918,106861
136905,106832
136956,106846
136943,106827
136957,106837
137026,106861
137052,106885
137079,106861
137083,106891
137065,106893
137122,106909
137217,106944
137266,106944
137315,107001
137305,106971
137419,107029
137443,107042
137451,107026
137506,107072
137488,107041
137544,107070
137621,107116
137641,107115
137630,107121
137637,107108
137759,107127
137775,107184
137815,107178
137816,107181
137836,107201
137848,107206
137923,107208
137990,107235
137925,107229
137984,107263
138022,107259
138156,107276
138134,107344
138159,107296
138154,107300
138238,107338
138265,107337
138334,107380
138318,107340
138345,107369
138419,107396
138476,107433
138473,107419
138461,107446
138512,107426
138553,107470
138600,107411
138601,107477
138645,107473
138589,107486
138664,107482
138690,107509
138674,107485
138682,107463
138668,107481
138636,107488
138574,107398
138493,107412
138370,107334
138244,107313
138180,107259
138040,107212
137824,107129
137628,107031
137434,106951
137298,106882
137025,106761
136805,106680
136480,106603
136213,106480
135945,106393
135673,106256
135399,106161
135082,106006
134938,105961
134742,105894
134614,105809
134483,105809
134292,105705
134278,105716
134232,105724
134184,105666
134139,105660
134086,105654
134025,105635
134089,105631
134014,105628
134058,105641
134002,105636
134025,105644
134030,105644
134063,105662
134029,105679
134000,105664
134054,105686
134076,105707
134125,105698
134200,105740
134146,105772
134242,105756
134338,105793
134381,105805
134428,105837
134470,105908
134575,105870
134671,105910
134752,105981
134789,105955
134857,106028
134927,106060
135038,106058
135061,106105
135157,106136
135214,106169
135309,106192
135471,106249
135531,106316
135634,106307
135690,106360
135859,106404
135935,106464
136000,106429
136106,106499
136158,106504
136260,106538
136322,106578
136337,106575
136378,106590
136401,106623
136434,106622
136468,106610
136507,106607
136471,106621
136402,106586
136456,106614
136433,106589
136415,106587
136339,106584
136293,106555
136317,106578
136261,106531
136257,106546
136183,106507
136188,106541
136187,106509
136217,106468
136190,106507
136148,106466
136193,106497
136204,106532
136203,106474
136236,106494
136174,106512
136210,106514
136245,106513
136268,106523
136282,106530
136214,106522
136223,106497
136296,106533
136338,106543
136299,106543
136283,106552
136293,106533
136330,106561
136332,106524
136366,106570
136408,106554
136415,106598
136458,106622
136513,106638
136542,106654
136580,106645
136646,106675
136750,106719
136736,106706
136775,106749
136779,106731
136850,106758
136934,106779
136918,106793
136971,106781
136968,106819
137009,106814
137114,106876
137145,106901
137189,106883
137218,106937
137272,106934
137355,106927
137434,106998
137468,107006
137445,107003
137545,107024
137597,107066
137637,107043
137649,107065
137658,107104
137662,107092
137738,107088
137773,107103
137786,107111
137798,107106
137810,107136
137861,107127
137910,107177
137930,107154
137914,107168
137978,107218
138025,107217
138097,107218
138123,107259
138142,107266
138145,107268
138253,107314
138232,107260
138310,107305
138270,107351
138290,107314
138348,107315
138299,107343
138223,107268
138144,107225
138075,107220
137935,107149
137809,107076
137641,107025
137433,106904
137238,106881
137003,106745
136722,106663
136460,106514
136141,106424
135867,106298
135600,106174
135303,106097
135074,105998
134762,105863
134611,105785
134417,105695
134262,105678
134075,105606
133971,105550
133922,105512
133805,105508
133711,105448
133666,105404
133597,105435
133600,105392
133614,105418
133570,105383
133534,105369
133543,105448
133557,105404
133644,105474
133636,105465
133707,105488
133696,105532
133815,105520
133941,105610
133987,105576
134088,105637
134098,105723
134220,105724
134343,105780
134406,105761
134431,105785
134539,105833
134636,105892
134716,105909
134712,105925
134759,105923
134805,105970
134883,105993
134965,106004
135061,106045
135060,106095
135142,106069
135264,106123
135306,106172
135393,106170
135489,106207
135514,106273
135629,106277
135715,106309
135770,106332
135822,106362
135899,106386
135978,106445
136006,106430
136032,106444
136035,106415
136046,106437
136088,106429
136162,106447
136114,106462
136091,106457
136090,106470
136157,106446
136143,106474
136105,106437
136096,106437
136088,106427
136114,106439
136097,106428
136034,106393
135980,106406
135960,106364
135974,106380
135927,106355
135888,106334
135828,106311
135844,106339
135833,106307
135815,106317
135789,106301
135735,106264
135729,106302
135751,106281
135751,106265
135698,106277
135674,106283
135682,106265
135692,106276
135738,106287
135685,106274
135678,106243
135724,106282
135755,106278
135763,106301
135792,106290
135750,106305
135855,106347
135949,106375
135985,106389
136030,106400
135991,106395
136133,106447
136214,106443
136223,106507
136270,106508
136312,106502
136398,106588
136477,106565
136500,106610
136555,106609
136521,106584
136626,106635
136710,106681
136726,106678
136752,106687
136773,106677
136799,106717
136873,106695
136941,106751
136961,106758
136997,106742
137065,106820
137091,106838
137144,106816
137206,106880
137235,106856
137296,106935
137346,106924
137424,106969
137441,106968
137475,106940
137589,107001
137643,107017
137666,107045
137719,107056
137771,107087
137834,107084
137912,107118
137972,107146
137974,107155
137944,107146
138072,107193
138100,107227
138099,107174
138137,107218
138099,107248
138143,107220
138110,107187
138089,107184
137966,107137
137938,107113
137832,107082
137741,106987
137577,106960
137364,106859
137210,106800
137011,106703
136806,106635
136529,106527
136307,106420
135982,106341
135745,106200
135500,106093
135224,106019
134919,105918
134655,105773
134507,105718
134315,105665
134114,105582
134006,105526
133799,105467
133781,105423
133681,105432
133614,105369
133489,105348
133422,105276
133406,105293
133299,105250
133284,105278
133196,105284
133117,105191
133103,105210
133117,105228
133055,105229
133015,105202
133046,105189
133119,105230
133178,105234
133247,105283
133254,105330
133300,105337
133442,105409
133497,105429
133578,105433
133677,105468
133718,105543
133837,105540
133936,105589
133987,105626
134019,105628
134107,105666
134168,105707
134288,105706
134350,105741
134382,105798
134520,105814
134682,105878
134717,105953
134821,105938
134854,105959
134999,106030
135111,106049
135149,106097
135223,106095
135280,106138
135348,106122
135459,106187
135541,106243
135542,106256
135576,106211
135692,106301
135728,106311
135761,106287
135806,106310
135770,106297
135829,106330
135882,106325
135869,106338
135898,106339
135840,106360
135858,106307
135936,106340
135902,106338
135869,106337
135897,106349
135869,106353
135907,106309
135942,106352
135860,106338
135871,106320
135900,106324
135935,106338
135874,106326
135897,106318
135892,106330
135901,106339
135947,106357
135918,106340
135927,106324
135946,106344
136003,106376
136009,106389
136005,106400
135992,106393
136068,106403
136137,106450
136172,106433
136252,106474
136279,106486
136257,106487
136371,106513
136400,106542
136430,106539
136474,106565
136506,106546
136627,106623
136669,106663
136749,106635
136811,106695
136907,106744
136972,106766
137114,106783
137115,106871
137168,106839
137216,106858
137287,106896
137340,106894
137373,106925
137348,106917
137411,106894
137381,106922
137487,106936
137453,106912
137475,106908
137464,106962
137483,106934
137553,106987
137536,106983
137573,106973
137541,106981
137658,106990
137682,107014
137682,107028
137673,107002
137712,107031
137813,107037
137871,107099
137852,107057
137857,107089
137899,107103
137989,107106
138011,107121
138076,107167
138026,107164
138036,107137
138086,107169
138056,107147
138026,107107
137942,107086
137844,107069
137801,106979
137701,106935
137498,106909
137307,106832
137178,106756
137002,106701
136798,106582
136557,106485
136300,106415
136005,106315
135803,106204
135510,106093
135168,106001
134870,105848
134660,105762
134444,105672
134230,105609
134013,105492
133840,105425
133659,105419
133564,105335
133480,105299
133344,105286
133243,105213
133178,105197
133152,105168
133120,105146
133094,105179
132942,105151
132956,105120
132980,105137
132921,105143
132882,105125
132849,105102
132954,105181
132964,105149
133010,105168
133067,105220
133083,105215
133215,105290
133339,105345
133413,105356
133537,105400
133600,105445
133740,105513
133837,105560
133976,105562
134071,105640
134160,105701
134319,105748
134419,105793
134489,105773
134595,105847
134640,105906
134753,105881
134826,105914
134879,105924
134949,105980
134996,106022
135124,106068
135241,106120
135341,106147
135427,106176
135572,106208
135657,106279
135786,106308
135857,106346
135889,106354
135989,106355
136046,106427
136080,106438
136164,106427
136182,106441
136182,106472
136260,106445
136268,106508
136234,106462
136211,106454
136259,106495
136270,106492
136297,106465
136324,106504
136282,106487
136307,106460
136330,106542
136375,106507
136399,106548
136341,106502
136396,106482
136435,106544
136436,106529
136434,106501
136419,106504
136380,106476
136436,106527
136405,106507
136376,106537
136324,106496
136401,106498
136424,106545
136417,106522
136458,106530
136436,106535
136462,106543
136500,106546
136537,106528
136577,106595
136577,106569
136596,106581
136666,106616
136682,106599
136757,106631
136773,106658
136835,106655
136898,106679
136936,106725
136936,106738
137010,106758
137029,106805
137097,106790
137166,106801
137187,106846
137165,106820
137208,106791
137312,106855
137281,106861
137323,106820
137293,106863
137301,106886
137358,106844
137405,106895
137369,106855
137390,106868
137429,106901
137513,106944
137501,106936
137570,106946
137562,106984
137593,106974
137659,107004
137723,107011
137780,107025
137817,107062
137859,107057
137934,107087
137967,107103
137965,107114
137986,107104
138072,107154
138126,107175
138100,107147
138151,107159
138091,107159
138032,107099
138048,107125
137974,107090
137844,107052
137648,106955
137567,106915
137414,106853
137229,106740
137016,106684
136788,106598
136573,106491
136323,106431
136081,106315
135866,106232
135555,106121
135377,106057
135158,105947
134921,105855
134718,105809
134525,105707
134411,105679
134278,105611
134132,105562
134037,105525
133928,105487
133875,105492
133838,105441
133794,105417
133756,105411
133693,105419
133685,105391
133703,105402
133695,105410
133645,105390
133610,105381
133647,105403
133669,105418
133642,105429
133678,105429
133660,105426
133770,105475
133828,105468
133885,105563
133964,105524
134007,105576
134068,105608
134202,105635
134259,105679
134328,105686
134366,105725
134495,105786
134561,105830
134603,105786
134630,105845
134722,105863
134790,105885
134858,105952
134867,105922
134933,105965
134985,105947
135115,106011
135157,106043
135202,106056
135279,106082
135269,106099
135389,106154
135434,106137
135501,106176
135502,106171
135576,106178
135610,106206
135647,106211
135663,106245
135664,106220
135691,106258
135706,106215
135684,106200
135721,106243
135676,106222
135613,106204
135656,106182
135639,106207
135557,106182
135484,106160
135483,106127
135456,106142
135414,106096
135371,106083
135334,106082
135305,106065
135246,106043
135227,106032
135258,105978
135203,106012
135196,105990
135258,106029
135261,106062
135265,106028
135295,106048
135293,106072
135388,106105
135483,106122
135476,106154
135516,106158
135570,106169
135674,106174
135717,106224
135726,106244
135774,106245
135816,106290
135880,106298
135945,106312
135972,106311
135952,106326
136018,106378
136084,106365
136136,106358
136147,106407
136178,106410
136258,106422
136353,106470
136369,106459
136390,106514
136414,106521
136490,106543
136616,106552
136686,106592
136699,106593
136740,106625
136846,106674
136919,106685
136983,106741
137022,106700
137055,106772
137142,106771
137203,106828
137268,106822
137260,106857
137274,106835
137320,106837
137400,106887
137446,106879
137472,106927
137472,106961
137553,106937
137634,106966
137687,106963
137676,107013
137646,107010
137742,106990
137777,107015
137778,106994
137705,106998
137594,106916
137553,106900
137441,106884
137295,106781
137114,106749
136964,106649
136789,106578
136633,106504
136344,106446
136107,106313
135823,106223
135657,106121
135389,106014
135069,105924
134836,105799
134614,105758
134413,105641
134256,105595
134109,105534
133885,105470
133785,105380
133736,105415
133657,105328
133574,105312
133469,105325
133407,105252
133430,105280
133349,105260
133295,105208
133223,105202
133204,105200
133158,105205
133203,105174
133180,105216
133171,105190
133192,105246
133236,105247
133341,105259
133364,105334
133418,105314
133470,105335
133634,105413
133652,105443
133726,105462
133794,105457
133882,105532
134030,105560
134089,105599
134144,105643
134197,105646
134283,105660
134431,105770
134483,105748
134601,105827
134667,105833
134782,105857
134943,105934
135017,105942
135070,106002
135182,106020
135256,106086
135373,106086
135441,106105
135523,106153
135501,106159
135545,106177
135655,106207
135698,106201
135666,106230
135700,106196
135739,106215
135765,106205
135744,106236
135687,106193
135715,106209
135681,106193
135715,106212
135697,106191
135671,106187
135592,106143
135620,106136
135645,106144
135596,106143
135541,106111
135533,106117
135471,106101
135504,106089
135477,106061
135476,106090
135411,106064
135397,106093
135443,106040
135419,106050
135389,106065
135374,106036
135363,106039
135410,106041
135418,106045
135387,106063
135403,106073
135459,106097
135479,106093
135513,106054
135470,106127
135472,106092
135553,106156
135641,106160
135617,106175
135630,106163
135679,106165
135695,106183
135769,106190
135807,106240
135801,106238
135864,106229
135951,106298
135987,106299
136021,106295
136081,106319
136050,106330
136199,106375
136238,106444
136258,106388
136275,106414
136302,106434
136423,106469
136453,106491
136445,106484
136509,106514
136527,106515
136566,106549
136634,106520
136677,106576
136661,106538
136710,106599
136741,106571
136757,106626
136797,106595
136868,106662
136816,106632
136916,106643
136991,106681
137022,106702
137025,106666
137093,106729
137174,106759
137183,106784
137212,106741
137216,106787
137226,106783
137292,106781
137315,106770
137355,106808
137291,106769
137264,106783
137238,106765
137133,106717
137072,106674
136926,106631
136770,106569
136681,106527
136530,106456
136235,106314
136048,106256
135822,106180
135576,106050
135327,105962
135035,105827
134740,105739
134455,105653
134205,105530
133968,105421
133686,105352
133430,105233
133287,105138
133166,105131
132985,105048
132897,105005
132753,104951
132638,104956
132571,104868
132506,104862
132423,104855
132331,104814
132324,104846
132323,104819
132354,104837
132367,104871
132367,104879
132449,104887
132574,104973
132624,104986
132716,104981
132810,105046
132882,105108
132966,105109
133088,105153
133155,105212
133205,105251
133291,105237
133413,105276
133521,105325
133588,105364
133651,105398
133736,105417
133884,105472
133967,105515
134024,105548
134114,105578
134265,105639
134378,105645
134476,105717
134530,105739
134578,105762
134694,105804
134789,105829
134882,105839
134925,105906
134967,105904
135064,105922
135130,105937
135176,105958
135224,106013
135211,105990
135284,105997
135295,106044
135347,106019
135333,106014
135312,106023
135321,106047
135334,105998
135335,105998
135247,105987
135249,106000
135244,105999
135231,105976
135220,105976
135169,105969
135146,105942
135137,105964
135155,105907
135168,105928
135092,105910
135081,105939
135111,105910
135157,105905
135124,105927
135080,105912
135117,105911
135130,105921
135173,105916
135138,105935
135085,105882
135137,105921
135202,105964
135207,105943
135186,105957
135242,105973
135223,105960
135312,105985
135302,106011
135327,106004
135329,105975
135348,105993
135404,106066
135437,106021
135498,106064
135465,106091
135514,106069
135610,106118
135623,106133
135654,106121
135685,106114
135719,106148
135776,106175
135842,106211
135887,106204
135858,106227
135900,106259
136010,106264
136059,106278
136058,106291
136100,106318
136168,106316
136258,106380
136322,106387
136358,106429
136439,106442
136453,106471
136604,106500
136663,106537
136680,106546
136691,106558
136792,106599
136871,106619
136944,106643
137022,106667
137014,106697
137096,106722
137223,106756
137265,106774
137290,106783
137309,106764
137400,106838
137475,106830
137514,106877
137498,106874
137488,106852
137474,106839
137533,106831
137471,106829
137356,106792
137256,106707
137137,106685
136983,106606
136839,106531
136667,106449
136412,106384
136176,106285
135964,106194
135675,106090
135430,105983
135095,105878
134806,105732
134608,105647
134308,105519
134074,105456
133782,105335
133631,105248
133479,105240
133329,105163
133166,105108
133005,105009
132944,105006
132879,104964
132725,104918
132649,104891
132550,104871
132497,104814
132469,104839
132377,104810
132342,104801
132239,104787
132304,104782
132317,104803
132379,104820
132440,104852
132492,104873
132613,104942
132740,104984
132808,105016
132871,105048
132963,105072
133126,105130
133211,105182
133355,105217
133421,105229
133528,105297
133651,105371
133790,105384
133822,105424
133915,105442
134011,105522
134107,105523
134244,105609
134300,105591
134353,105627
134454,105652
134560,105728
134620,105712
134680,105759
134762,105781
134791,105818
134888,105820
134968,105883
134977,105850
135034,105909
135036,105913
135136,105879
135182,105926
135149,105930
135168,105910
135205,105927
135217,105930
135208,105955
135188,105911
135198,105904
135180,105913
135164,105929
135157,105892
135172,105918
135111,105883
135079,105890
135105,105902
135043,105892
134966,105820
134974,105816
134940,105777
134943,105810
134909,105781
134915,105790
134819,105759
134834,105754
134870,105786
134876,105774
134810,105758
134824,105748
134812,105783
134837,105737
134838,105768
134800,105745
134800,105754
134832,105816
134876,105785
134874,105808
134929,105794
134895,105818
134953,105818
135035,105833
135082,105870
135102,105886
135081,105908
135165,105924
135195,105939
135264,105919
135297,105955
135291,105941
135332,106008
135408,105999
135443,106005
135454,106037
135449,106000
135505,106054
135576,106043
135583,106055
135642,106114
135676,106095
135757,106128
135822,106163
135870,106173
135918,106213
135901,106225
135974,106212
136069,106247
136075,106267
136106,106264
136093,106265
136195,106326
136167,106290
136249,106297
136270,106346
136266,106305
136376,106376
136406,106367
136488,106406
136450,106446
136517,106454
136596,106491
136696,106493
136713,106510
136751,106559
136778,106549
136884,106567
136981,106588
136969,106607
136973,106620
136930,106568
136919,106561
136889,106584
136783,106514
136665,106446
136510,106401
136352,106370
136170,106234
135981,106183
135687,106060
135442,105958
135219,105868
134939,105762
134653,105607
134359,105527
134055,105405
133820,105318
133544,105209
133300,105088
133037,105024
132812,104891
132657,104842
132489,104710
132340,104701
132173,104677
132034,104590
131921,104564
131880,104532
131744,104480
131643,104494
131576,104436
131618,104425
131589,104449
131561,104442
131601,104487
131612,104495
131732,104493
131815,104586
131895,104583
131937,104599
132024,104654
132205,104695
132250,104755
132314,104777
132442,104839
132513,104838
132652,104908
132727,104921
132822,104942
132948,105052
133028,105052
133193,105111
133265,105139
133439,105201
133478,105276
133610,105267
133766,105334
133880,105414
133954,105432
134064,105465
134199,105512
134283,105563
134336,105568
134429,105623
134456,105604
134534,105656
134571,105676
134626,105684
134660,105647
134660,105669
134625,105698
134687,105702
134691,105689
134721,105704
134619,105675
134656,105663
134684,105683
134668,105663
134676,105689
134573,105639
134619,105654
134604,105655
134622,105631
134579,105646
134503,105608
134565,105613
134530,105602
134523,105594
134525,105602
134467,105611
134465,105606
134523,105584
134495,105583
134439,105600
134445,105577
134461,105573
134438,105576
134470,105563
134450,105579
134415,105542
134471,105590
134462,105620
134487,105595
134513,105588
134527,105596
134571,105643
134632,105622
134646,105662
134660,105673
134698,105663
134781,105715
134766,105745
134821,105712
134887,105750
134855,105755
134982,105789
135016,105819
135059,105855
135130,105832
135155,105860
135246,105919
135284,105912
135367,105960
135367,105939
135435,105997
135499,106017
135580,106043
135575,106036
135630,106019
135635,106078
135728,106068
135728,106084
135743,106087
135785,106110
135767,106139
135883,106141
135907,106157
135905,106152
135964,106165
135992,106183
136062,106217
136103,106212
136114,106252
136178,106249
136222,106278
136311,106331
136381,106334
136431,106353
136432,106369
136441,106385
136484,106359
136539,106403
136565,106407
136523,106404
136473,106376
136476,106345
136444,106331
136313,106276
136225,106256
136087,106170
135996,106160
135761,106033
135572,105945
135313,105882
135101,105792
134864,105713
134614,105571
134325,105470
134045,105390
133753,105237
133561,105157
133285,105040
133106,104987
132839,104903
132682,104791
132583,104787
132458,104686
132318,104681
132192,104617
132082,104592
131983,104548
131900,104518
131839,104494
131736,104455
131732,104448
131733,104490
131717,104454
131717,104484
131778,104516
131868,104539
131931,104607
132001,104587
132113,104623
132130,104670
132256,104702
132372,104732
132442,104783
132520,104822
132542,104820
132694,104859
132784,104926
132857,104921
132946,104990
133021,105009
133125,105074
133278,105125
133372,105194
133469,105207
133608,105257
133740,105310
133900,105322
134013,105399
134110,105450
134169,105461
134310,105508
134379,105570
134488,105552
134579,105623
134564,105629
134652,105650
134721,105661
134753,105695
134818,105693
134805,105720
134836,105727
134879,105721
134868,105702
134876,105707
134862,105706
134888,105702
134899,105720
134882,105714
134843,105698
134824,105676
134866,105678
134840,105696
134825,105671
134792,105664
134744,105676
134792,105658
134746,105646
134761,105646
134712,105648
134718,105619
134715,105662
134703,105617
134745,105621
134719,105620
134690,105629
134734,105638
134740,105607
134761,105658
134724,105660
134759,105660
134776,105654
134802,105650
134828,105653
134824,105702
134853,105689
134913,105735
134934,105739
134943,105708
134997,105745
134988,105754
135065,105776
135140,105777
135119,105823
135126,105804
135171,105846
135227,105844
135264,105844
135294,105870
135297,105860
135364,105893
135454,105950
135458,105912
135502,105963
135582,105996
135594,105984
135717,106041
135669,106032
135734,106038
135782,106091
135826,106082
135850,106093
135921,106141
135914,106125
135974,106122
135984,106157
136074,106164
136036,106163
136090,106152
136065,106204
136134,106180
136160,106191
136184,106211
136144,106230
136108,106175
136084,106197
136119,106200
136079,106163
136074,106197
136085,106149
136138,106209
136249,106255
136245,106247
136284,106252
136272,106295
136330,106318
136425,106304
136445,106338
136407,106310
136384,106298
136344,106273
136353,106231
136213,106217
136064,106146
135925,106101
135742,106020
135603,105945
135373,105878
135161,105757
134875,105702
134614,105574
134417,105501
134171,105361
133924,105271
133678,105186
133500,105120
133289,105062
133128,104970
132954,104894
132753,104836
132628,104794
132565,104724
132478,104727
132341,104662
132257,104621
132180,104585
132131,104598
132017,104541
131926,104495
131863,104511
131841,104510
131839,104490
131806,104510
131859,104507
131880,104544
131966,104583
132034,104598
132135,104640
132212,104669
132271,104723
132392,104743
132499,104797
132584,104816
132677,104834
132724,104892
132877,104922
133004,104979
133074,105014
133161,105066
133227,105059
133353,105112
133441,105179
133531,105178
133610,105216
133668,105257
133823,105290
133916,105329
133979,105372
133979,105373
134103,105391
134212,105468
134257,105476
134268,105482
134311,105471
134401,105539
134460,105527
134516,105589
134518,105557
134549,105563
134544,105603
134614,105594
134623,105634
134637,105609
134629,105611
134658,105606
134715,105626
134647,105601
134649,105611
134625,105580
134629,105598
134669,105576
134614,105623
134608,105577
134600,105599
134596,105557
134641,105584
134640,105577
134632,105581
134593,105584
134587,105606
134638,105590
134633,105612
134608,105586
134612,105572
134607,105603
134671,105607
134659,105616
134639,105603
134643,105555
134667,105642
134704,105625
134671,105605
134749,105633
134753,105659
134773,105643
134802,105651
134888,105695
134893,105721
134884,105746
134919,105728
134994,105724
135089,105780
135073,105775
135086,105794
135202,105794
135230,105845
135244,105833
135291,105843
135309,105886
135365,105885
135445,105907
135442,105900
135515,105929
135517,105959
135558,105943
135649,105992
135688,106021
135691,106021
135751,106039
135851,106070
135862,106076
135931,106092
135932,106131
135944,106091
136045,106151
136084,106189
136096,106160
136140,106165
136120,106208
136203,106211
136208,106219
136276,106236
136250,106235
136255,106259
136326,106246
136331,106251
136381,106285
136405,106297
136428,106274
136502,106316
136494,106331
136536,106335
136573,106348
136555,106343
136628,106368
136671,106383
136673,106382
136697,106385
136668,106424
136646,106378
136633,106333
136522,106308
136446,106259
136274,106217
136153,106148
136018,106073
135815,106018
135609,105898
135329,105836
135147,105739
134910,105657
134608,105545
134330,105455
134114,105345
133871,105261
133717,105167
133461,105119
133256,104992
133139,104984
133036,104926
132948,104867
132807,104837
132758,104853
132660,104742
132658,104788
132597,104713
132540,104762
132528,104718
132457,104708
132448,104699
132462,104720
132438,104710
132400,104717
132425,104702
132488,104744
132490,104725
132536,104755
132596,104799
132626,104820
132728,104850
132842,104893
132875,104906
132944,104903
132973,104963
133091,105006
133151,105000
133193,105027
133232,105035
133286,105085
133338,105096
133419,105110
133433,105131
133426,105140
133520,105173
133587,105161
133567,105166
133652,105222
133681,105211
133739,105270
133859,105291
133891,105320
134010,105361
134022,105387
134118,105388
134205,105423
134275,105480
134348,105478
134321,105473
134394,105509
134465,105521
134527,105556
134512,105565
134493,105605
134534,105563
134589,105561
134593,105582
134565,105584
134538,105580
134614,105570
134601,105592
134594,105543
134558,105545
134582,105559
134570,105588
134569,105534
134574,105570
134545,105543
134494,105557
134502,105521
134552,105514
134487,105541
134459,105503
134482,105492
134512,105513
134531,105501
134503,105504
134518,105546
134540,105551
134555,105576
134573,105542
134624,105562
134620,105580
134627,105616
134727,105612
134816,105638
134787,105680
134852,105672
134859,105687
134972,105732
134967,105763
135029,105722
135054,105766
135063,105778
135143,105800
135200,105788
135191,105836
135229,105824
135265,105838
135350,105854
135392,105905
135383,105881
135405,105898
135479,105912
135534,105941
135546,105985
135583,105977
135610,105963
135644,106012
135755,106027
135755,106073
135816,106041
135816,106083
135894,106101
135923,106126
135974,106078
136027,106142
136053,106137
136070,106157
136156,106162
136155,106223
136214,106179
136246,106208
136232,106210
136303,106239
136312,106265
136357,106247
136327,106258
136365,106274
136378,106297
136395,106274
136484,106334
136427,106315
136472,106290
136516,106314
136538,106358
136544,106311
136506,106303
136525,106308
136533,106345
136466,106285
136414,106251
136306,106222
136216,106170
136119,106134
136002,106078
135792,105990
135571,105915
135392,105829
135133,105730
134922,105632
134641,105533
134325,105416
134107,105330
133906,105220
133588,105134
133389,105059
133159,104952
132962,104890
132872,104836
132697,104784
132571,104721
132438,104654
132367,104623
132294,104599
132254,104592
132139,104551
132049,104513
132002,104498
131923,104488
131904,104449
131823,104436
131792,104445
131840,104444
131874,104488
131883,104473
131944,104514
132014,104526
132119,104578
132246,104637
132260,104629
132325,104672
132453,104741
132502,104756
132608,104796
132646,104802
132716,104838
132767,104825
132914,104915
132972,104963
133059,104940
133108,104968
133205,105053
133273,105052
133382,105087
133472,105156
133537,105128
133540,105205
133680,105204
133810,105243
133819,105287
133863,105311
133948,105317
134027,105351
134069,105381
134121,105346
134128,105380
134176,105383
134219,105434
134206,105414
134239,105396
134227,105417
134231,105416
134233,105427
134241,105434
134213,105412
134200,105402
134182,105368
134246,105405
134199,105409
134160,105344
134138,105348
134062,105396
134128,105349
134154,105354
134115,105370
134121,105354
134096,105351
134152,105375
134085,105341
134151,105398
134091,105340
134100,105376
134132,105406
134141,105363
134192,105428
134164,105401
134176,105410
134241,105420
134230,105434
134217,105372
134237,105396
134239,105412
134293,105433
134314,105436
134320,105414
134332,105449
134366,105461
134443,105489
134479,105507
134475,105524
134518,105520
134621,105557
134685,105608
134781,105630
134810,105637
134830,105658
134890,105714
134929,105707
134988,105687
135066,105756
135031,105757
135111,105757
135168,105793
135223,105796
135244,105841
135228,105831
135319,105846
135387,105859
135404,105870
135436,105910
135424,105895
135492,105915
135576,105945
135563,105940
135622,105965
135626,105967
135654,105968
135719,105976
135769,105994
135785,106047
135783,106048
135869,106080
135894,106089
135918,106066
135967,106110
135953,106113
136046,106124
136076,106124
136080,106147
136113,106120
136079,106136
136174,106175
136179,106173
136238,106197
136197,106202
136170,106169
136225,106176
136241,106166
136144,106169
136075,106115
135946,106098
135847,106021
135730,105968
135581,105896
135353,105841
135104,105727
134937,105631
134742,105570
134458,105416
134182,105331
133887,105235
133627,105135
133455,105042
133175,104951
132962,104872
132735,104771
132623,104711
132443,104671
132265,104572
132146,104535
131988,104508
131915,104424
131810,104413
131637,104337
131570,104303
131486,104313
131442,104265
131383,104247
131358,104225
131359,104231
131368,104282
131479,104283
131549,104313
131570,104394
131630,104396
131722,104408
131861,104473
131971,104530
132038,104568
132125,104596
132202,104624
132350,104663
132455,104724
132516,104724
132604,104769
132664,104808
132802,104848
132913,104926
132948,104921
133028,104941
133135,104980
133242,105050
133294,105063
133393,105142
133438,105135
133571,105158
133644,105189
133682,105213
133756,105251
133765,105252
133820,105236
133903,105269
133915,105271
133942,105276
133957,105314
133931,105336
134002,105310
134003,105319
134023,105326
133983,105302
133962,105346
133978,105302
133956,105277
133935,105304
133908,105295
133891,105256
133865,105261
133810,105232
133801,105241
133734,105220
133715,105186
133708,105157
133684,105182
133607,105142
133563,105123
133610,105113
133580,105118
133608,105154
133566,105134
133542,105117
133613,105175
133614,105166
133570,105159
133627,105154
133574,105178
133615,105141
133693,105182
133670,105162
133647,105191
133711,105204
133765,105246
133832,105209
133796,105259
133862,105265
133845,105250
133922,105256
133994,105315
134022,105313
133991,105291
134020,105350
134088,105336
134182,105390
134169,105404
134231,105364
134268,105434
134309,105444
134361,105467
134436,105449
134461,105490
134415,105490
134531,105517
134566,105526
134608,105559
134638,105536
134597,105549
134715,105609
134708,105612
134738,105635
134758,105644
134770,105619
134826,105645
134861,105644
134932,105654
134901,105669
134924,105672
135029,105737
135064,105751
135066,105711
135129,105742
135118,105773
135189,105800
135250,105807
135283,105787
135324,105841
135347,105875
135447,105886
135429,105897
135498,105896
135509,105880
135508,105908
135591,105928
135564,105930
135571,105915
135501,105926
135467,105877
135490,105871
135382,105866
135284,105787
135097,105707
134939,105627
134798,105592
134572,105500
134301,105375
134029,105301
133757,105166
133526,105083
133239,104976
132944,104804
132655,104727
132369,104618
132160,104508
131948,104434
131688,104332
131490,104247
131249,104210
131101,104119
130941,104044
130831,103991
130664,103964
130582,103890
130538,103933
130474,103899
130506,103870
130494,103899
130529,103940
130581,103950
130658,103971
130751,103966
130827,104012
130943,104103
131033,104113
131162,104137
131244,104237
131333,104262
131436,104299
131577,104342
131661,104404
131690,104401
131798,104457
131875,104483
131994,104526
132046,104532
132158,104602
132202,104625
132308,104646
132402,104677
132466,104721
132569,104727
132663,104787
132739,104856
132858,104862
132928,104896
133089,104927
133117,104986
133213,104997
133367,105050
133410,105083
133439,105129
133498,105113
133573,105160
133623,105148
133710,105178
133672,105197
133712,105198
133710,105217
133749,105195
133751,105218
133704,105168
133674,105191
133697,105162
133684,105167
133671,105124
133609,105160
133551,105122
133559,105109
133544,105108
133566,105101
133502,105102
133405,105088
133442,105052
133405,105047
133395,105017
133335,105006
133340,105024
133278,105034
133277,104977
133253,105010
133277,104989
133207,104989
133238,104957
133273,105006
133253,104987
133275,104995
133280,104981
133287,105019
133368,105025
133399,105027
133397,105072
133438,105099
133482,105113
133568,105147
133607,105133
133605,105152
133674,105187
133775,105202
133786,105223
133893,105240
133870,105230
133951,105291
134045,105302
134082,105337
134094,105348
134151,105370
134191,105377
134288,105417
134311,105434
134355,105434
134389,105464
134445,105476
134468,105473
134546,105519
134586,105496
134636,105529
134641,105589
134728,105571
134742,105612
134796,105572
134771,105633
134877,105657
134929,105659
134999,105669
135031,105716
135053,105722
135087,105733
135215,105780
135222,105808
135252,105766
135284,105790
135355,105845
135406,105863
135470,105872
135514,105894
135545,105906
135572,105956
135683,105945
135734,105965
135769,105998
135752,106025
135812,106012
135939,106100
135951,106073
135983,106064
135974,106087
136068,106088
136059,106136
136044,106106
136039,106116
135935,106086
135895,106065
135831,105994
135690,105930
135546,105881
135296,105780
135158,105710
134946,105605
134716,105556
134449,105432
134142,105330
133906,105211
133648,105099
133383,105012
133072,104877
132829,104759
132686,104728
132476,104614
132310,104560
132146,104507
131931,104443
131835,104357
131713,104330
131610,104266
131445,104244
131302,104229
131239,104133
131202,104151
131148,104122
131071,104110
131107,104143
131178,104151
131206,104185
131291,104226
131343,104224
131379,104277
131548,104334
131602,104336
131686,104387
131773,104438
131836,104450
131958,104491
132062,104538
132115,104560
132160,104580
132271,104625
132408,104661
132466,104704
132600,104754
132651,104786
132746,104819
132863,104876
133013,104914
133098,104961
133149,104992
133272,105038
133412,105087
133484,105106
133571,105141
133640,105183
133758,105227
133828,105252
133917,105271
133957,105306
133988,105322
134042,105340
134113,105372
134190,105368
134137,105370
134177,105390
134211,105388
134230,105392
134241,105389
134283,105374
134236,105364
134217,105399
134291,105398
134245,105392
134236,105396
134165,105360
134200,105363
134197,105353
134159,105333
134110,105327
134040,105314
134055,105337
134092,105336
134009,105293
134032,105275
133983,105274
133953,105250
133997,105282
133992,105261
133941,105256
133935,105268
133961,105277
133989,105283
134035,105299
134002,105284
134012,105314
134086,105336
134102,105342
134158,105372
134184,105358
134159,105359
134221,105388
134309,105406
134320,105438
134353,105442
134358,105442
134430,105477
134481,105496
134535,105505
134585,105539
134610,105534
134639,105560
134714,105594
134790,105597
134788,105604
134831,105655
134872,105651
134929,105685
134981,105688
135000,105681
135056,105743
135098,105734
135167,105777
135184,105765
135179,105760
135245,105801
135324,105836
135393,105843
135409,105881
135466,105889
135499,105884
135563,105892
135627,105944
135653,105959
135715,105988
135748,105993
135778,106036
135888,106052
135932,106074
135925,106054
135985,106056
136027,106100
136097,106126
136104,106138
136113,106158
136166,106176
136203,106187
136250,106181
136236,106174
136291,106202
136330,106187
136332,106216
136414,106238
136383,106250
136411,106235
136419,106234
136366,106245
136373,106209
136284,106181
136185,106129
136016,106098
135930,106032
135768,105951
135573,105896
135317,105785
135080,105684
134866,105598
134577,105460
134273,105360
133995,105225
133683,105147
133459,105023
133152,104899
132916,104799
132674,104715
132444,104628
132337,104577
132152,104522
132020,104458
131843,104401
131750,104325
131695,104330
131577,104275
131497,104247
131340,104220
131310,104219
131288,104192
131281,104203
131266,104204
131295,104236
131363,104260
131428,104296
131518,104331
131589,104364
131636,104355
131763,104435
131861,104468
131954,104491
132017,104506
132135,104575
132219,104595
132300,104660
132396,104659
132483,104725
132579,104732
132629,104787
132789,104827
132851,104855
132931,104895
132987,104927
133069,104961
133194,105028
133287,105029
133333,105062
133406,105085
133505,105138
133618,105162
133638,105191
133753,105216
133759,105250
133878,105262
133903,105275
134004,105333
134029,105317
134036,105334
134110,105369
134156,105377
134189,105391
134173,105361
134192,105393
134186,105401
134180,105387
134202,105354
134193,105376
134133,105352
134150,105365
134101,105366
134120,105330
134055,105309
134032,105313
133992,105286
133995,105277
133904,105268
133849,105226
133801,105194
133830,105187
133737,105194
133747,105179
133684,105149
133630,105124
133688,105144
133646,105172
133616,105135
133628,105117
133576,105140
133626,105135
133636,105150
133619,105164
133640,105151
133652,105146
133673,105176
133708,105194
133706,105168
133793,105212
133801,105218
133845,105267
133919,105249
133985,105297
133967,105306
134033,105354
134132,105393
134221,105372
134266,105392
134335,105429
134341,105453
134465,105464
134487,105519
134535,105503
134554,105530
134648,105547
134671,105573
134748,105588
134781,105606
134772,105626
134836,105669
134931,105678
134964,105709
134984,105708
135049,105695
135126,105715
135184,105775
135226,105772
135280,105786
135330,105855
135381,105848
135436,105874
135531,105884
135532,105914
135559,105892
135610,105947
135671,105958
135666,105960
135709,105961
135696,105972
135744,106010
135784,105993
135810,105989
135834,106044
135796,106001
135820,106019
135890,106065
135911,106043
135911,106060
135955,106096
135973,106076
136041,106105
136063,106126
136087,106126
136075,106105
136118,106128
136116,106129
136035,106089
136025,106087
135874,106015
135767,105997
135665,105933
135502,105851
135262,105757
135051,105677
134828,105577
134567,105490
134270,105368
134013,105249
133701,105129
133449,105006
133197,104948
132916,104816
132654,104708
132435,104605
132216,104566
132065,104419
131897,104383
131761,104307
131580,104287
131416,104232
131310,104154
131180,104120
131094,104094
130933,104069
130954,104047
130927,104066
130946,104056
130934,104092
130946,104097
131051,104101
131093,104121
131136,104178
131205,104167
131257,104244
131336,104270
131486,104325
131563,104346
131591,104365
131685,104390
131780,104424
131875,104488
131948,104494
132032,104507
132124,104554
132275,104608
132336,104650
132487,104688
132536,104757
132641,104778
132790,104846
132891,104907
132984,104936
133056,104898
133108,104976
133257,105032
133349,105069
133432,105099
133455,105074
133551,105167
133661,105178
133705,105197
133757,105207
133796,105221
133809,105221
133878,105241
133876,105254
133894,105234
133868,105223
133859,105248
133930,105264
133893,105224
133874,105228
133835,105251
133779,105217
133783,105200
133794,105201
133747,105190
133666,105136
133627,105152
133651,105135
133629,105091
133561,105123
133487,105084
133478,105093
133456,105064
133459,105059
133448,105063
133375,105047
133370,105040
133409,105031
133397,105058
133390,105052
133369,105056
133353,105041
133410,105020
133438,105079
133425,105062
133422,105062
133491,105082
133540,105105
133525,105076
133555,105115
133571,105118
133608,105143
133697,105156
133675,105182
133718,105180
133752,105205
133815,105201
133878,105257
133905,105243
133921,105267
133949,105307
133981,105298
134061,105296
134098,105351
134103,105337
134132,105357
134203,105359
134314,105409
134302,105415
134319,105435
134322,105419
134455,105461
134452,105517
134517,105513
134550,105514
134578,105544
134684,105566
134695,105592
134770,105591
134787,105616
134824,105629
134896,105669
134961,105658
135029,105722
135016,105710
135021,105689
135086,105743
135117,105765
135145,105730
135205,105739
135178,105803
135242,105794
135322,105809
135302,105794
135351,105801
135338,105868
135388,105848
135443,105867
135418,105817
135375,105840
135364,105785
135332,105821
135219,105745
135114,105703
134908,105630
134756,105557
134647,105489
134396,105424
134179,105294
133875,105203
133639,105107
133389,104999
133143,104878
132858,104755
132593,104668
132308,104585
132113,104476
131866,104413
131628,104291
131449,104200
131242,104164
131087,104076
130961,104024
130815,103965
130633,103942
130577,103882
130552,103893
130561,103877
130529,103878
130529,103875
130583,103904
130710,103974
130725,103979
130757,104006
130888,104039
130976,104107
131069,104138
131197,104157
131321,104196
131357,104267
131504,104281
131585,104382
131685,104371
131793,104383
131849,104432
131973,104506
132066,104506
132117,104568
132206,104602
132257,104595
132363,104628
132481,104689
132561,104729
132682,104760
132779,104784
132876,104864
132945,104915
133061,104885
133107,104938
133181,104982
133248,105015
133319,105001
133437,105101
133476,105094
133519,105110
133598,105098
133625,105176
133615,105130
133679,105155
133623,105149
133675,105148
133694,105188
133705,105141
133701,105179
133689,105135
133661,105164
133683,105160
133653,105090
133651,105111
133573,105125
133579,105133
133572,105090
133554,105075
133534,105080
133473,105076
133457,105051
133491,105033
133425,105058
133396,105025
133365,105009
133317,105021
133378,105012
133349,104981
133277,104978
133284,104989
133318,104985
133304,104979
133301,104980
133281,104988
133288,105017
133309,104999
133363,105011
133393,105021
133385,105020
133366,105019
133469,105034
133479,105058
133505,105067
133504,105094
133546,105087
133577,105120
133655,105111
133710,105145
133697,105154
133755,105186
133821,105184
133935,105222
133944,105247
133995,105287
133999,105295
134079,105315
134202,105303
134180,105366
134240,105368
134254,105371
134393,105424
134396,105418
134437,105448
134437,105459
134533,105496
134562,105518
134626,105503
134661,105531
134666,105564
134708,105513
134763,105608
134762,105597
134789,105596
134833,105570
134852,105650
134908,105651
134948,105651
134965,105641
135056,105684
135031,105701
135127,105741
135171,105757
135220,105722
135277,105784
135318,105766
135427,105794
135441,105841
135466,105832
135515,105872
135546,105867
135621,105931
135574,105896
135615,105919
135545,105901
135522,105867
135459,105836
135375,105746
135224,105711
135058,105678
134848,105567
134647,105507
134449,105394
134180,105267
133833,105187
133551,105036
133334,104939
132979,104808
132656,104692
132361,104563
132110,104450
131909,104380
131618,104257
131399,104176
131151,104062
130955,103982
130790,103907
130569,103862
130446,103834
130247,103756
130202,103687
130179,103704
130119,103706
130121,103701
130134,103703
130212,103725
130296,103790
130321,103764
130435,103811
130480,103860
130608,103921
130704,103922
130795,104023
130908,104008
130989,104055
131152,104132
131219,104193
131296,104186
131408,104234
131464,104251
131620,104310
131729,104347
131767,104394
131839,104383
131897,104453
131997,104482
132146,104483
132182,104571
132259,104588
132362,104616
132482,104660
132618,104709
132724,104797
132816,104804
132900,104837
133065,104873
133115,104949
133229,104944
133252,104984
133306,105021
133384,105017
133421,105054
133508,105050
133474,105055
133502,105037
133564,105054
133547,105090
133567,105079
133543,105064
133499,105057
133502,105044
133530,105024
133490,105057
133400,105034
133414,105036
133397,104995
133417,104989
133348,104971
133297,104946
133290,104935
133278,104964
133219,104949
133250,104929
133157,104918
133137,104886
133122,104886
133144,104896
133126,104871
133112,104884
133066,104890
133164,104895
133127,104851
133126,104894
133146,104887
133138,104918
133174,104925
133257,104948
133237,104933
133230,104949
133272,104977
133281,104974
133368,104976
133384,104997
133360,105012
133399,104994
133498,105040
133505,105080
133547,105069
133549,105076
133622,105107
133661,105137
133682,105113
133728,105157
133772,105148
133812,105184
133881,105194
133920,105233
133897,105187
133910,105220
133930,105258
134060,105256
134135,105307
134148,105303
134223,105359
134286,105357
134365,105392
134448,105448
134510,105472
134514,105464
134622,105507
134690,105534
134761,105527
134819,105576
134834,105597
134923,105649
134988,105646
135062,105673
135121,105675
135154,105723
135228,105753
135275,105766
135353,105759
135336,105771
135403,105832
135499,105851
135510,105867
135595,105869
135612,105909
135617,105902
135691,105941
135718,105924
135744,105930
135770,105932
135814,105958
135794,105935
135821,105960
135775,105908
135692,105897
135582,105870
135519,105813
135357,105753
135221,105679
134962,105609
134742,105510
134616,105428
134358,105346
134112,105216
133819,105111
133531,105005
133344,104942
133075,104861
132853,104752
132584,104651
132379,104516
132211,104483
132097,104434
131895,104353
131737,104285
131661,104272
131560,104190
131435,104171
131384,104126
131253,104111
131157,104076
131115,104077
131118,104061
131081,104086
131111,104067
131112,104111
131190,104130
131286,104151
131336,104201
131367,104207
131478,104226
131580,104267
131721,104309
131794,104376
131852,104389
131987,104456
132100,104486
132161,104534
132286,104558
132376,104612
132441,104642
132566,104686
132637,104713
132746,104736
132814,104769
132890,104842
133021,104879
133115,104903
133164,104942
133244,104976
133350,105007
133459,105037
133546,105100
133617,105110
133665,105106
133780,105180
133876,105195
133908,105225
133955,105234
133981,105268
134053,105246
134144,105301
134126,105320
134176,105287
134159,105310
134177,105320
134217,105333
134262,105292
134266,105352
134211,105350
134230,105312
134269,105322
134248,105341
134183,105319
134174,105302
134156,105318
134194,105299
134177,105292
134141,105291
134068,105243
134117,105263
134145,105261
134067,105260
134082,105232
134060,105252
134043,105243
134075,105252
134089,105232
134098,105259
134077,105272
134107,105233
134169,105257
134171,105288
134178,105299
134196,105293
134261,105352
134307,105345
134334,105348
134375,105352
134357,105373
134463,105402
134491,105402
134524,105419
134544,105463
134531,105455
134626,105439
134686,105487
134703,105498
134731,105534
134742,105523
134831,105562
134865,105554
134922,105544
134944,105605
134946,105638
135076,105644
135103,105672
135146,105664
135172,105691
135248,105725
135257,105729
135382,105742
135426,105774
135413,105803
135445,105778
135534,105837
135527,105820
135580,105847
135638,105851
135606,105860
135704,105878
135735,105901
135763,105945
135765,105904
135854,105928
135880,105983
135936,105953
135966,106019
135974,106014
136020,105997
136074,106072
136137,106065
136153,106049
136143,106087
136196,106080
136215,106093
136255,106122
136290,106131
136295,106104
136277,106139
136363,106167
136378,106144
136395,106175
136410,106166
136432,106172
136445,106189
136443,106171
136369,106122
136306,106110
136252,106082
136133,106058
136035,105988
135872,105907
135721,105845
135487,105781
135350,105702
135119,105603
134822,105529
134569,105382
134348,105312
134114,105190
133848,105123
133598,105016
133381,104915
133204,104885
133042,104808
132910,104725
132798,104679
132682,104665
132579,104595
132529,104580
132511,104571
132386,104536
132358,104490
132338,104504
132314,104524
132320,104487
132247,104491
132220,104478
132234,104509
132281,104510
132235,104519
132250,104510
132255,104490
132358,104596
132424,104581
132502,104594
132560,104657
132581,104648
132731,104727
132823,104760
132869,104750
132997,104794
133019,104835
133188,104896
133242,104912
133316,104954
133369,104945
133441,105025
133515,105017
133598,105066
133674,105087
133777,105124
133831,105170
133897,105197
134026,105234
134082,105256
134152,105274
134226,105315
134291,105326
134339,105354
134415,105387
134412,105389
134431,105378
134509,105441
134551,105432
134569,105416
134556,105436
134546,105400
134630,105474
134620,105471
134618,105463
134583,105430
134575,105421
134597,105475
134565,105445
134551,105416
134483,105402
134473,105377
134479,105412
134469,105401
134422,105396
134380,105342
134370,105314
134414,105383
134365,105340
134331,105347
134306,105322
134320,105311
134362,105342
134375,105341
134326,105339
134331,105326
134326,105342
134400,105362
134400,105371
134461,105376
134439,105392
134434,105376
134523,105393
134544,105418
134603,105425
134588,105444
134586,105430
134701,105505
134708,105486
134751,105505
134737,105509
134785,105491
134851,105548
134902,105546
134885,105537
134948,105547
134982,105571
135028,105633
135083,105605
135134,105623
135095,105672
135178,105646
135249,105653
135265,105682
135243,105679
135281,105687
135332,105740
135392,105715
135403,105767
135471,105739
135454,105797
135471,105782
135551,105809
135563,105804
135592,105811
135614,105853
135651,105836
135710,105896
135764,105884
135767,105866
135805,105896
135839,105962
135901,105961
135945,105961
135990,105979
136040,105996
136069,106008
136104,106023
136175,106066
136160,106068
136165,106048
136291,106081
136302,106102
136303,106103
136353,106131
136307,106134
136305,106073
136308,106077
136247,106053
136118,106030
136002,105952
135981,105940
135829,105885
135640,105818
135426,105712
135198,105618
135074,105570
134835,105467
134574,105381
134337,105267
134061,105196
133860,105088
133617,105000
133432,104909
133198,104825
133062,104760
132937,104737
132808,104662
132737,104608
132594,104603
132530,104543
132516,104556
132466,104538
132382,104482
132396,104503
132302,104484
132329,104502
132270,104477
132285,104460
132224,104436
132217,104467
132248,104444
132250,104497
132304,104500
132313,104523
132381,104525
132529,104575
132582,104632
132594,104628
132671,104653
132787,104707
132896,104705
132998,104783
133045,104832
133147,104861
133244,104908
133389,104963
133482,104969
133627,105040
133653,105031
133773,105132
133940,105150
134020,105204
134080,105204
134128,105274
134261,105297
134339,105361
134443,105340
134463,105388
134538,105389
134622,105393
134683,105484
134695,105475
134723,105459
134748,105473
134780,105505
134823,105459
134870,105518
134849,105524
134837,105514
134796,105509
134863,105501
134800,105496
134800,105487
134756,105440
134756,105491
134783,105438
134759,105449
134719,105432
134657,105459
134643,105415
134649,105392
134671,105410
134620,105418
134568,105366
134621,105377
134588,105402
134595,105412
134564,105358
134571,105383
134622,105361
134648,105434
134623,105419
134624,105424
134676,105418
134679,105439
134741,105443
134761,105481
134742,105434
134765,105463
134807,105512
134871,105498
134879,105498
134869,105501
134896,105501
134952,105544
134997,105580
135039,105581
135110,105575
135117,105608
135223,105660
135239,105636
135291,105658
135337,105682
135349,105707
135461,105707
135520,105762
135537,105796
135586,105760
135597,105766
135711,105854
135703,105816
135745,105838
135769,105860
135782,105888
135844,105876
135895,105905
135904,105943
135917,105885
135931,105909
136025,105951
136041,105965
136066,105974
136072,105979
136141,105998
136174,106045
136225,106023
136222,106040
136272,106072
136300,106070
136343,106065
136391,106092
136440,106107
136426,106100
136476,106095
136553,106173
136576,106165
136631,106205
136592,106200
136619,106181
136715,106216
136676,106203
136669,106187
136652,106177
136582,106165
136555,106157
136431,106078
136362,106049
136179,105979
136051,105936
135859,105850
135673,105767
135437,105709
135187,105562
134985,105481
134739,105370
134448,105268
134204,105183
133904,105082
133652,104964
133506,104898
133263,104808
133120,104754
132951,104696
132829,104644
132803,104580
132707,104559
132629,104549
132586,104537
132505,104516
132533,104492
132501,104499
132459,104468
132466,104481
132435,104461
132454,104468
132438,104506
132459,104479
132433,104483
132455,104491
132559,104549
132566,104548
132612,104580
132644,104621
132717,104627
132818,104645
132897,104685
132950,104721
133003,104756
133090,104756
133196,104843
133283,104840
133364,104875
133416,104923
133562,104990
133663,104998
133739,105035
133815,105071
133879,105096
134001,105147
134132,105206
134178,105212
134267,105230
134366,105269
134413,105308
134500,105350
134582,105363
134629,105367
134664,105389
134735,105421
134803,105457
134830,105461
134841,105456
134849,105485
134914,105503
134945,105494
134994,105518
134975,105526
134948,105499
134996,105493
135033,105544
