11111,11111
0,0
82203,82315
111315,113205
111402,113273
111462,113269
111418,113245
111399,113220
111360,113219
111438,113273
111494,113292
111479,113297
111434,113232
111448,113223
111486,113306
111587,113319
111535,113283
111491,113243
111455,113267
111502,113263
111552,113314
111491,113274
111362,113188
111321,113163
111294,113198
111290,113165
111192,113116
111049,113035
110933,112975
110901,112975
110889,112965
110807,112902
110642,112811
110559,112754
110548,112844
110504,112767
110474,112746
110328,112625
110303,112648
110342,112691
110354,112716
110313,112632
110162,112617
110145,112593
110257,112659
110261,112683
110220,112640
110151,112614
110122,112641
110230,112650
110259,112684
110169,112660
110113,112602
110131,112626
110197,112651
110273,112663
110209,112660
110150,112583
110177,112626
110199,112640
110248,112645
110234,112637
110143,112534
110164,112571
110263,112635
110257,112641
110261,112617
110172,112570
110208,112588
110281,112598
110323,112642
110268,112577
110167,112518
110200,112560
110309,112623
110296,112587
110252,112569
110183,112525
110277,112554
110333,112621
110340,112594
110316,112586
110281,112530
110354,112592
110448,112637
110494,112628
110456,112639
110406,112585
110526,112646
110567,112660
110565,112664
110535,112630
110496,112607
110551,112628
110607,112686
110601,112671
110557,112632
110501,112594
110573,112666
110618,112653
110629,112661
110570,112644
110526,112600
110567,112662
110634,112722
110606,112668
110597,112626
110511,112630
110584,112617
110681,112719
110627,112683
110590,112649
110533,112620
110606,112680
110666,112686
110682,112664
110624,112641
110554,112615
110663,112672
110738,112731
110712,112707
110691,112640
110649,112647
110744,112694
110805,112751
110806,112729
111391,112947
112511,113442
112477,113402
112724,113517
112708,113501
112685,113473
113342,113757
113459,113801
113466,113807
113462,113801
113631,113825
113408,113740
113234,113643
112948,113479
112622,113301
112254,113154
111917,112917
111713,112868
111535,112803
111300,112675
111160,112584
111004,112561
111061,112592
111007,112584
110922,112511
110847,112479
110794,112442
110877,112521
110845,112475
110784,112496
110756,112450
110755,112413
110868,112518
110835,112531
110808,112505
110807,112474
110831,112497
110911,112555
110941,112567
110933,112549
110932,112536
110945,112543
111060,112603
111092,112653
111097,112634
111109,112621
111132,112629
111221,112709
111304,112744
111319,112727
111239,112699
111276,112727
111372,112762
111386,112761
111353,112753
111291,112728
111364,112770
111415,112796
111380,112785
111368,112757
111267,112701
111310,112778
111397,112790
111370,112802
111356,112760
111299,112746
111352,112784
111452,112844
111444,112810
111462,112828
111338,112795
111410,112828
111500,112885
111495,112856
111471,112849
111363,112770
111375,112784
111519,112861
111444,112829
111392,112819
111248,112721
111318,112765
111387,112814
111346,112767
111273,112768
111173,112694
111235,112723
111288,112754
111255,112716
111207,112733
111106,112656
111210,112698
111221,112756
111211,112723
111200,112712
111087,112649
111143,112728
111197,112761
111167,112699
111147,112713
111092,112669
111130,112732
111192,112741
111202,112714
111148,112718
111045,112678
111134,112702
111225,112746
111191,112770
111147,112721
111079,112692
111172,112725
111215,112792
111175,112758
111164,112738
111111,112702
111182,112776
111233,112763
111249,112778
111186,112731
111115,112728
111270,112787
111320,112808
111298,112792
111246,112785
111223,112736
111320,112803
111373,112827
111376,112822
111306,112791
111245,112729
111339,112819
111406,112864
111364,112836
111289,112786
111292,112783
111354,112820
111392,112861
111338,112826
111310,112816
111270,112778
111341,112834
111408,112871
111354,112845
111283,112802
111302,112811
111389,112852
111377,112853
111357,112833
111317,112769
111298,112802
111420,112843
111433,112858
111396,112853
111358,112801
111367,112805
111453,112868
111489,112891
111462,112836
111411,112819
111419,112822
111487,112897
111514,112908
111507,112902
111434,112824
111453,112827
111547,112910
111546,112907
111509,112889
111459,112849
111484,112870
111557,112943
111548,112934
111540,112922
111475,112870
111478,112909
111580,112945
111593,112932
111561,112916
111501,112862
111532,112907
111657,112978
111624,112968
111631,112938
111531,112902
111609,112956
111690,112975
111665,112986
111641,112934
111588,112912
111607,112932
111675,112992
111716,112972
111639,112968
111587,112887
111616,112951
111703,112980
111760,113007
111694,112960
111668,112945
111738,113001
111825,113025
111833,113054
111838,113039
111801,113042
111861,113094
111922,113158
111907,113079
111906,113075
111783,112985
111869,113058
111889,113103
111902,113077
111841,113054
111804,113018
111862,113066
111947,113105
111876,113084
111857,113082
111775,113012
111887,113099
111977,113127
111916,113095
111947,113089
111852,113041
112062,113173
112030,113120
111936,113072
111835,112995
111682,112940
111656,112900
111659,112885
111470,112842
111340,112749
111179,112676
111164,112690
111116,112632
111008,112608
110876,112505
110716,112472
110778,112478
110742,112514
110630,112408
110506,112368
110450,112348
110467,112356
110448,112371
110380,112293
110320,112250
110280,112241
110313,112292
110355,112302
110287,112287
110272,112255
110248,112228
110347,112317
110336,112313
110345,112325
110315,112294
110283,112270
110416,112353
110418,112381
110427,112368
110390,112308
110370,112332
110482,112378
110500,112424
110463,112378
110463,112329
110436,112344
110534,112421
110531,112392
110533,112407
110468,112343
110474,112385
110551,112385
110582,112438
110526,112374
110455,112321
110469,112343
110509,112407
110551,112393
110517,112403
110432,112304
110462,112387
110532,112383
110544,112397
110526,112397
110439,112328
110452,112349
110573,112428
110566,112415
110592,112397
110508,112367
110569,112392
110648,112439
110660,112435
110610,112401
110549,112376
110598,112412
110665,112440
110618,112433
110618,112399
110527,112373
110525,112371
110618,112456
110568,112393
110529,112371
110488,112338
110468,112392
110554,112412
110529,112385
110496,112357
110417,112322
110457,112366
110553,112369
110528,112397
110486,112319
110430,112301
110504,112365
110568,112345
110583,112388
110566,112353
110458,112326
110563,112394
110607,112417
110612,112395
110583,112410
110509,112343
110572,112390
110647,112437
110636,112435
110642,112416
110549,112402
110626,112422
110700,112502
110698,112457
110669,112423
110644,112427
110674,112482
110769,112515
110780,112490
110789,112471
110737,112477
110829,112497
110937,112592
110918,112560
110923,112540
110875,112554
110945,112583
111034,112604
110998,112606
110975,112569
110886,112571
110996,112587
111064,112646
111052,112652
110994,112573
110960,112566
111042,112628
111074,112688
111083,112634
111061,112638
111030,112615
111146,112671
111217,112701
111251,112698
111188,112667
111233,112661
111328,112782
111431,112778
111446,112807
111434,112773
111458,112771
111568,112810
111624,112886
111616,112847
111646,112884
111650,112866
111710,112929
111822,112965
111823,112976
111775,112896
111796,112928
111897,112986
111948,113061
111912,112998
111924,112986
111895,112957
111980,113027
112048,113046
111987,113039
111904,112930
111947,112995
111950,113032
111972,113029
111949,112986
111885,112939
111846,112937
111912,112995
111956,112973
111882,112960
111851,112952
111869,112942
111939,112997
111998,113039
111997,112995
111916,112964
111975,113013
112070,113062
112073,113045
112067,113074
112000,113012
112003,113017
112100,113066
112104,113065
112085,113054
111996,112975
112012,113010
112098,113075
112081,113046
112062,113064
112000,112998
112045,113038
112110,113083
112157,113088
112128,113102
112074,113028
112127,113095
112233,113142
112244,113131
112275,113113
112187,113085
112287,113138
112369,113206
112368,113227
112335,113157
112241,113090
112333,113159
112380,113209
112356,113212
112307,113147
112195,113115
112230,113140
112229,113146
112202,113095
112131,113072
111921,112935
111869,112962
111781,112917
111652,112843
111454,112743
111287,112685
111227,112644
111199,112612
111107,112571
110920,112492
110788,112405
110746,112415
110699,112431
110632,112371
110516,112328
110401,112243
110359,112262
110390,112271
110319,112209
110222,112190
110117,112120
110176,112158
110194,112185
110145,112162
110095,112108
110004,112105
110096,112126
110116,112148
110127,112139
110049,112115
110008,112069
110122,112151
110128,112174
110091,112152
110078,112117
109997,112118
110092,112139
110175,112191
110132,112174
110077,112122
110069,112117
110113,112190
110151,112175
110131,112171
110042,112148
110005,112101
110128,112185
110117,112169
110057,112151
109977,112117
109965,112121
110067,112139
110064,112158
110047,112140
109942,112094
109937,112071
110030,112132
110070,112168
110002,112126
109941,112052
109943,112095
110010,112132
110048,112142
110012,112154
109926,112070
109978,112091
110023,112158
110039,112161
109990,112117
109918,112051
109957,112071
109977,112132
110018,112077
109960,112085
109857,111998
109845,112018
109928,112074
109915,112078
109851,112034
109814,111982
109806,111973
109860,112032
109868,112019
109824,112019
109714,111923
109762,111946
109803,111999
109847,111994
109805,111974
109705,111900
109732,111971
109763,111986
109794,111994
109735,111954
109709,111882
109724,111941
109810,111967
109827,112006
109772,111959
109727,111921
109786,111969
109809,112021
109895,112000
109874,111990
109767,111952
109887,111960
109987,112071
109957,112031
109955,112017
109922,111992
109987,112035
110070,112082
110090,112109
110068,112084
110033,112018
110150,112096
110179,112162
110187,112117
110193,112119
110117,112104
110214,112146
110302,112150
110279,112168
110265,112153
110185,112123
110278,112162
110362,112223
110350,112187
110274,112171
110237,112120
110333,112218
110355,112223
110348,112206
110344,112182
110258,112172
110359,112179
110444,112261
110403,112230
110370,112193
110331,112172
110407,112222
110484,112264
110454,112255
110459,112233
110365,112214
110438,112263
110517,112295
110500,112288
110448,112244
110437,112209
110457,112280
110542,112308
110475,112284
110465,112237
110421,112233
110491,112256
110560,112309
110564,112285
110500,112282
110475,112257
110534,112313
110568,112305
110557,112320
110503,112277
110496,112279
110550,112312
110604,112314
110575,112318
110528,112266
110507,112251
110603,112319
110597,112345
110618,112320
110536,112302
110561,112285
110640,112320
110643,112373
110647,112335
110591,112277
110559,112310
110649,112333
110692,112393
110662,112335
110626,112303
110591,112306
110698,112367
110725,112395
110667,112376
110587,112323
110600,112348
110713,112368
110756,112412
110700,112366
110612,112300
110672,112335
110722,112378
110772,112388
110709,112393
110656,112326
110686,112366
110756,112394
110829,112421
110811,112381
110755,112322
110806,112382
110872,112448
110880,112449
110863,112409
110793,112344
110887,112433
110945,112448
110953,112460
110953,112407
110881,112421
110896,112413
111007,112477
111000,112459
110924,112440
110865,112395
110907,112422
110957,112427
110940,112454
110862,112364
110744,112301
110752,112303
110725,112288
110584,112255
110509,112164
110331,112097
110290,112054
110264,112084
110138,112014
110043,111953
109892,111867
109868,111867
109852,111883
109730,111839
109656,111759
109558,111706
109520,111699
109547,111756
109470,111710
109448,111660
109307,111608
109387,111631
109410,111675
109397,111614
109326,111622
109317,111583
109351,111608
109419,111666
109417,111648
109354,111637
109306,111606
109393,111663
109497,111685
109485,111724
109441,111647
109408,111637
109460,111697
109548,111736
109503,111693
109517,111680
109456,111707
109516,111708
109606,111753
109582,111712
109587,111695
109513,111689
109584,111714
109679,111792
109597,111756
109582,111746
109509,111671
109623,111782
109625,111765
109607,111748
109501,111711
109509,111706
109575,111762
109639,111772
109568,111753
109512,111699
109494,111720
109575,111744
109633,111794
109583,111751
109562,111706
109558,111729
109613,111751
109690,111799
109632,111735
109581,111726
109553,111719
109652,111786
109672,111803
109648,111729
109588,111714
109521,111740
109604,111754
109659,111772
109599,111757
109555,111688
109512,111699
109612,111755
109637,111784
109559,111723
109494,111695
109528,111690
109604,111734
109621,111782
109552,111714
109521,111692
109540,111717
109603,111758
109581,111758
109564,111751
109451,111697
109504,111725
109605,111786
109584,111762
109544,111770
109497,111667
109570,111729
109617,111784
109641,111753
109550,111745
109531,111678
109584,111772
109668,111781
109654,111787
109656,111757
109559,111699
109653,111776
109701,111806
109706,111780
109711,111815
109620,111737
109687,111769
109777,111842
109758,111849
109718,111790
109689,111748
109738,111805
109808,111841
109827,111861
109791,111804
109732,111806
109775,111806
109858,111877
109874,111865
109854,111851
109778,111779
109835,111875
109928,111878
109935,111877
109918,111866
109825,111851
109930,111832
109977,111915
109967,111879
109938,111873
109885,111857
109959,111876
110065,111924
109999,111916
109983,111861
109933,111828
109982,111911
110058,111915
110068,111915
109999,111914
109938,111852
110070,111927
110076,111956
110064,111946
110051,111879
109985,111881
110102,111930
110129,111990
110162,111988
110089,111934
110067,111929
110132,111936
110184,112010
110159,111984
110107,111945
110089,111927
110206,112008
110231,111996
110198,112012
110202,111968
110173,111975
110275,112015
110337,112095
110290,112009
110288,112011
110259,111995
110323,112037
110440,112087
110403,112081
110336,112061
110326,112047
110400,112079
110478,112095
110447,112108
110363,112027
110369,112066
110422,112113
110462,112127
110449,112107
110402,112103
110368,112052
110477,112117
110509,112148
110481,112093
110451,112055
110437,112096
110494,112098
110573,112165
110553,112158
110467,112104
110527,112110
110576,112165
110618,112170
110599,112171
110527,112131
110567,112133
110626,112181
110662,112191
110634,112170
110576,112134
110589,112156
110633,112199
110671,112203
110650,112166
110538,112160
110590,112157
110666,112216
110662,112206
110599,112171
110561,112136
110583,112150
110634,112212
110662,112207
110609,112165
110516,112144
110564,112156
110581,112191
110575,112184
110528,112148
110365,112033
110373,112066
110333,112073
110284,111993
110166,111949
109970,111856
109905,111834
109929,111829
109803,111775
109661,111696
109500,111613
109471,111582
109442,111624
109364,111561
109218,111518
109067,111408
109118,111457
109102,111476
109031,111430
108980,111372
108873,111326
108895,111349
108975,111379
108932,111351
108932,111314
108826,111291
108876,111349
108997,111410
108952,111350
108956,111324
108868,111316
108968,111359
109046,111417
109051,111421
108979,111374
108935,111373
109014,111395
109089,111441
109054,111406
109067,111427
108978,111348
109068,111407
109121,111444
109129,111454
109039,111415
108989,111379
109044,111426
109126,111451
109087,111403
109028,111417
109007,111354
109028,111414
109099,111447
109061,111423
108982,111337
108978,111356
109029,111414
109054,111410
109061,111425
109005,111345
108925,111365
109025,111389
109107,111422
109062,111401
109023,111410
109020,111405
109108,111422
109136,111443
109088,111457
109048,111372
109051,111394
109119,111430
109181,111457
109110,111428
109082,111391
109046,111352
109146,111422
109191,111448
109127,111435
109116,111357
109075,111394
109140,111399
109220,111452
109156,111416
109117,111369
109140,111356
109226,111440
109246,111474
109261,111435
109184,111404
109204,111439
109261,111451
109338,111499
109265,111480
109226,111408
109205,111454
109343,111488
109355,111481
109346,111517
109225,111422
109306,111487
109401,111525
109391,111509
109371,111514
109360,111486
109380,111511
109504,111543
109518,111581
109525,111566
109507,111518
109588,111577
109675,111646
109732,111647
109723,111650
109703,111596
109774,111673
109841,111733
109884,111705
109887,111719
109845,111655
109895,111706
110007,111766
109968,111795
109963,111766
109932,111753
109994,111767
110063,111823
110092,111808
110010,111808
109969,111742
110034,111802
110116,111808
110107,111855
110084,111816
109998,111768
110114,111806
110213,111889
110190,111839
110193,111854
110146,111815
110180,111875
110299,111898
110298,111908
110293,111867
110231,111851
110318,111930
110343,111928
110374,111932
110336,111907
110283,111883
110321,111920
110421,111972
110397,111962
110354,111929
110285,111900
110362,111936
110459,112004
110441,111954
110409,111961
110320,111919
110431,111982
110465,112019
110455,111977
110468,111964
110363,111974
110442,111961
110507,112029
110477,112028
110451,111954
110382,111973
110503,112005
110530,112079
110477,112018
110455,111975
110418,111983
110514,112031
110567,112079
110523,112019
110452,111988
110461,111967
110535,112030
110539,112056
110549,112048
110493,112033
110470,112000
110549,112049
110577,112080
110514,112052
110493,112006
110476,112031
110587,112060
110575,112078
110566,112037
110530,112000
110498,112044
110581,112065
110633,112095
110594,112073
110574,112022
110519,112027
110642,112093
110684,112092
110662,112086
110640,112053
110629,112083
110691,112089
110764,112145
110714,112129
110664,112082
110708,112092
110808,112174
110853,112162
110836,112171
110747,112120
110831,112155
110904,112218
110912,112191
110947,112199
110824,112165
110871,112150
110953,112200
110991,112225
110916,112195
110823,112131
110875,112148
110909,112190
110898,112155
110811,112138
110665,112017
110661,112067
110612,112048
110557,111986
110441,111946
110236,111849
110204,111865
110159,111847
110088,111804
109942,111732
109749,111629
109739,111626
109662,111615
109642,111611
109492,111531
109358,111449
109353,111449
109359,111496
109308,111426
109264,111405
109112,111366
109148,111372
109210,111381
109145,111387
109168,111368
109044,111292
109130,111368
109197,111429
109221,111423
109186,111338
109152,111372
109224,111381
109287,111436
109314,111442
109295,111422
109289,111397
109334,111488
109400,111484
109418,111482
109367,111489
109336,111435
109415,111488
109521,111544
109449,111525
109446,111486
109382,111489
109439,111520
109517,111554
109471,111546
109419,111498
109344,111443
109465,111524
109505,111548
109435,111533
109374,111486
109354,111453
109393,111542
109454,111513
109429,111501
109395,111474
109342,111444
109454,111530
109469,111570
109450,111489
109419,111510
109388,111472
109460,111537
109494,111544
109497,111551
109407,111479
109388,111505
109466,111520
109532,111531
109471,111506
109374,111463
109369,111437
109412,111487
109476,111514
109423,111520
109350,111442
109329,111418
109394,111478
109473,111506
109400,111444
109342,111430
109312,111422
109396,111460
109433,111496
109424,111438
109377,111412
109347,111434
109389,111475
109436,111472
109473,111478
109356,111402
109425,111445
109519,111483
109541,111511
109546,111489
109484,111470
109532,111499
109641,111517
109721,111606
109711,111564
109630,111532
109679,111570
109768,111610
109806,111624
109767,111599
109716,111563
109768,111603
109857,111657
109886,111650
109837,111660
109796,111597
109856,111653
109917,111712
109940,111697
109931,111669
109867,111632
109934,111664
110040,111745
110098,111756
110067,111741
110054,111731
110151,111782
110258,111851
110273,111826
110340,111845
110262,111805
110347,111852
110458,111914
110476,111915
110462,111935
110396,111828
110478,111909
110541,111971
110535,111950
110521,111941
110477,111884
110582,111974
110662,111970
110692,112006
110624,111973
110590,111932
110638,112007
110724,112035
110692,111991
110690,111973
110587,111932
110701,112015
110697,111998
110688,111989
110649,111953
110575,111950
110621,112008
110702,112012
110681,111965
110623,112010
110611,111949
110680,112005
110726,112054
110759,112038
110725,111988
110711,111994
110785,112070
110840,112115
110887,112094
110841,112056
110835,112057
110884,112129
110963,112135
110904,112104
110907,112099
110864,112069
110890,112142
110950,112133
110936,112131
110910,112121
110835,112060
110900,112126
110977,112163
110928,112129
110867,112073
110832,112073
110897,112090
110964,112152
110887,112131
110846,112073
110840,112077
110872,112121
110944,112169
110851,112106
110836,112058
110806,112095
110902,112096
110923,112132
110867,112127
110849,112073
110823,112048
110910,112139
110941,112155
110931,112129
110877,112100
110890,112108
110986,112165
111050,112173
111045,112168
110981,112130
110990,112171
111093,112198
111124,112231
111113,112205
111019,112164
111074,112186
111118,112223
111183,112268
111163,112240
111065,112168
111138,112221
111207,112267
111241,112274
111288,112276
111199,112221
111289,112293
111377,112345
111417,112334
111432,112351
111356,112298
111427,112351
111509,112411
111526,112394
111496,112352
111367,112327
111388,112308
111380,112332
111295,112277
111142,112183
110963,112063
110849,112056
110793,112068
110675,111974
110539,111910
110359,111809
110323,111805
110282,111824
110201,111741
110057,111689
109934,111614
109916,111595
109924,111638
109857,111592
109756,111554
109652,111452
109707,111500
109704,111541
109657,111504
109650,111513
109526,111430
109619,111465
109638,111536
109643,111493
109608,111462
109540,111433
109587,111506
109633,111512
109660,111521
109612,111499
109566,111453
109671,111510
109694,111538
109670,111523
109667,111523
109618,111494
109660,111517
109747,111579
109723,111538
109679,111550
109634,111479
109688,111554
109713,111562
109709,111558
109659,111496
109642,111497
109675,111550
109737,111548
109711,111530
109604,111499
109584,111442
109659,111538
109679,111484
109658,111483
109575,111475
109548,111467
109574,111483
109673,111556
109588,111520
109571,111480
109528,111488
109595,111512
109686,111574
109638,111547
109564,111478
109560,111492
109627,111528
109674,111535
109621,111511
109557,111478
109542,111454
109612,111526
109639,111531
109605,111513
109493,111460
109517,111454
109550,111512
109600,111529
109518,111480
109443,111410
109424,111408
109495,111469
109512,111462
109475,111466
109401,111394
109405,111419
109434,111469
109489,111488
109441,111462
109362,111374
109366,111426
109452,111490
109451,111478
109406,111427
109388,111425
109376,111422
109476,111458
109474,111498
109421,111445
109390,111405
109414,111449
109493,111475
109506,111499
109520,111480
109412,111452
109441,111461
109519,111552
109554,111506
109563,111505
109468,111470
109512,111473
109558,111504
109635,111544
109554,111520
109518,111470
109560,111500
109633,111541
109660,111570
109617,111558
109586,111500
109649,111571
109696,111581
109722,111601
109667,111547
109616,111514
109664,111544
109764,111599
109721,111580
109698,111548
109664,111548
109716,111568
109796,111648
109786,111600
109780,111608
109730,111574
109792,111579
109872,111654
109858,111640
109808,111619
109779,111580
109863,111622
109890,111677
109915,111647
109875,111631
109803,111598
109882,111628
109936,111713
109909,111643
109920,111643
109808,111622
109881,111648
109978,111701
109911,111642
109898,111630
109840,111601
109918,111665
109961,111714
109940,111647
109886,111650
109864,111625
109913,111668
109962,111702
109982,111684
109947,111667
109883,111603
109979,111680
110012,111714
109964,111664
109978,111676
109903,111649
109952,111662
110027,111712
109973,111697
109946,111647
109945,111642
110003,111694
110055,111697
110019,111713
109979,111657
109975,111659
110031,111723
110081,111750
110033,111686
109978,111670
109959,111679
110064,111725
110092,111758
110070,111739
109987,111684
109999,111669
110079,111727
110133,111778
110083,111736
110082,111720
110034,111700
110110,111742
110190,111773
110133,111747
110106,111719
110086,111706
110197,111789
110202,111841
110204,111768
110184,111741
110166,111787
110216,111814
110321,111842
110254,111816
110228,111758
110250,111820
110326,111855
110370,111868
110390,111856
110317,111833
110342,111839
110460,111902
110458,111913
110423,111879
110365,111820
110392,111871
110393,111858
110389,111841
110263,111818
110144,111693
110102,111734
110089,111714
110003,111653
109903,111571
109724,111539
109646,111493
109646,111501
109539,111457
109432,111370
109308,111298
109248,111316
109264,111309
109190,111251
109103,111226
108985,111192
108976,111162
109021,111208
108978,111197
108902,111158
108822,111080
108873,111133
108880,111158
108909,111156
108896,111122
108841,111094
108869,111163
108954,111175
108949,111167
108955,111165
108857,111143
108940,111140
109039,111221
109013,111204
108986,111176
108938,111158
109001,111194
109066,111225
109108,111226
109050,111202
108990,111187
109028,111190
109104,111228
109056,111217
109056,111192
108974,111197
109036,111211
109099,111270
109049,111250
108988,111185
108924,111133
109009,111205
109061,111228
109003,111213
108958,111216
108883,111143
108977,111224
109029,111213
108959,111206
108951,111207
108926,111136
108964,111210
109038,111256
109034,111217
108972,111183
108895,111190
109020,111247
109005,111258
108993,111235
108928,111167
108880,111158
108919,111207
108988,111298
108884,111181
108840,111153
108800,111149
108826,111168
108906,111199
108824,111171
108795,111150
108760,111148
108814,111178
108843,111190
108835,111166
108772,111109
108751,111121
108848,111175
108894,111190
108877,111167
108829,111143
108834,111199
108876,111197
108966,111282
108920,111195
108881,111182
108870,111272
108949,111277
109036,111236
109115,111622
108897,111283
108908,111186
108953,111258
108996,111264
108978,111263
108895,111203
108939,111240
108992,111265
109057,111296
109010,111250
108933,111227
108979,111268
109075,111296
109106,111305
109075,111287
109008,111235
109032,111285
109113,111314
109186,111337
109145,111342
109075,111301
109144,111332
109191,111351
109207,111356
109216,111361
109170,111302
109172,111356
109266,111406
109285,111374
109301,111400
109237,111333
109298,111387
109338,111406
109396,111427
109344,111421
109287,111378
109341,111432
109448,111484
109418,111458
109436,111476
109348,111434
109411,111457
109478,111525
109458,111508
109452,111521
109361,111439
109467,111496
109505,111559
109472,111540
109466,111506
109393,111478
109490,111506
109544,111554
109530,111524
109528,111516
109472,111480
109548,111526
109619,111572
109564,111559
109610,111519
109538,111517
109593,111568
109682,111602
109637,111588
109622,111542
109596,111539
109655,111610
109731,111625
109680,111573
109684,111582
109582,111529
109740,111611
109765,111631
109748,111615
109701,111618
109638,111587
109764,111629
109811,111685
109768,111643
109739,111617
109663,111602
109762,111636
109846,111706
109792,111640
109755,111625
109746,111626
109783,111677
109875,111729
109856,111685
109802,111655
109777,111639
109817,111672
109885,111715
109896,111709
109792,111645
109788,111652
109842,111702
109921,111751
109895,111723
109844,111672
109835,111697
109929,111717
109942,111770
109953,111742
109912,111692
109888,111699
109973,111752
110019,111779
110007,111770
109922,111730
109986,111750
110042,111799
110109,111813
110095,111814
110017,111756
110049,111754
110194,111861
110236,111862
110194,111844
110169,111802
110173,111846
110252,111875
110293,111890
110309,111871
110205,111872
110229,111843
110308,111930
110343,111929
110307,111902
110199,111844
110195,111824
110252,111886
110208,111837
110088,111788
109968,111724
109902,111725
109902,111690
109799,111644
109698,111614
109498,111501
109423,111478
109431,111478
109365,111471
109234,111394
109105,111299
109034,111302
109033,111292
109003,111276
108900,111238
108793,111133
108765,111168
108844,111238
108813,111206
108760,111194
108657,111091
108707,111140
108807,111250
108781,111200
108746,111153
108680,111145
108710,111167
108785,111207
108762,111209
108781,111204
108687,111149
108791,111204
108827,111207
108840,111214
108785,111224
108728,111155
108775,111207
108850,111284
108813,111215
108815,111196
108722,111150
108808,111223
108865,111223
108843,111232
108758,111211
108721,111153
108767,111182
108852,111258
108796,111221
108767,111162
108671,111130
108755,111194
108803,111231
108729,111185
108725,111183
108633,111136
108719,111173
108780,111238
108757,111189
108720,111159
108687,111171
108788,111248
108840,111239
108845,111248
108794,111218
108760,111228
108824,111237
108928,111296
108855,111286
108841,111247
108819,111209
108868,111261
108927,111348
108870,111247
108888,111251
108810,111222
108870,111258
108914,111290
108890,111255
108831,111246
108772,111216
108881,111265
108893,111317
108821,111266
108799,111208
108754,111220
108814,111273
108869,111279
108832,111266
108777,111196
108759,111239
108779,111260
108838,111277
108813,111244
108760,111197
108704,111200
108860,111253
108836,111306
108819,111254
108776,111240
108765,111232
108874,111289
108915,111317
108862,111289
108819,111234
108824,111262
108871,111298
108945,111341
108902,111329
108822,111277
108886,111288
108978,111354
109038,111358
108985,111352
108950,111304
108953,111360
109034,111372
109092,111383
109074,111413
108997,111366
109045,111367
109138,111419
109161,111431
109145,111402
109089,111359
109155,111418
109202,111464
109212,111453
109169,111440
109125,111403
109208,111463
109273,111509
109268,111501
109249,111438
109220,111448
109271,111466
109359,111502
109356,111512
109355,111519
109258,111471
109374,111486
109436,111572
109454,111566
109428,111535
109393,111514
109429,111558
109521,111585
109517,111616
109481,111576
109391,111528
109475,111590
109484,111664
109495,111624
109402,111587
109340,111557
109424,111620
109474,111637
109394,111613
109365,111562
109275,111517
109355,111578
109394,111616
109327,111587
109277,111541
109222,111527
109297,111514
109357,111585
109327,111556
109306,111535
109187,111491
109296,111519
109367,111581
109373,111564
109301,111533
109263,111498
109334,111555
109347,111602
109377,111579
109359,111544
109290,111528
109347,111576
109445,111625
109415,111625
109365,111576
109334,111540
109395,111607
109470,111647
109394,111606
109376,111570
109362,111575
109446,111637
109482,111639
109454,111620
109437,111576
109376,111582
109485,111651
109530,111662
109492,111652
109468,111595
109441,111623
109544,111656
109584,111673
109572,111687
109560,111669
109500,111645
109610,111694
109656,111730
109632,111706
109607,111655
109565,111667
109654,111725
109745,111725
109728,111726
109663,111675
109649,111674
109734,111751
109777,111797
109775,111739
109770,111762
109757,111755
109834,111797
109883,111798
109868,111816
109775,111786
109833,111752
109903,111872
109927,111831
109925,111833
109871,111791
109933,111823
109980,111882
110008,111902
109976,111831
109851,111796
109862,111761
109899,111798
109859,111813
109745,111712
109643,111640
109567,111641
109587,111619
109498,111617
109394,111515
109253,111463
109206,111448
109248,111484
109152,111447
109068,111395
108900,111338
108904,111289
108942,111372
108880,111317
108813,111277
108709,111198
108726,111223
108783,111294
108768,111238
108683,111219
108625,111176
108677,111242
108708,111254
108729,111235
108691,111245
108651,111210
108707,111263
108757,111268
108801,111300
108774,111284
108667,111255
108774,111292
108846,111361
108799,111287
108829,111314
108734,111245
108836,111314
108857,111373
108852,111324
108812,111326
108748,111253
108820,111315
108904,111373
108856,111350
108819,111297
108745,111278
108824,111310
108860,111339
108830,111342
108772,111310
108672,111229
108803,111321
108822,111330
108806,111324
108727,111291
108664,111263
108794,111312
108841,111355
108843,111302
108784,111286
108767,111245
108851,111350
108874,111366
108917,111360
108854,111309
108839,111321
108906,111357
108968,111396
108919,111391
108879,111332
108864,111322
108934,111372
108973,111408
108945,111402
108869,111338
108834,111309
108922,111392
108958,111412
108917,111392
108841,111314
108822,111305
108879,111358
108952,111361
108930,111377
108849,111330
108814,111313
108912,111397
108940,111378
108941,111362
108855,111337
108867,111338
108943,111370
108974,111436
108987,111374
108932,111367
108947,111353
108977,111417
109076,111465
109026,111406
108975,111391
109001,111400
109068,111450
109107,111461
109082,111467
109001,111432
109046,111424
109135,111528
109172,111519
109120,111486
109029,111437
109102,111472
109169,111547
109215,111522
109140,111486
109118,111449
109143,111509
109229,111528
109250,111541
109209,111505
109177,111456
109198,111550
109273,111554
109311,111569
109251,111550
109202,111461
109279,111527
109310,111548
109367,111581
109325,111588
109235,111504
109302,111585
109388,111645
109375,111604
109347,111604
109282,111526
109340,111615
109412,111623
109408,111636
109385,111600
109316,111553
109348,111612
109451,111651
109465,111660
109410,111629
109345,111585
109414,111640
109470,111691
109447,111645
109450,111634
109365,111595
109441,111646
109499,111724
109453,111644
109462,111645
109368,111611
109428,111634
109467,111709
109497,111657
109440,111670
109389,111573
109466,111663
109554,111707
109507,111685
109521,111655
109414,111614
109509,111687
109579,111738
109580,111710
109536,111699
109478,111671
109602,111725
109672,111791
109603,111734
109635,111719
109556,111708
109656,111763
109695,111804
109700,111789
109662,111749
109624,111754
109722,111786
109783,111846
109805,111787
109738,111779
109742,111775
109823,111825
109900,111884
109886,111851
109842,111815
109834,111820
109937,111881
109980,111922
109951,111891
109890,111870
109889,111883
109982,111918
110014,111963
109983,111945
109964,111903
109943,111917
110070,111929
110128,111983
110076,111964
110074,111936
110049,111948
110145,112009
110189,112000
110201,111993
110143,111951
110173,111977
110281,112024
110336,112064
110274,112052
110284,112018
110316,112033
110389,112097
110445,112103
110454,112099
110369,112028
110419,112057
110505,112129
110542,112135
110484,112109
110437,112054
110459,112110
110484,112105
110570,112149
110440,112121
110396,112040
110434,112076
110414,112110
110379,112059
110294,112031
110143,111930
110130,111957
110065,111899
109991,111878
109903,111836
109743,111712
109700,111742
109666,111739
109612,111704
109528,111659
109367,111606
109350,111608
109333,111590
109274,111552
109251,111539
109047,111456
109103,111468
109167,111511
109136,111508
109080,111484
108958,111404
109000,111430
109092,111503
109071,111489
109054,111446
108970,111438
108983,111453
109100,111493
109101,111480
109056,111447
108988,111415
109067,111457
109088,111514
109103,111495
109051,111470
108987,111423
109084,111505
109132,111527
109118,111498
109064,111491
108981,111414
109056,111466
109129,111520
109079,111462
109028,111454
108933,111390
109041,111433
109077,111470
109055,111454
108980,111457
108876,111392
108971,111405
108998,111487
108959,111424
108950,111412
108869,111369
108891,111419
109007,111462
108942,111445
108932,111387
108861,111395
108960,111472
108996,111487
108977,111429
108977,111543
108937,111425
109021,111637
109054,111480
109059,111476
108962,111522
108931,111365
109007,111415
109048,111415
108998,111449
108964,111387
108927,111403
108981,111438
109034,111450
108990,111442
108927,111379
108904,111416
108986,111430
109021,111461
108957,111403
108907,111393
108876,111415
108964,111436
108992,111448
108949,111442
108911,111371
108910,111364
108990,111449
109015,111463
108974,111429
108937,111399
108922,111405
109016,111453
109077,111492
109054,111448
109021,111416
109042,111435
109088,111467
109180,111519
109166,111503
109053,111443
109117,111499
109185,111510
109215,111539
109220,111513
109146,111506
109175,111532
109286,111582
109267,111528
109232,111570
109215,111504
109246,111574
109312,111605
109332,111603
109328,111606
109236,111521
109291,111570
109369,111590
109441,111628
109371,111628
109304,111543
109387,111589
109417,111625
109454,111642
109421,111634
109350,111561
109407,111636
109503,111663
109503,111689
109487,111634
109381,111563
109502,111643
109541,111699
109549,111662
109488,111647
109412,111650
109463,111619
109578,111693
109548,111699
109499,111672
109446,111600
109487,111666
109589,111695
109538,111686
109518,111654
109456,111649
109512,111683
109598,111713
109604,111706
109539,111681
109480,111632
109546,111692
109588,111726
109581,111714
109551,111670
109508,111669
109549,111678
109641,111764
109619,111709
109591,111695
109528,111646
109582,111710
109662,111732
109646,111721
109639,111732
109575,111667
109688,111738
109787,111812
109735,111743
109729,111743
109676,111741
109772,111773
109850,111840
109786,111793
109791,111759
109716,111779
109799,111826
109881,111876
109842,111832
109824,111806
109788,111757
109859,111848
109914,111869
109890,111828
109858,111836
109831,111787
109921,111879
109974,111897
109914,111885
109921,111826
109862,111850
109985,111883
110086,111948
110061,111929
109992,111887
110007,111865
110088,111939
110134,111944
110135,111967
110062,111903
110035,111880
110187,111992
110169,112012
110152,111984
110122,111967
110133,111966
110230,112024
110273,112040
110239,112023
110228,112008
110238,111994
110338,112059
110395,112084
110390,112054
110332,112044
110352,112055
110483,112106
110549,112162
110508,112127
110452,112096
110537,112138
110603,112189
110626,112209
110619,112162
110550,112142
110602,112168
110654,112192
110700,112217
110642,112191
110621,112181
110610,112184
110677,112177
110654,112173
110554,112153
110442,112050
110383,112036
110409,112063
110306,112066
110170,111971
110041,111857
109997,111868
109950,111861
109917,111846
109772,111764
109617,111660
109626,111718
109606,111685
109501,111641
109408,111611
109307,111548
109293,111532
109309,111561
109289,111530
109235,111515
109105,111464
109158,111488
109214,111553
109187,111485
109159,111494
109061,111457
109156,111507
109129,111522
109192,111500
109156,111471
109058,111442
109146,111497
109237,111526
109172,111538
109164,111481
109142,111461
109180,111499
109247,111528
109242,111543
109200,111511
109162,111444
109198,111540
109286,111554
109224,111555
109191,111526
109125,111469
109234,111542
109264,111551
109237,111540
109202,111513
109132,111451
109198,111515
109217,111559
109193,111501
109153,111482
109097,111461
109168,111513
109210,111531
109211,111510
109157,111497
109135,111492
109175,111536
109237,111535
109229,111563
109205,111513
109167,111481
109262,111565
109314,111606
109263,111543
109217,111503
109213,111538
109253,111562
109306,111575
109253,111518
109193,111520
109157,111517
109203,111535
109262,111522
109210,111520
109131,111469
109154,111470
109197,111523
109191,111510
109214,111526
109132,111450
109117,111467
109209,111522
109192,111522
109177,111492
109122,111446
109111,111427
109184,111513
109224,111555
109201,111515
109132,111436
109123,111466
109195,111526
109241,111520
109191,111512
109145,111475
109139,111456
109258,111532
109266,111521
109225,111522
109160,111484
109214,111523
109294,111545
109301,111571
109257,111541
109218,111501
109253,111530
109317,111592
109355,111598
109334,111580
109275,111535
109310,111565
109386,111629
109425,111610
109381,111614
109319,111563
109393,111577
109473,111621
109501,111654
109456,111589
109439,111579
109449,111643
109543,111660
109559,111660
109528,111637
109482,111611
109537,111681
109609,111691
109615,111669
109599,111676
109524,111662
109615,111674
109671,111757
109669,111721
109684,111718
109581,111681
109681,111699
109771,111761
109733,111771
109719,111719
109649,111672
109752,111761
109805,111802
109771,111800
109745,111728
109681,111689
109762,111763
109785,111765
109763,111803
109737,111751
109665,111695
109733,111780
109789,111797
109771,111760
109727,111773
109652,111722
109762,111793
109810,111804
109743,111786
109741,111746
109676,111719
109742,111783
109827,111807
109781,111790
109740,111763
109669,111737
109795,111807
109844,111802
109775,111781
109788,111756
109714,111723
109797,111778
109860,111840
109839,111787
109794,111754
109761,111754
109856,111824
109893,111816
109858,111812
109834,111775
109824,111794
109888,111840
109941,111845
109902,111836
109883,111772
109852,111792
109938,111811
109993,111853
109933,111824
109908,111825
109960,111817
109992,111867
110046,111910
110039,111865
110007,111847
109985,111847
110095,111927
110142,111944
110176,111892
110095,111899
110144,111887
110233,111957
110289,112017
110231,111936
110208,111937
110208,111949
110313,112011
110383,112012
110298,112011
110275,111963
110281,111971
110355,112040
110409,112016
110401,112045
110334,111969
110351,112015
110414,112067
110439,112052
110388,111996
110304,111975
110321,111982
110353,112003
110286,111973
110165,111905
109984,111854
109976,111802
109944,111872
109818,111760
109763,111718
109569,111653
109524,111646
109507,111663
109359,111615
109251,111474
109104,111431
109074,111428
109054,111423
108984,111402
108906,111319
108758,111272
108793,111290
108798,111300
108807,111267
108733,111295
108660,111212
108683,111256
108746,111281
108726,111280
108680,111239
108595,111213
108638,111250
108673,111260
108728,111268
108646,111239
108552,111204
108626,111240
108690,111270
108682,111294
108598,111222
108558,111205
108598,111236
108659,111242
108656,111253
108592,111169
108514,111146
108609,111214
108669,111223
108638,111192
108628,111219
108501,111123
108597,111192
108661,111247
108603,111207
108579,111151
108516,111136
108591,111204
108666,111218
108621,111199
108610,111159
108561,111161
108621,111203
108687,111238
108667,111251
108610,111172
108594,111202
108697,111228
108728,111255
108741,111232
108695,111264
108667,111213
108782,111271
108761,111291
108792,111267
108705,111249
108697,111201
108766,111292
108789,111267
108747,111261
108673,111230
108647,111196
108738,111237
108779,111295
108737,111252
108680,111192
108648,111215
108703,111235
108795,111279
108718,111228
108661,111197
108670,111202
108725,111257
108773,111243
108764,111266
108687,111167
108702,111214
108764,111246
108813,111276
108745,111291
108724,111192
108749,111227
108836,111336
108845,111302
108809,111306
108817,111269
108770,111319
108860,111318
108907,111331
108842,111316
108784,111291
108822,111318
108915,111331
108932,111404
108914,111354
108842,111285
108880,111349
108935,111365
109021,111385
108977,111377
108925,111327
108932,111370
109027,111403
109085,111415
109058,111423
108977,111325
109036,111385
109097,111455
109143,111458
109130,111440
109044,111396
109117,111452
109200,111473
109239,111485
109204,111491
109121,111401
109186,111478
109261,111550
109270,111501
109223,111515
109159,111448
109199,111520
109271,111512
109299,111524
109237,111514
109157,111474
109238,111506
109285,111550
109272,111505
109261,111516
109180,111446
109228,111507
109329,111506
109304,111549
109252,111481
109200,111443
109279,111535
109328,111596
109343,111509
109343,111512
109240,111479
109317,111493
109420,111577
109416,111575
109354,111513
109328,111521
109365,111559
109491,111612
109467,111579
109397,111550
109380,111527
109455,111578
109536,111639
109484,111608
109457,111574
109384,111547
109474,111582
109557,111651
109506,111608
109506,111592
109433,111571
109542,111626
109582,111639
109590,111648
109529,111626
109506,111605
109605,111642
109634,111687
109630,111632
109642,111640
109578,111584
109661,111645
109740,111708
109708,111646
109677,111643
109622,111619
109754,111690
109807,111710
109772,111682
109701,111663
109671,111641
109782,111674
109826,111764
109780,111701
109763,111660
109750,111697
109784,111728
109866,111744
109849,111728
109747,111691
109791,111705
109857,111730
109936,111781
109901,111755
109891,111708
109883,111721
109959,111778
110034,111819
110010,111797
109957,111741
110004,111789
110058,111803
110138,111877
110098,111820
110059,111784
110081,111842
110155,111864
110215,111887
110176,111886
110156,111822
110191,111880
110280,111931
110315,111909
110312,111902
110209,111862
110275,111899
110285,111951
110323,111915
110284,111909
110160,111843
110153,111836
110163,111888
110105,111822
109999,111771
109805,111648
109770,111647
109747,111664
109664,111624
109546,111551
109376,111438
109312,111449
109285,111456
109256,111409
109146,111375
108953,111281
108963,111264
108985,111314
108904,111264
108847,111214
108736,111166
108728,111186
108807,111201
108741,111220
108731,111180
108620,111107
108719,111165
108752,111206
108707,111159
108722,111175
108601,111139
108689,111179
108743,111187
108764,111206
108733,111196
108689,111144
108716,111202
108799,111236
108787,111224
108755,111186
108756,111196
108791,111201
108840,111250
108871,111243
108807,111233
108728,111162
108852,111247
108851,111246
108845,111245
108775,111198
108750,111182
108781,111267
108825,111232
108831,111242
108771,111206
108702,111157
108778,111204
108813,111214
108756,111222
108703,111167
108668,111136
108745,111188
108801,111250
108750,111161
108761,111181
108689,111148
108753,111217
108838,111257
108834,111224
108800,111223
108733,111154
108826,111242
108870,111265
108838,111225
108802,111209
108742,111217
108802,111247
108892,111294
108859,111222
108768,111215
108734,111181
108838,111241
108820,111258
108837,111226
108728,111202
108726,111189
108772,111212
108831,111236
108781,111252
108711,111156
108723,111160
108779,111213
108855,111246
108773,111186
108752,111167
108744,111189
108808,111237
108844,111258
108814,111211
108759,111193
108762,111183
108838,111248
108889,111268
108855,111238
108790,111216
108784,111215
108916,111292
108921,111316
108858,111280
108830,111237
108845,111276
108953,111309
108950,111286
108971,111325
108874,111267
108940,111274
109041,111330
109018,111377
109018,111311
108946,111304
109017,111311
109087,111374
109132,111394
109051,111346
109009,111307
109083,111387
109146,111427
109118,111383
109139,111385
109068,111357
109139,111370
109208,111429
109233,111434
109205,111412
109149,111336
109221,111452
109299,111451
109283,111434
109263,111449
109230,111387
109294,111452
109369,111510
109329,111437
109313,111484
109248,111419
109311,111466
109390,111487
109404,111491
109323,111481
109288,111425
109362,111482
109426,111510
109411,111528
109373,111473
109346,111453
109390,111519
109459,111542
109431,111521
109439,111496
109369,111467
109452,111521
109515,111542
109514,111531
109477,111516
109403,111499
109501,111562
109578,111594
109526,111571
109536,111533
109480,111527
109535,111561
109635,111629
109634,111589
109571,111567
109541,111547
109620,111593
109654,111640
109713,111616
109689,111565
109622,111554
109695,111624
109770,111690
109734,111633
109751,111606
109661,111606
109767,111667
109821,111721
109782,111642
109761,111631
109689,111597
109817,111687
109827,111712
109811,111666
109734,111633
109731,111634
109798,111679
109848,111726
109799,111697
109780,111668
109756,111667
109822,111711
109871,111727
109867,111699
109794,111693
109814,111680
109877,111745
109913,111735
109924,111725
109865,111669
109857,111723
109946,111760
109985,111771
109981,111732
109889,111682
109957,111727
110040,111763
110087,111796
110053,111742
109968,111768
110029,111770
110153,111846
110161,111833
110125,111811
110111,111803
110116,111805
110185,111846
110249,111842
110215,111869
110166,111816
110166,111846
110252,111910
110287,111876
110294,111907
110199,111806
110274,111863
110347,111936
110340,111930
110344,111878
110260,111840
110315,111895
110367,111923
110429,111898
110315,111906
110200,111813
110230,111815
110226,111831
110141,111780
110039,111771
109900,111654
109838,111654
109835,111634
109737,111580
109621,111545
109468,111452
109412,111459
109436,111489
109331,111427
109254,111355
109137,111336
109164,111321
109174,111344
109080,111308
109039,111274
108918,111198
108980,111238
109007,111306
108958,111257
108963,111213
108886,111190
108941,111240
108971,111267
108984,111237
108940,111249
108912,111193
109011,111266
109056,111328
109001,111303
108984,111260
108941,111223
109071,111293
109113,111330
109073,111306
109080,111297
108999,111277
109116,111330
109157,111333
109136,111335
109078,111273
109048,111271
109147,111320
109158,111343
109128,111317
109091,111292
109041,111278
109108,111295
109168,111369
109084,111323
109048,111263
108979,111256
109054,111284
109078,111314
109060,111304
108995,111223
108952,111256
109003,111277
109076,111316
109011,111291
108958,111233
108953,111239
109045,111326
109070,111294
109006,111314
108989,111267
108997,111253
109013,111294
109095,111317
109064,111319
108973,111254
108990,111250
109078,111287
109069,111331
109016,111261
108983,111231
108951,111227
109029,111298
109017,111296
109007,111240
108932,111237
108937,111210
109020,111277
108991,111275
108973,111272
108918,111184
108947,111261
109006,111267
109026,111264
108985,111227
108954,111236
108939,111236
109062,111268
109055,111287
109076,111279
108980,111241
109006,111260
109147,111325
109116,111336
109113,111296
109027,111241
109109,111305
109181,111337
109216,111364
109181,111361
109119,111287
109180,111342
109214,111401
109221,111342
109238,111369
109130,111303
109209,111357
109313,111408
109294,111386
109284,111393
109189,111290
109264,111381
109338,111424
109350,111410
109292,111384
109256,111343
109329,111400
109350,111407
109360,111433
109322,111402
109258,111358
109347,111419
109365,111421
109382,111427
109355,111423
109300,111388
109345,111433
109393,111439
109413,111461
109381,111460
109319,111391
109422,111454
109417,111480
109446,111439
109401,111436
109398,111418
109461,111473
109541,111530
109512,111474
109524,111457
109456,111437
109535,111479
109629,111556
109619,111521
109563,111495
109560,111471
109579,111543
109684,111525
109655,111552
109595,111500
109566,111516
109647,111534
109737,111569
109696,111568
109646,111496
109642,111528
109710,111573
109779,111602
109722,111571
109702,111548
109683,111547
109757,111589
109821,111615
109792,111619
109720,111584
109723,111548
109784,111593
109873,111637
109818,111608
109749,111585
109756,111577
109829,111646
109879,111647
109827,111602
109808,111575
109786,111617
109832,111616
109952,111644
109893,111621
109883,111602
109854,111625
109921,111659
110032,111688
109984,111681
109962,111597
109935,111655
110035,111700
110077,111704
110023,111712
109979,111609
110006,111682
110088,111721
110105,111723
110097,111715
109997,111637
110053,111712
110126,111748
110164,111773
110099,111724
110087,111689
110089,111752
110201,111749
110261,111799
110210,111786
110158,111722
110204,111762
110303,111816
110333,111839
110307,111800
110285,111772
110363,111845
110384,111896
110434,111847
110445,111874
110382,111798
110409,111864
110493,111909
110485,111906
110474,111907
110397,111802
110472,111862
110534,111910
110543,111934
110481,111910
110406,111821
110451,111893
110467,111914
110418,111856
110341,111813
110192,111742
110180,111704
110178,111720
110061,111677
109944,111627
109809,111555
109755,111547
109734,111517
109670,111494
109557,111440
109397,111345
109433,111384
109404,111414
109339,111311
109291,111308
109171,111224
109171,111261
109232,111332
109211,111295
109112,111262
109033,111176
109109,111245
109136,111288
109115,111268
109087,111223
109065,111236
109139,111239
109155,111304
109127,111256
109144,111247
109084,111248
109171,111256
109263,111327
109218,111289
109202,111268
109182,111227
109284,111338
109315,111369
109293,111289
109255,111287
109236,111293
109299,111313
109346,111359
109310,111337
109284,111289
109231,111299
109303,111346
109355,111343
109286,111337
109212,111282
109200,111281
109273,111324
109314,111344
109272,111293
109177,111234
109182,111275
109220,111301
109250,111326
109238,111293
109150,111268
109166,111262
109248,111314
109275,111323
109257,111306
109167,111267
109170,111258
109263,111302
109278,111341
109233,111281
109167,111245
109124,111269
109221,111274
109263,111315
109184,111257
109130,111212
109108,111243
109194,111263
109216,111273
109156,111262
109048,111196
109097,111245
109181,111270
109181,111272
109148,111218
109080,111210
109096,111183
109194,111241
109233,111285
109154,111244
109111,111207
109119,111234
109209,111252
109232,111300
109203,111243
109144,111212
109190,111227
109292,111327
109255,111304
109217,111275
109127,111248
109203,111278
109307,111305
109270,111291
109265,111266
109191,111243
109239,111288
109331,111347
109363,111330
109305,111340
109227,111256
109322,111342
109408,111358
109353,111356
109361,111328
109319,111316
109367,111319
109449,111407
109449,111366
109417,111369
109361,111323
109445,111389
109510,111410
109504,111382
109463,111361
109418,111370
109515,111392
109572,111457
109563,111426
109535,111431
109491,111375
109584,111452
109671,111495
109634,111476
109604,111447
109594,111404
109676,111489
109739,111513
109695,111485
109686,111494
109652,111459
109732,111523
109799,111547
109807,111507
109777,111534
109719,111525
109840,111537
109886,111577
109889,111560
109814,111566
109765,111496
109879,111596
109908,111606
109903,111567
109837,111513
109826,111529
109890,111580
109921,111592
109885,111540
109851,111544
109788,111536
109902,111551
109940,111591
109871,111575
109848,111562
109827,111546
109908,111575
109966,111615
109897,111563
109845,111547
109861,111550
109921,111609
109944,111599
109940,111576
109913,111552
109838,111536
109984,111610
109994,111613
109974,111593
109923,111567
109900,111560
110008,111609
110029,111645
110018,111625
109972,111552
109948,111597
110061,111647
110087,111656
110050,111658
109990,111591
110044,111621
110112,111653
110127,111687
110120,111657
110066,111601
110087,111662
110178,111694
110222,111720
110215,111702
110132,111642
110169,111670
110268,111737
110267,111723
110251,111716
110168,111679
110222,111725
110304,111759
110304,111731
110301,111734
110253,111696
110320,111741
110381,111781
110409,111786
110403,111759
110365,111733
110411,111787
110510,111816
110564,111817
110535,111840
110496,111771
110614,111860
110668,111888
110725,111881
110717,111914
110606,111841
110688,111913
110740,111891
110698,111913
110693,111880
110571,111821
110602,111823
110673,111884
110545,111854
110473,111770
110357,111699
110322,111715
110293,111701
110195,111650
110065,111558
109895,111473
109869,111506
109807,111491
109700,111378
109597,111361
109450,111258
109435,111260
109393,111269
109330,111222
109191,111182
109053,111086
109124,111135
109120,111134
109041,111102
109006,111081
108922,111027
108993,111056
109021,111083
108981,111089
108912,111026
108860,111022
108946,111054
109014,111106
108967,111098
108959,111038
108912,111038
108983,111090
109070,111133
109032,111103
109005,111095
108971,111074
109060,111110
109099,111190
109071,111128
109028,111113
108999,111103
109114,111136
109166,111199
109130,111147
109053,111126
109042,111122
109096,111175
109134,111178
109097,111130
109040,111116
109025,111114
109062,111149
109098,111158
109071,111119
108968,111104
108938,111082
109051,111121
109061,111122
108979,111101
108954,111053
108933,111065
108953,111108
109037,111124
109013,111097
108928,111089
108910,111074
109018,111115
109032,111147
109027,111117
108912,111039
108955,111074
109005,111109
109046,111118
108997,111108
108875,110994
108935,111072
108960,111086
108984,111105
108933,111057
108853,110993
108886,111032
108962,111073
108932,111073
108927,111062
108863,110998
108863,111014
108930,111065
108929,111044
108942,111079
108892,110993
108900,111025
108999,111105
109022,111079
108992,111072
108930,111020
108998,111075
109063,111120
109068,111120
109048,111114
109000,111061
109077,111091
109095,111163
109160,111156
109131,111134
109062,111100
109154,111169
109251,111208
109212,111189
109183,111204
109149,111170
109243,111205
109310,111254
109329,111249
109272,111235
109222,111204
109293,111258
109374,111299
109377,111277
109340,111267
109297,111236
109392,111282
109414,111334
109443,111323
109411,111320
109382,111264
109446,111338
109524,111348
109498,111329
109493,111328
109428,111297
109550,111352
109565,111379
109553,111364
109533,111343
109499,111308
109601,111371
109614,111406
109621,111390
109608,111352
109514,111334
109641,111399
109681,111407
109682,111404
109649,111379
109575,111350
109656,111391
109716,111425
109677,111408
109648,111381
109590,111340
109651,111413
109719,111428
109684,111410
109613,111376
109578,111358
109658,111430
109712,111429
109639,111413
109611,111376
109579,111348
109640,111402
109697,111448
109633,111404
109595,111374
109581,111346
109637,111405
109685,111450
109660,111401
109613,111369
109630,111361
109695,111420
109727,111432
109680,111395
109639,111363
109645,111393
109698,111441
109744,111450
109738,111430
109666,111376
109647,111404
109739,111462
109805,111447
109732,111447
109683,111394
109727,111423
109825,111474
109847,111492
109791,111459
109770,111415
109812,111450
109875,111511
109891,111512
109903,111503
109806,111440
109865,111467
109971,111544
109987,111544
109977,111523
109855,111482
109963,111526
110032,111577
110079,111579
110068,111572
109991,111495
110069,111557
110176,111586
110180,111623
110183,111588
110107,111566
110200,111616
110276,111647
110262,111638
110268,111634
110227,111614
110292,111652
110392,111703
110378,111684
110351,111692
110289,111626
110366,111677
110452,111745
110454,111720
110467,111710
110363,111686
110469,111748
110577,111808
110562,111747
110576,111769
110495,111768
110635,111792
110677,111828
110688,111838
110634,111815
110587,111755
110624,111804
110666,111849
110614,111800
110538,111742
110388,111645
110356,111695
110343,111681
110262,111601
110100,111535
109953,111428
109920,111452
109883,111445
109778,111373
109628,111324
109499,111247
109495,111267
109475,111215
109412,111222
109265,111125
109196,111094
109217,111125
109231,111147
109135,111099
109065,111035
109046,111030
109101,111058
109108,111087
109090,111056
109014,111032
109029,111019
109100,111082
109181,111140
109160,111102
109105,111088
109120,111077
109225,111147
109278,111152
109250,111162
109229,111136
109220,111176
109336,111188
109370,111254
109378,111225
109330,111213
109303,111178
109361,111235
109444,111288
109432,111239
109363,111220
109321,111214
109429,111264
109422,111295
109406,111236
109362,111198
109306,111217
109365,111250
109413,111267
109348,111222
109286,111148
109274,111203
109350,111235
109375,111224
109317,111202
109264,111155
109290,111172
109329,111228
109364,111233
109330,111183
109224,111166
109284,111183
109346,111213
109366,111248
109357,111232
109254,111176
109277,111193
109333,111222
109345,111203
109301,111210
109211,111173
109241,111140
109314,111198
109262,111183
109266,111147
109178,111084
109218,111125
109258,111174
109268,111132
109228,111107
109165,111089
109198,111114
109245,111161
109247,111157
109245,111147
109119,111078
109229,111122
109296,111167
109271,111167
109239,111150
109165,111101
109261,111194
109321,111178
109280,111189
109278,111178
109223,111110
109271,111178
109354,111225
109371,111225
109349,111176
109284,111183
109340,111212
109467,111268
109444,111270
109435,111230
109375,111209
109438,111251
109548,111326
109542,111293
109514,111285
109505,111247
109578,111289
109675,111355
109626,111334
109630,111323
109558,111256
109697,111362
109726,111406
109740,111349
109697,111365
109637,111330
109744,111383
109805,111443
109794,111372
109732,111360
109721,111333
109792,111422
109810,111426
109817,111415
109794,111397
109740,111380
109844,111418
109865,111446
109834,111411
109808,111375
109769,111387
109839,111399
109918,111442
109879,111446
109780,111386
109784,111379
109870,111435
109921,111454
109841,111421
109818,111392
109818,111394
109891,111435
109954,111464
109872,111464
109839,111387
109832,111372
109891,111476
109941,111486
109923,111439
109865,111401
109855,111428
109958,111458
109996,111493
109954,111463
109897,111439
109910,111422
110043,111582
110048,111492
110020,111471
109979,111534
109986,111485
110072,111531
110109,111571
110092,111513
110045,111526
110049,111525
110133,111585
110164,111615
110105,111559
110082,111493
110134,111591
110187,111570
110216,111608
110156,111568
110099,111565
110123,111597
110220,111572
110243,111608
110209,111656
110130,111566
110157,111573
110249,111622
110270,111641
110297,111642
110196,111562
110271,111608
110386,111714
110356,111649
110371,111669
110295,111653
110353,111637
110467,111746
110406,111689
110390,111672
110308,111605
110431,111720
110473,111730
110467,111725
110439,111682
110393,111642
110437,111720
110504,111774
110520,111703
110510,111755
110454,111669
110527,111781
110589,111769
110625,111758
110649,111734
110584,111708
110720,111805
110781,111878
110819,111834
110813,111844
110794,111835
110835,111849
110926,111911
110874,111864
110810,111842
110640,111756
110604,111718
110575,111702
110470,111621
110293,111561
110170,111526
110123,111520
110068,111512
109973,111450
109852,111374
109705,111294
109736,111325
109717,111303
109611,111272
109527,111204
109427,111174
109449,111160
109451,111183
109406,111133
109349,111131
109272,111102
109349,111122
109378,111156
109335,111112
109284,111080
109275,111055
109394,111158
109437,111155
109403,111142
109390,111118
109376,111155
109437,111149
109507,111256
109457,111171
109403,111123
109445,111168
109481,111220
109548,111230
109485,111205
109453,111191
109441,111173
109530,111217
109522,111255
109531,111222
109457,111186
109457,111187
109505,111226
109550,111213
109492,111198
109420,111141
109418,111205
109436,111205
109475,111218
109414,111172
109349,111117
109324,111124
109422,111203
109431,111196
109382,111172
109302,111131
109341,111162
109390,111177
109393,111199
109364,111184
109322,111139
109354,111188
109424,111181
109438,111202
109428,111203
109329,111122
109355,111157
109406,111206
109411,111214
109358,111152
109265,111093
109313,111158
109334,111145
109325,111162
109329,111147
109212,111067
109269,111105
109320,111137
109325,111141
109245,111084
109209,111056
109234,111108
109288,111092
109279,111094
109265,111087
109175,111044
109219,111076
109267,111139
109303,111107
109248,111091
109191,111074
109253,111125
109310,111135
109278,111130
109295,111127
109218,111077
109248,111136
109338,111171
109313,111155
109279,111130
109268,111096
109306,111136
109383,111163
109335,111139
109325,111130
109248,111099
109375,111141
109423,111202
109412,111193
109368,111161
109329,111135
109383,111189
109487,111254
109472,111206
109410,111189
109385,111181
109451,111224
109520,111256
109475,111209
109438,111191
109386,111172
109512,111227
109561,111272
109522,111205
109477,111196
109431,111178
109528,111260
109586,111249
109580,111235
109490,111217
109509,111198
109632,111257
109657,111256
109605,111256
109578,111227
109571,111260
109660,111299
109722,111315
109665,111298
109625,111266
109602,111244
109699,111294
109762,111336
109724,111313
109659,111257
109670,111271
109757,111338
109796,111313
109759,111308
109696,111292
109696,111281
109803,111300
109791,111353
109787,111342
109727,111275
109690,111280
109775,111338
109820,111363
109801,111325
109699,111277
109720,111303
109799,111349
109848,111368
109779,111316
109732,111297
109752,111291
109776,111344
109870,111369
109798,111333
109705,111290
109787,111334
109862,111375
109844,111361
109841,111346
109752,111309
109780,111311
109888,111387
109879,111384
109853,111337
109798,111329
109856,111370
109934,111409
109913,111363
109926,111340
109850,111330
109904,111359
109979,111400
110000,111390
109988,111369
109932,111354
110016,111392
110053,111423
110074,111465
110060,111440
109989,111363
110040,111418
110162,111486
110141,111483
110098,111461
110066,111407
110132,111505
110208,111514
110191,111483
110181,111484
110134,111466
110223,111526
110274,111542
110320,111544
110269,111524
110227,111474
110298,111569
110362,111578
110391,111595
110356,111576
110309,111507
110366,111561
110464,111649
110441,111628
110404,111584
110345,111534
110429,111612
110525,111639
110463,111632
110423,111590
110319,111535
110330,111544
110360,111564
110248,111506
110136,111423
109996,111361
109982,111376
109978,111377
109840,111297
109732,111244
109587,111179
109585,111193
109589,111209
109449,111126
109356,111063
109250,111032
109269,111052
109247,111055
109209,111040
109056,110934
109007,110916
109075,110976
109107,110957
109057,110951
108973,110902
108902,110894
109009,110950
109030,110948
109006,110934
108955,110891
108898,110887
108981,110951
109049,110959
109012,110924
108988,110886
108938,110912
109018,110955
109093,110974
109056,110951
109026,110916
109004,110894
109074,110946
109130,111003
109088,110970
109025,110911
109059,110947
109099,110981
109152,110994
109115,110976
109018,110923
109038,110916
109152,110989
109167,111004
109103,110953
109010,110890
109079,110924
109131,110964
109119,110965
109121,110918
109045,110909
109060,110929
109121,110970
109164,110969
109127,110974
109057,110938
109119,110936
109165,110975
109211,111010
109163,110989
109106,110950
109139,110989
109193,111034
109220,111015
109183,110985
109130,110934
109186,110979
109208,111014
109262,111013
109204,111008
109121,110918
109201,110996
109281,111012
109265,111015
109208,111011
109132,110910
109219,111002
109276,111022
109253,111027
109200,110973
109157,110929
109201,110988
109314,111015
109274,111005
109280,110990
109172,110977
109261,110986
109331,111036
109316,111032
109294,111007
109233,110962
109315,111010
109402,111096
109400,111070
109333,111036
109302,110978
109409,111074
109479,111109
109460,111073
109471,111056
109405,111058
109472,111088
109586,111120
109560,111142
109503,111139
109466,111076
109597,111159
109667,111194
109647,111177
109650,111148
109589,111155
109724,111193
109774,111245
109742,111223
109737,111169
109707,111169
109846,111260
109884,111305
109901,111259
109889,111274
109861,111232
109972,111323
110026,111331
110044,111331
110003,111326
109965,111279
110083,111355
110122,111396
110080,111376
110052,111362
110021,111329
110132,111406
110170,111397
110130,111378
110114,111338
110089,111389
110146,111385
110207,111416
110139,111410
110099,111359
110091,111350
110201,111404
110232,111452
110206,111423
110151,111388
110124,111385
110217,111449
110240,111440
110242,111442
110209,111402
110184,111416
110310,111482
110309,111498
110273,111478
110202,111409
110256,111443
110329,111485
110389,111502
110340,111465
110295,111465
110315,111496
110410,111504
110409,111541
110376,111522
110311,111465
110350,111507
110455,111545
110445,111544
110434,111527
110358,111477
110396,111543
110464,111568
110499,111555
110452,111563
110356,111494
110449,111531
110485,111593
110544,111618
110519,111578
110459,111535
110485,111578
110577,111644
110565,111611
110586,111623
110516,111569
110571,111605
110670,111677
110668,111646
110661,111637
110600,111592
110668,111675
110754,111692
110782,111711
110753,111693
110696,111638
110732,111701
110838,111753
110838,111749
110799,111688
110764,111643
110812,111752
110899,111769
110872,111738
110830,111727
110747,111661
110848,111734
110917,111761
110878,111751
110841,111698
110763,111651
110814,111728
110882,111756
110833,111720
110790,111701
110693,111642
110739,111655
110700,111689
110644,111614
110559,111555
110358,111505
110390,111504
110326,111474
110232,111429
110093,111356
109978,111273
110005,111307
109960,111287
109839,111232
109761,111168
109675,111148
109677,111152
109688,111173
109604,111112
109531,111081
109447,111071
109535,111074
109531,111087
109507,111065
109438,111028
109386,111029
109486,111041
109527,111093
109508,111061
109421,111052
109442,111031
109536,111097
109577,111131
109554,111082
109521,111062
109552,111068
109619,111142
109669,111125
109651,111142
109633,111101
109609,111096
109711,111148
109739,111204
109704,111147
109678,111131
109675,111101
109722,111169
109763,111176
109712,111171
109664,111109
109676,111160
109715,111172
109743,111187
109732,111138
109634,111094
109668,111121
109738,111176
109739,111171
109674,111125
109630,111101
109660,111151
109744,111177
109751,111156
109739,111154
109676,111102
109705,111168
109795,111181
109801,111200
109806,111193
109696,111127
109714,111170
109828,111242
109796,111206
109771,111202
109692,111096
109747,111167
109773,111189
109759,111180
109717,111125
109646,111096
109701,111134
109743,111127
109701,111165
109683,111115
109631,111085
109710,111101
109753,111160
109740,111142
109666,111117
109621,111061
109734,111124
109758,111165
109718,111133
109737,111121
109659,111102
109713,111115
109796,111206
109760,111173
109752,111133
109707,111112
109736,111186
109814,111202
109820,111198
109764,111177
109677,111159
109786,111201
109850,111220
109859,111220
109790,111187
109748,111150
109855,111228
109870,111201
109854,111212
109845,111218
109809,111166
109878,111233
109938,111265
109939,111231
109869,111191
109820,111208
109900,111250
109937,111290
109924,111236
109857,111223
109833,111198
