11111,11111
0,0
82524,82521
135603,109319
139652,109367
139639,109413
139649,109367
139618,109319
139590,109284
139639,109343
139681,109394
139636,109321
139668,109307
139648,109341
139660,109335
139727,109391
139720,109334
139691,109280
139738,109341
139718,109360
139745,109372
139784,109362
139746,109312
139752,109332
139795,109354
139830,109433
139795,109378
139807,109333
139808,109340
139860,109396
139877,109430
139857,109399
139841,109317
139864,109321
139836,109416
139867,109378
139849,109410
139752,109294
139785,109315
139802,109360
139752,109372
139697,109264
139644,109273
139590,109253
139574,109231
139556,109231
139484,109229
139416,109161
139413,109149
139394,109196
139289,109165
139284,109091
139242,109079
139242,109074
139221,109118
139155,109121
139127,109064
139102,109001
139058,109010
139089,109054
139045,109051
139010,108983
138987,108978
138982,108976
138989,109022
138962,108992
138990,109025
138944,108949
138983,108976
138933,108999
138991,108994
138923,108961
138934,108924
138930,108980
138964,108982
138939,108978
138913,108955
138929,108938
138933,108954
138975,108965
138959,108956
138966,108954
138949,108904
138992,108984
138978,108991
139000,108951
139026,108948
139039,108949
139021,109013
139043,108974
139109,109007
139051,109003
139082,108953
139112,109000
139137,109000
139117,109001
139087,109004
139111,108956
139140,108986
139118,108998
139125,108968
139119,109005
139079,108936
139156,108981
139139,108980
139084,109000
139097,108996
139057,108951
139123,108949
139123,109014
139108,109001
139100,108924
139086,108927
139090,108927
139116,108962
139090,108981
139038,108927
139055,108909
139012,108934
139026,108923
139041,108949
139009,108894
138980,108903
139032,108910
139038,108923
139012,108901
139101,108933
139288,108954
139304,108946
139177,108862
139181,108887
139103,108854
139079,108836
138299,108517
138264,108547
138291,108521
138248,108528
138267,108510
138147,108463
138131,108454
138157,108422
138165,108457
138202,108486
138190,108464
138235,108467
138218,108489
138262,108517
138270,108513
138246,108511
138274,108474
138308,108485
138290,108520
138328,108539
138335,108499
138355,108514
138314,108461
138335,108550
138355,108530
138368,108514
138326,108510
138283,108456
138320,108482
138313,108475
138281,108495
138254,108458
138216,108401
138244,108466
138247,108437
138161,108433
138187,108413
138149,108423
138132,108388
138142,108405
138133,108410
138086,108373
138096,108369
138105,108370
138107,108391
138090,108404
138045,108334
138077,108354
138070,108379
138108,108393
138034,108382
138060,108337
138065,108325
138065,108406
138080,108398
138058,108354
138081,108340
138057,108360
138015,108329
138042,108337
138018,108329
138023,108313
137946,108321
137970,108284
137944,108277
137915,108291
137884,108245
137850,108268
137844,108257
137845,108274
137784,108225
137788,108191
137768,108203
137740,108192
137773,108204
137723,108218
137671,108157
137704,108141
137707,108209
137740,108194
137704,108200
137711,108171
137701,108147
137737,108224
137729,108229
137766,108216
137741,108196
137746,108198
137789,108244
137761,108261
137816,108244
137778,108172
137854,108225
137817,108256
137854,108276
137882,108243
137902,108262
137915,108250
137915,108316
137956,108304
137955,108284
137970,108253
137968,108290
138043,108337
138027,108322
138024,108335
138039,108281
138097,108337
138093,108359
138132,108364
138082,108347
138100,108313
138101,108356
138096,108355
138062,108360
138047,108344
137974,108296
137291,108012
137263,108087
137278,108046
137244,108065
137223,108060
137187,107995
137265,108039
137226,108040
137191,108024
137213,108018
137181,108006
137226,108015
137232,108073
137193,108032
137207,108024
137219,107998
137262,108045
137274,108089
137237,108058
137271,108040
137252,108057
137313,108059
137343,108112
137319,108097
137389,108083
137382,108106
137403,108130
137419,108142
137441,108112
137467,108153
137446,108134
137513,108137
137494,108183
137534,108153
137526,108137
137546,108176
137540,108151
137571,108181
137563,108174
137561,108183
137589,108159
137599,108162
137630,108212
137594,108207
137598,108175
137611,108172
137608,108188
137674,108223
137612,108236
137634,108192
137596,108180
137677,108232
137592,108234
137639,108183
137645,108207
137612,108179
137653,108220
137629,108209
137642,108186
137614,108184
137589,108156
137622,108199
137631,108247
137605,108183
137625,108191
137631,108173
137612,108207
137652,108187
137639,108222
137644,108181
137625,108183
137642,108242
137634,108195
137676,108225
137652,108227
137655,108207
137732,108241
137711,108266
137713,108204
137699,108203
137747,108213
137783,108253
137772,108260
137794,108280
137759,108233
137762,108223
137820,108308
137809,108306
137838,108270
137819,108238
137836,108274
137880,108328
137871,108331
137884,108299
137875,108290
137865,108285
137901,108287
137908,108299
137929,108322
137904,108317
137884,108273
137936,108313
137970,108346
137943,108297
137937,108284
138005,108324
137980,108349
138030,108375
138061,108370
138053,108338
138060,108345
138088,108361
138134,108352
138122,108414
138085,108352
138129,108354
138139,108407
138180,108392
138178,108373
138178,108384
138147,108413
138175,108418
138175,108405
138208,108418
138189,108387
138240,108381
138271,108447
138269,108434
138232,108429
138238,108405
138191,108391
138267,108411
138167,108420
138149,108367
138093,108342
138027,108329
138037,108312
137967,108320
137916,108233
137829,108203
137828,108254
137755,108228
137719,108221
137630,108176
137567,108096
137516,108147
137502,108152
137438,108104
137400,108097
137313,108027
137326,108041
137253,108051
137266,108045
137176,108012
137133,107958
137160,108028
137105,107977
137069,107990
137054,107937
137027,107918
136988,107948
137028,107978
137008,107927
136992,107908
136963,107919
137017,107929
137003,107955
136989,107946
137016,107925
136982,107924
137030,107928
136998,107972
137048,107961
136990,107907
137016,107928
137055,107959
137041,107941
137025,107947
137059,107938
137060,107915
137048,107978
137058,107952
137093,107983
137076,107951
137117,107952
137144,108001
137165,107990
137199,107988
137155,107988
137197,107965
137224,108037
137223,108013
137283,108045
137274,107980
137268,108019
137289,108014
137312,108038
137273,108062
137299,107989
137311,107997
137299,108014
137346,108068
137269,108057
137300,108029
137267,108010
137274,108018
137277,108019
137281,108037
137265,107999
137226,107999
137244,108013
137216,108008
137252,108004
137208,107956
137232,107989
137240,107982
137215,108018
137225,107981
137212,107949
137208,107999
137254,108003
137289,108020
137245,108006
137242,107965
137265,107992
137260,108041
137239,108040
137309,107985
137269,108007
137274,108001
137311,108040
137292,108021
137356,108054
137329,107998
137321,108021
137335,108027
137341,108066
137365,108029
137362,108004
137345,108018
137390,108047
137379,108046
137392,108069
137370,108022
137366,108028
137361,108044
137405,108055
137356,108041
137398,108044
137379,108027
137390,108073
137397,108053
137410,108052
137363,108005
137428,108054
137426,108049
137411,108064
137432,108071
137425,108011
137468,108065
137447,108066
137458,108049
137451,108057
137430,108019
137465,108041
137463,108077
137502,108077
137502,108044
137525,108049
137507,108083
137571,108077
137542,108108
137579,108129
137543,108075
137614,108074
137624,108121
137654,108157
137650,108091
137688,108120
137679,108174
137717,108183
137694,108148
137733,108166
137728,108154
137759,108154
137765,108150
137798,108209
137708,108151
137723,108135
137726,108186
137681,108120
137645,108091
137600,108106
137508,108060
137454,108019
137441,108045
137350,108030
137247,107939
137171,107893
137102,107899
137076,107899
136980,107892
136883,107807
136827,107756
136791,107767
136716,107775
136633,107697
136579,107722
136480,107657
136434,107642
136416,107635
136330,107645
136280,107567
136239,107561
136209,107566
136213,107572
136141,107578
136097,107509
136079,107508
136105,107534
136071,107561
136030,107523
136085,107543
136035,107519
136065,107555
136059,107549
136074,107506
136065,107543
136049,107496
136088,107570
136099,107568
136139,107567
136114,107515
136161,107532
136172,107600
136194,107588
136238,107588
136202,107537
136236,107549
136237,107599
136305,107599
136329,107635
136323,107598
136363,107639
136376,107652
136440,107674
136369,107681
136387,107659
136385,107639
136430,107690
136439,107665
136502,107671
136449,107670
136474,107636
136490,107723
136495,107689
136497,107669
136482,107664
136510,107679
136533,107701
136483,107694
136517,107678
136493,107670
136470,107665
136539,107675
136508,107691
136514,107683
136456,107623
136479,107663
136469,107704
136465,107667
136471,107689
136477,107644
136428,107651
136477,107698
136470,107689
136420,107617
136406,107612
136442,107648
136427,107675
136383,107629
136407,107618
136384,107614
136409,107609
136399,107659
136412,107645
136414,107623
136391,107589
136411,107655
136421,107647
136404,107654
136434,107621
136438,107607
136506,107668
136493,107660
136514,107677
136538,107678
136565,107668
136527,107706
136591,107685
136650,107715
136636,107702
136615,107698
136635,107695
136689,107761
136676,107771
136668,107706
136689,107706
136703,107726
136745,107762
136781,107733
136758,107795
136724,107730
136833,107775
136798,107769
136852,107785
136865,107781
136861,107793
136862,107818
136897,107828
136925,107808
136899,107803
136918,107766
136958,107830
136957,107836
136979,107857
136961,107833
136983,107836
137024,107824
137054,107886
137047,107875
137096,107879
137074,107869
137134,107860
137178,107899
137169,107889
137138,107903
137167,107883
137226,107892
137207,107925
137241,107916
137247,107933
137226,107895
137289,107916
137286,107945
137297,107951
137259,107905
137296,107909
137242,107947
137239,107944
137175,107931
137160,107856
137092,107850
137027,107832
137020,107817
136873,107768
136818,107730
136737,107711
136684,107703
136574,107682
136526,107615
136419,107580
136336,107549
136287,107553
136143,107533
136084,107448
136017,107442
135887,107371
135891,107390
135776,107368
135771,107329
135688,107342
135622,107282
135617,107335
135572,107304
135573,107278
135507,107279
135468,107219
135511,107267
135465,107268
135396,107226
135440,107225
135390,107195
135414,107230
135391,107208
135385,107200
135352,107200
135338,107189
135422,107208
135400,107274
135401,107200
135424,107188
135412,107217
135435,107236
135483,107236
135484,107277
135483,107205
135506,107243
135508,107274
135587,107263
135575,107305
135594,107252
135618,107280
135598,107321
135645,107318
135682,107294
135687,107310
135692,107262
135712,107337
135696,107344
135704,107331
135713,107282
135783,107314
135752,107389
135779,107341
135802,107340
135778,107338
135788,107351
135796,107324
135804,107357
135789,107347
135766,107314
135743,107340
135769,107335
135808,107355
135706,107305
135703,107328
135700,107294
135699,107345
135696,107303
135733,107317
135647,107257
135689,107286
135663,107307
135699,107315
135680,107296
135648,107243
135635,107307
135690,107306
135655,107304
135674,107307
135592,107253
135631,107250
135683,107314
135662,107309
135663,107275
135618,107214
135659,107265
135663,107316
135634,107269
135681,107269
135707,107283
135706,107324
135721,107343
135695,107277
135739,107301
135735,107282
135755,107327
135766,107348
135772,107323
135753,107343
135744,107275
135816,107326
135820,107337
135835,107341
135822,107306
135810,107305
135848,107373
135881,107369
135881,107360
135918,107357
135913,107354
135898,107359
135946,107388
135993,107410
135969,107390
136018,107388
135994,107430
136048,107404
136096,107461
136084,107436
136093,107407
136103,107489
136105,107467
136144,107441
136156,107478
136151,107422
136229,107499
136210,107481
136231,107477
136247,107478
136221,107491
136274,107484
136264,107505
136314,107527
136262,107473
136284,107473
136339,107553
136357,107542
136373,107522
136351,107528
136314,107521
136377,107522
136390,107577
136394,107532
136348,107514
136325,107486
136325,107503
136296,107483
136248,107485
136193,107397
136092,107397
136057,107377
136001,107406
135887,107357
135822,107283
135741,107277
135617,107242
135545,107217
135444,107200
135324,107094
135244,107075
135153,107036
135099,107043
134948,106995
134880,106918
134830,106942
134732,106893
134687,106865
134608,106837
134556,106819
134471,106834
134468,106754
134423,106768
134396,106773
134372,106751
134346,106770
134313,106736
134350,106754
134361,106763
134335,106753
134289,106764
134374,106798
134376,106802
134402,106756
134422,106775
134450,106816
134473,106852
134493,106833
134525,106841
134518,106837
134587,106849
134601,106905
134645,106883
134667,106863
134700,106882
134764,106935
134801,106954
134803,106963
134851,106956
134903,106959
134888,106978
134974,107011
135003,107028
135015,107027
135003,107004
135044,107048
135048,106996
135061,107055
135096,107024
135075,106981
135085,107043
135153,107075
135158,107063
135120,107044
135166,107060
135178,107049
135154,107086
135211,107090
135206,107081
135136,107030
135213,107051
135190,107077
135210,107089
135197,107051
135142,107031
135196,107068
135190,107072
135147,107065
135144,107064
135121,107006
135109,107040
135149,107067
135131,107071
135091,107008
135085,106999
135081,107021
135080,107012
135090,107015
135119,107031
135096,107015
135071,107020
135105,107016
135090,107043
135038,106985
135061,106999
135077,107011
135068,107037
135102,107048
135069,107024
135081,107012
135087,106996
135113,107042
135155,107043
135104,107018
135132,107020
135128,107063
135164,107061
135157,107036
135127,107051
135096,107017
135147,107031
135164,107048
135201,107068
135155,107048
135181,107010
135242,107079
135253,107060
135255,107105
135273,107067
135294,107102
135315,107095
135321,107129
135401,107155
135384,107132
135388,107128
135447,107167
135443,107173
135436,107136
135476,107192
135494,107179
135521,107175
135532,107171
135543,107201
135522,107136
135564,107166
135581,107223
135614,107221
135644,107263
135637,107186
135662,107221
135703,107249
135721,107277
135696,107266
135694,107269
135692,107238
135744,107281
135749,107305
135785,107286
135747,107281
135810,107282
135842,107343
135852,107338
135830,107287
135813,107286
135809,107279
135814,107324
135797,107272
135763,107256
135728,107261
135653,107209
135652,107235
135603,107204
135534,107157
135484,107135
135373,107153
135315,107108
135252,107114
135152,107042
135085,106992
134987,106988
134913,106942
134860,106978
134770,106906
134699,106859
134580,106844
134537,106861
134492,106815
134461,106806
134388,106743
134326,106763
134317,106735
134310,106729
134233,106741
134198,106688
134209,106686
134216,106706
134215,106729
134176,106664
134180,106656
134202,106708
134207,106696
134265,106750
134242,106764
134254,106693
134324,106734
134351,106784
134368,106799
134382,106770
134419,106753
134399,106795
134516,106840
134493,106841
134518,106870
134520,106815
134585,106843
134591,106899
134586,106902
134596,106901
134624,106870
134698,106948
134757,106938
134799,106931
134816,106978
134817,106963
134904,106990
134927,106996
135012,107036
135007,107070
135019,106994
135073,107065
135152,107108
135141,107079
135158,107108
135154,107056
135191,107142
135211,107136
135261,107115
135263,107138
135205,107108
135252,107086
135294,107157
135301,107136
135280,107129
135296,107095
135297,107164
135275,107143
135316,107161
135300,107119
135330,107112
135308,107151
135339,107187
135308,107146
135338,107145
135333,107132
135299,107169
135361,107211
135377,107171
135323,107151
135349,107152
135372,107178
135383,107154
135392,107166
135331,107170
135375,107147
135458,107218
135457,107234
135433,107250
135460,107178
135510,107204
135493,107281
135526,107239
135537,107264
135537,107229
135586,107258
135631,107263
135657,107333
135651,107291
135687,107259
135732,107275
135752,107344
135742,107344
135786,107372
135802,107349
135825,107316
135866,107375
135902,107378
135987,107424
135930,107380
135991,107377
136015,107435
136045,107484
136081,107457
136113,107437
136168,107480
136180,107492
136239,107497
136215,107521
136231,107507
136273,107480
136333,107555
136333,107546
136355,107559
136403,107547
136366,107573
136454,107569
136495,107611
136478,107578
136522,107600
136501,107588
136556,107608
136606,107621
136554,107610
136632,107635
136636,107619
136700,107694
136711,107696
136713,107680
136777,107673
136805,107735
136833,107712
136871,107746
136853,107747
136856,107731
136861,107708
136873,107737
136882,107725
136821,107716
136744,107670
136733,107641
136680,107695
136604,107613
136541,107600
136405,107558
136357,107515
136260,107526
136229,107513
136108,107437
136021,107370
135962,107389
135881,107372
135787,107340
135727,107272
135640,107281
135634,107255
135565,107212
135509,107208
135428,107214
135390,107152
135364,107153
135309,107198
135300,107155
135282,107103
135275,107124
135205,107154
135215,107111
135195,107121
135206,107073
135125,107085
135166,107051
135168,107128
135160,107074
135163,107107
135154,107063
135136,107106
135150,107082
135164,107069
135166,107093
135182,107063
135187,107128
135180,107106
135240,107084
135252,107149
135256,107107
135318,107160
135370,107175
135375,107199
135375,107141
135446,107188
135440,107226
135514,107238
135500,107232
135521,107231
135565,107245
135614,107253
135595,107274
135626,107260
135641,107291
135605,107272
135656,107261
135713,107332
135709,107273
135707,107296
135734,107311
135714,107320
135765,107324
135768,107355
135755,107276
135768,107290
135744,107286
135771,107300
135792,107353
135752,107280
135726,107294
135761,107283
135752,107339
135732,107282
135780,107308
135721,107279
135721,107304
135776,107309
135752,107280
135731,107322
135698,107258
135751,107306
135758,107324
135728,107319
135724,107236
135721,107283
135717,107320
135734,107284
135797,107311
135745,107272
135796,107299
135829,107347
135816,107381
135824,107312
135825,107322
135859,107321
135882,107333
135949,107351
135961,107361
135954,107332
136013,107378
135991,107384
136063,107387
136076,107443
136059,107405
136127,107401
136150,107470
136145,107461
136181,107457
136219,107423
136292,107488
136262,107483
136309,107489
136304,107513
136308,107487
136366,107496
136394,107573
136401,107538
136418,107565
136429,107501
136493,107549
136494,107579
136558,107576
136571,107606
136589,107573
136594,107587
136682,107624
136682,107652
136692,107628
136740,107634
136769,107650
136808,107715
136840,107725
136859,107685
136896,107683
136914,107728
136933,107763
136957,107752
136981,107758
136979,107701
137036,107723
137031,107796
137048,107770
137108,107751
137085,107780
137078,107807
137139,107780
137163,107819
137200,107801
137138,107794
137213,107830
137223,107829
137236,107818
137265,107828
137249,107775
137221,107802
137228,107841
137218,107814
137107,107777
137091,107737
137055,107743
137020,107747
136934,107718
136904,107688
136779,107615
136741,107648
136683,107612
136610,107588
136536,107557
136427,107502
136425,107509
136378,107514
136294,107475
136276,107442
136125,107406
136129,107406
136094,107390
136074,107363
135999,107362
135948,107315
135954,107306
135962,107339
135876,107321
135842,107299
135810,107263
135868,107278
135841,107322
135813,107268
135855,107272
135816,107255
135831,107252
135887,107306
135861,107321
135848,107241
135869,107256
135883,107312
135883,107322
135909,107297
135945,107338
135913,107319
135981,107327
135989,107367
136006,107348
136027,107358
135998,107341
136077,107352
136118,107405
136162,107405
136138,107405
136160,107386
136254,107410
136279,107450
136320,107491
136336,107457
136327,107459
136323,107454
136386,107533
136381,107483
136355,107476
136374,107473
136428,107462
136418,107482
136433,107499
136433,107484
136399,107473
136423,107465
136443,107487
136413,107468
136370,107447
136379,107435
136387,107489
136356,107456
136374,107475
136316,107420
136354,107427
136363,107443
136381,107510
136343,107462
136325,107384
136354,107449
136347,107477
136327,107500
136305,107414
136300,107401
136306,107429
136310,107453
136320,107455
136287,107419
136307,107416
136313,107426
136335,107443
136391,107452
136354,107428
136386,107436
136386,107452
136395,107455
136430,107475
136390,107479
136421,107434
136451,107459
136446,107495
136465,107507
136490,107500
136488,107479
136512,107459
136562,107549
136555,107541
136564,107544
136622,107540
136644,107562
136674,107543
136759,107600
136712,107580
136730,107578
136770,107598
136786,107609
136768,107606
136840,107605
136822,107614
136856,107638
136883,107620
136929,107651
136900,107684
136912,107629
137001,107646
136973,107693
137030,107707
137064,107655
137094,107682
137089,107735
137140,107724
137172,107750
137225,107736
137186,107763
137190,107730
137278,107769
137263,107784
137300,107775
137296,107767
137349,107758
137338,107844
137383,107807
137420,107798
137406,107786
137466,107802
137463,107868
137460,107852
137511,107828
137538,107854
137529,107857
137613,107871
137613,107903
137596,107879
137623,107848
137660,107889
137659,107944
137683,107914
137712,107907
137702,107867
137773,107946
137730,107938
137713,107918
137691,107900
137655,107865
137685,107892
137643,107877
137588,107857
137589,107851
137500,107805
137505,107819
137457,107842
137414,107781
137374,107775
137320,107731
137279,107732
137283,107751
137238,107731
137175,107644
137142,107661
137121,107678
137091,107633
137124,107662
137027,107626
136994,107580
137037,107603
136981,107624
136962,107618
136924,107575
136971,107569
136916,107621
136970,107628
136929,107598
136942,107549
136941,107562
136943,107615
136985,107591
136954,107574
136986,107583
136944,107573
137012,107606
136991,107632
136992,107585
136998,107623
137003,107598
137027,107621
137061,107634
137073,107645
137018,107592
137067,107582
137112,107660
137104,107657
137106,107622
137148,107667
137134,107641
137182,107702
137220,107712
137195,107685
137247,107682
137266,107701
137267,107697
137321,107729
137257,107720
137295,107689
137282,107699
137305,107726
137280,107699
137267,107698
137298,107679
137289,107700
137314,107739
137306,107721
137332,107683
137328,107683
137330,107718
137348,107716
137379,107745
137346,107775
137367,107690
137344,107737
137365,107745
137374,107750
137316,107743
137260,107669
137254,107696
137241,107670
137241,107685
137210,107680
137128,107616
137155,107623
137138,107665
137117,107661
137086,107609
137069,107635
137030,107612
137080,107617
137142,107657
137129,107635
137138,107644
137159,107690
137216,107662
137251,107693
137278,107710
137297,107682
137317,107745
137353,107770
137389,107769
137454,107770
137466,107760
137478,107811
137564,107808
137592,107855
137633,107861
137604,107829
137668,107839
137704,107887
137774,107884
137771,107894
137836,107900
137852,107945
137889,107948
137923,107974
137931,107952
137957,107919
138048,108010
138041,107987
138075,107989
138122,108020
138132,108011
138133,108042
138211,108056
138228,108067
138221,108029
138242,108033
138272,108064
138325,108094
138314,108100
138357,108062
138368,108085
138445,108124
138451,108166
138430,108139
138475,108098
138519,108150
138521,108190
138579,108175
138549,108173
138550,108162
138569,108116
138624,108169
138620,108161
138655,108202
138653,108205
138634,108190
138645,108168
138697,108233
138668,108206
138675,108195
138694,108201
138754,108193
138743,108237
138732,108204
138764,108181
138743,108183
138832,108238
138827,108274
138782,108246
138871,108215
138810,108198
138863,108253
138854,108267
138845,108239
138851,108254
138792,108216
138835,108255
138816,108224
138784,108218
138758,108176
138695,108176
138645,108158
138617,108171
138609,108122
138552,108118
138516,108104
138483,108065
138465,108089
138407,108060
138318,107985
138318,107996
138278,107977
138291,107999
138256,108012
138217,107941
138193,107976
138171,107980
138188,107974
138240,107956
138190,107979
138195,107949
138230,107994
138204,107959
138197,107968
138160,107924
138211,107934
138222,107989
138209,107943
138194,107958
138162,107949
138157,107917
138222,107983
138204,107958
138141,107942
138185,107945
138174,107950
138203,107980
138181,107959
138216,107932
138237,107965
138202,107950
138233,107965
138255,107959
138272,107994
138239,107974
138274,107962
138311,107996
138321,107997
138324,108030
138309,107963
138344,108006
138337,108009
138353,108010
138391,107996
138393,108004
138399,108014
138415,108017
138419,108009
138417,108029
138438,108001
138439,108017
138481,108034
138480,108041
138449,108023
138432,107992
138465,108001
138465,108032
138482,108046
138451,108035
138461,107998
138489,108009
138474,108006
138440,108014
138488,108004
138428,107990
138458,107998
138514,108055
138480,108024
138431,108012
138462,107990
138446,108015
138464,108005
138469,108031
138508,108018
138461,108013
138444,107998
138484,108028
138460,108025
138444,108006
138430,107958
138517,107981
138517,108034
138487,108012
138517,107991
138496,108018
138483,108012
138544,108039
138541,108021
138581,108046
138529,108026
138579,108008
138625,108096
138633,108058
138653,108052
138661,108075
138695,108085
138701,108115
138713,108085
138778,108110
138741,108085
138743,108063
138789,108139
138772,108128
138804,108125
138767,108090
138849,108130
138821,108125
138861,108150
138855,108133
138861,108120
138909,108180
138931,108156
138926,108176
138918,108134
138955,108134
138933,108206
138983,108166
138950,108184
139005,108184
138981,108139
139037,108172
139025,108182
139063,108211
139056,108179
139052,108180
139060,108231
139086,108201
139090,108204
139068,108225
139039,108192
139104,108242
139107,108232
139141,108203
139140,108219
139134,108211
139147,108241
139177,108229
139188,108226
139145,108197
139190,108219
139228,108249
139206,108266
139207,108246
139176,108252
139193,108229
139252,108267
139227,108272
139272,108252
139222,108263
139213,108239
139285,108285
139273,108249
139355,108256
139285,108249
139326,108261
139353,108316
139337,108323
139291,108260
139313,108259
139297,108262
139260,108239
139296,108255
139186,108252
139163,108177
139153,108198
139155,108174
139107,108176
139032,108173
139011,108115
138956,108113
138962,108111
138945,108107
138863,108130
138850,108049
138807,108046
138801,108111
138779,108044
138755,108003
138712,108024
138718,108010
138701,107991
138723,108030
138639,108021
138668,107993
138623,107970
138628,108012
138600,107969
138643,108009
138594,107978
138641,107983
138649,107968
138623,108005
138615,107952
138585,107965
138630,107972
138650,108004
138638,107991
138688,108002
138651,107974
138679,107964
138748,108029
138733,108017
138741,108031
138743,108003
138744,108053
138785,108014
138833,108070
138796,108038
138776,108011
138820,108032
138827,108066
138867,108055
138850,108056
138819,108053
138888,108043
138915,108107
138920,108091
138931,108048
138860,108056
138906,108058
138941,108066
138894,108088
138899,108018
138914,108027
138893,108064
138863,108026
138916,108067
138886,108066
138824,108016
138853,108019
138890,108058
138859,108027
138850,108011
138840,108021
138813,108049
138855,108014
138840,108011
138815,107993
138788,107997
138799,107981
138804,108044
138759,108011
138730,107983
138705,107975
138794,107995
138760,108013
138784,108003
138718,107996
138695,107966
138749,107919
138748,108015
138729,107965
138729,107943
138733,107925
138753,107993
138755,107947
138736,107979
138768,107967
138732,107950
138749,107987
138773,108004
138806,107964
138744,107972
138761,107961
138794,107989
138798,107995
138815,108004
138765,107962
138793,107970
138825,107983
138803,108000
138788,107976
138780,107995
138779,107971
138811,107987
138846,107984
138859,108018
138800,107951
138841,108008
138849,107991
138896,107999
138908,108011
138842,107968
138891,107978
138935,108034
138903,108004
138935,107997
138875,108001
138918,107988
138965,108040
138954,108033
138979,108026
138990,108006
138955,108019
138974,108008
139025,108040
139009,108018
138990,108002
138989,108041
138999,108008
139023,108063
138992,108066
138991,108028
139008,108014
139017,107991
139067,108044
139022,108071
139022,107986
139009,108050
139021,108048
139046,108043
139048,108056
139043,107984
139045,108049
139096,108035
139062,108042
139102,108078
139065,108051
139102,108023
139128,108088
139148,108085
139117,108066
139086,108019
139147,108037
139132,108113
139123,108062
139136,108085
139090,108051
139089,108060
139085,108041
139053,108046
139000,107990
138963,107999
138926,107980
138903,107970
138833,107929
138811,107942
138719,107854
138717,107877
138692,107897
138621,107887
138574,107811
138525,107829
138516,107803
138507,107812
138452,107823
138467,107776
138380,107776
138348,107751
138386,107799
138345,107766
138330,107710
138322,107716
138306,107752
138282,107692
138322,107735
138287,107729
138260,107722
138267,107699
138312,107758
138246,107696
138286,107717
138241,107707
138223,107684
138265,107722
138260,107722
138227,107664
138190,107672
138204,107671
138248,107692
138208,107705
138203,107652
138205,107651
138221,107697
138198,107645
138242,107703
138223,107681
138200,107700
138185,107686
138225,107681
138249,107699
138222,107659
138219,107663
138254,107724
138247,107668
138221,107684
138256,107674
138228,107663
138278,107704
138257,107695
138279,107648
138255,107675
138273,107684
138282,107715
138305,107712
138293,107735
138257,107658
138247,107645
138325,107734
138259,107696
138285,107709
138216,107643
138219,107637
138220,107715
138234,107693
138200,107676
138189,107660
138191,107661
138171,107662
138217,107698
138188,107679
138191,107685
138155,107686
138182,107638
138182,107704
138131,107656
138131,107624
138142,107653
138087,107641
138146,107673
138105,107665
138115,107641
138096,107617
138113,107653
138092,107654
138067,107598
138091,107645
138108,107603
138100,107647
138155,107646
138127,107675
138130,107593
138135,107641
138181,107628
138177,107648
138157,107654
138169,107631
138199,107635
138199,107695
138266,107677
138202,107679
138234,107644
138216,107673
138302,107724
138284,107702
138296,107737
138313,107696
138335,107735
138396,107718
138407,107755
138414,107765
138379,107722
138433,107756
138453,107742
138483,107769
138460,107786
138478,107742
138455,107733
138492,107782
138487,107800
138528,107755
138494,107786
138506,107757
138553,107766
138560,107777
138561,107801
138573,107769
138579,107805
138617,107811
138607,107822
138631,107836
138621,107802
138626,107826
138661,107853
138661,107856
138668,107830
138657,107810
138706,107835
138707,107860
138690,107845
138715,107868
138683,107811
138696,107839
138734,107849
138684,107824
138656,107825
138618,107771
138589,107783
138616,107814
138564,107793
138505,107720
138471,107720
138422,107719
138373,107719
138355,107683
138303,107659
138193,107612
138194,107598
138155,107627
138123,107580
138066,107598
137975,107545
137941,107500
137965,107539
137905,107522
137865,107461
137792,107445
137748,107449
137775,107466
137707,107433
137702,107414
137691,107408
137674,107443
137729,107397
137701,107417
137670,107426
137674,107366
137689,107418
137699,107437
137685,107432
137665,107406
137683,107394
137703,107406
137727,107462
137696,107425
137721,107452
137706,107440
137702,107452
137744,107484
137729,107436
137693,107424
137713,107423
137753,107456
137738,107457
137751,107447
137735,107482
137707,107424
137810,107479
137770,107477
137800,107493
137782,107444
137794,107467
137776,107499
137778,107496
137783,107446
137778,107454
137782,107463
137820,107456
137761,107499
137803,107484
137776,107447
137769,107443
137815,107474
137797,107469
137816,107472
137739,107444
137757,107432
137764,107496
137779,107463
137731,107431
137747,107431
137692,107433
137675,107410
137677,107445
137637,107431
137642,107375
137629,107401
137609,107391
137559,107399
137593,107372
137568,107360
137591,107342
137569,107419
137604,107395
137571,107388
137588,107377
137550,107388
137570,107374
137615,107384
137584,107397
137592,107370
137593,107400
137628,107398
137596,107422
137643,107404
137602,107384
137587,107387
137654,107410
137643,107371
137624,107411
137592,107355
137656,107402
137616,107451
137637,107440
137625,107375
137603,107382
137616,107392
137659,107374
137676,107434
137670,107417
137655,107365
137667,107404
137688,107437
137701,107402
137698,107425
137672,107432
137702,107422
137742,107452
137755,107428
137762,107472
137716,107416
137786,107449
137765,107455
137776,107486
137815,107437
137826,107464
137763,107479
137841,107470
137861,107493
137829,107497
137820,107442
137816,107466
137882,107497
137843,107505
137841,107494
137836,107444
137889,107517
137844,107487
137870,107464
137907,107511
137894,107461
137858,107492
137916,107494
137945,107551
137876,107490
137896,107505
137915,107521
137978,107502
137941,107539
137923,107473
137937,107484
137900,107499
137867,107459
137866,107485
137819,107459
137733,107417
137744,107396
137735,107463
137680,107404
137604,107341
137560,107334
137468,107356
137440,107305
137388,107298
137328,107269
137254,107236
137184,107238
137147,107209
137096,107191
136986,107131
136923,107089
136924,107144
136830,107121
136765,107063
136786,107063
136675,107004
136665,107011
136614,107020
136590,106981
136480,106954
136480,106919
136460,106953
136470,106975
136428,106929
136419,106930
136352,106930
136345,106905
136341,106924
136329,106901
136310,106845
136296,106866
136299,106940
136291,106869
136263,106878
136261,106901
136271,106863
136251,106914
136229,106857
136292,106877
136250,106857
136197,106859
136184,106900
136216,106912
136218,106854
136213,106878
136199,106822
136214,106881
136237,106873
136245,106898
136207,106833
136234,106843
136223,106869
136214,106884
136219,106895
136190,106846
136212,106845
136250,106916
136274,106904
136237,106887
136242,106857
136211,106900
136232,106850
136251,106900
136225,106864
136210,106850
136163,106859
136218,106882
136187,106908
136159,106859
136152,106827
136189,106863
136136,106899
136146,106889
136127,106819
136162,106856
136163,106863
136135,106831
136124,106867
136152,106868
136099,106833
136129,106821
136153,106909
136137,106891
136135,106858
136156,106852
136143,106867
136190,106870
136196,106872
136155,106879
136137,106867
136157,106858
136204,106893
136185,106892
136211,106892
136159,106850
136205,106886
136250,106907
136231,106931
136228,106885
136232,106874
136283,106928
136281,106922
136336,106936
136316,106981
136322,106905
136380,106938
136362,106957
136379,106960
136418,106984
136394,106943
136460,106978
136465,106966
136496,107005
136524,107021
136508,106984
136539,106997
136588,107065
136568,107050
136648,107048
136643,107037
136694,107039
136680,107107
136684,107061
136689,107114
136709,107070
136719,107106
136779,107143
136788,107127
136829,107108
136794,107085
136832,107150
136865,107124
136915,107158
136845,107142
136870,107118
136947,107167
136920,107191
136970,107152
136992,107205
136951,107167
137042,107197
137029,107185
137063,107201
137054,107236
137045,107186
137137,107233
137123,107253
137106,107255
137152,107234
137148,107211
137176,107288
137155,107231
137143,107273
137121,107233
137076,107208
137095,107178
137084,107226
137037,107201
136999,107148
136959,107160
136935,107169
136880,107112
136826,107103
136752,107082
136694,107069
136650,107035
136596,107006
136535,107014
136500,106970
136386,106958
136365,106976
136354,106923
136255,106900
136243,106880
136184,106888
136132,106882
136121,106865
136099,106849
136066,106829
136062,106827
135997,106819
135988,106818
135962,106804
135970,106766
135894,106738
135945,106817
135874,106799
135848,106720
135851,106727
135837,106715
135856,106745
135872,106763
135847,106755
135815,106731
135801,106737
135810,106742
135806,106757
135788,106726
135819,106725
135788,106750
135829,106745
135795,106754
135837,106762
135784,106695
135805,106728
135823,106776
135825,106745
135798,106759
135833,106753
135808,106720
135875,106770
135886,106785
135879,106782
135836,106741
135910,106757
135900,106806
135959,106800
135944,106829
135935,106752
135969,106783
135969,106823
135989,106825
136013,106828
135957,106776
136021,106791
136003,106838
136003,106845
135980,106806
135985,106793
136008,106836
136003,106805
135986,106799
135999,106826
135986,106772
135934,106783
135982,106830
135946,106802
135951,106799
135948,106778
135925,106782
135921,106769
135947,106803
135947,106802
135928,106765
135922,106784
135946,106822
135976,106803
135942,106787
135936,106787
135979,106805
135936,106805
135992,106830
135999,106792
135953,106782
136010,106848
136029,106828
136031,106830
136018,106826
136019,106795
136080,106851
136122,106851
136136,106882
136134,106828
136171,106851
136180,106905
136195,106885
136235,106920
136196,106888
136204,106887
136237,106907
136269,106912
136261,106926
136267,106886
136225,106894
136299,106944
136268,106931
136281,106929
136314,106925
136284,106936
136368,106957
136347,106936
136377,106959
136354,106982
136354,106953
136399,106982
136461,106998
136421,107014
136432,106944
136420,106967
136501,107013
136471,107023
136477,106983
136502,107015
136500,107011
136516,107029
136548,107014
136547,107036
136583,107057
136588,107028
136584,107085
136630,107070
136681,107082
136698,107138
136712,107105
136750,107134
136809,107137
136813,107179
136842,107131
136873,107166
136891,107159
136960,107199
136986,107217
136955,107183
137008,107213
137039,107248
137083,107237
137129,107269
137114,107220
137105,107246
137163,107284
137113,107286
137138,107282
137139,107248
137140,107243
137128,107288
137120,107261
137104,107284
137030,107189
137041,107189
137043,107262
136954,107214
136967,107202
136888,107117
136837,107140
136815,107157
136763,107115
136792,107112
136730,107069
136686,107061
136647,107061
136633,107069
136594,107032
136555,107053
136537,107003
136543,107024
136547,107053
136518,107063
136473,106975
136473,107000
136458,107006
136480,107051
136458,107036
136448,106992
136457,106998
136455,107024
136492,107004
136476,107022
136412,107007
136448,106988
136501,107027
136485,107046
136469,107031
136504,107013
136488,107029
136559,107023
136571,107086
136506,107032
136518,107044
136542,107051
136595,107058
136606,107053
136547,107060
136628,107036
136611,107083
136618,107062
136636,107073
136694,107098
136655,107084
136705,107079
136736,107108
136778,107138
136775,107134
136755,107125
136790,107113
136823,107165
136875,107178
136847,107171
136865,107177
136876,107185
136892,107154
136895,107208
136903,107192
136905,107131
136924,107194
136905,107218
136913,107191
136917,107177
136884,107137
136903,107200
136956,107195
136940,107209
136881,107150
136913,107132
136944,107166
136954,107158
136969,107179
136892,107195
136914,107158
136952,107197
136905,107184
136966,107200
136941,107148
136972,107202
136952,107233
136984,107217
136987,107221
136970,107198
136982,107210
137031,107211
137035,107233
137030,107210
137063,107219
137063,107180
137098,107271
137097,107226
137130,107227
137130,107242
137107,107205
137134,107261
137184,107266
137226,107289
137161,107289
137168,107256
137227,107307
137256,107280
137234,107304
137213,107268
137252,107285
137288,107330
137298,107324
137359,107345
137351,107369
137334,107329
137388,107346
137420,107379
137402,107361
137409,107351
137435,107354
137482,107393
137464,107417
137487,107388
137522,107369
137515,107377
137576,107427
137557,107402
137613,107400
137607,107406
137590,107406
137670,107447
137693,107468
137729,107474
137658,107433
137694,107446
137764,107513
137776,107471
137773,107509
137795,107453
137805,107510
137832,107546
137876,107534
137818,107516
137847,107508
137849,107505
137914,107543
137924,107544
137945,107549
137890,107517
137916,107523
137901,107541
137932,107563
137882,107526
137899,107535
137880,107504
137850,107488
137828,107503
137770,107481
137739,107443
137667,107420
137666,107445
137627,107429
137538,107387
137475,107343
137432,107318
137427,107340
137370,107287
137352,107293
137215,107261
137256,107248
137251,107252
137203,107249
137212,107199
137161,107261
137150,107236
137169,107246
137218,107271
137174,107227
137220,107270
137189,107248
137216,107258
137251,107264
137216,107303
137223,107233
137217,107282
137257,107291
137234,107264
137299,107324
137277,107254
137280,107287
137264,107309
137302,107304
137325,107302
137281,107315
137279,107297
137357,107289
137346,107322
137377,107307
137311,107299
137343,107298
137368,107339
137414,107343
137432,107326
137396,107325
137411,107329
137483,107369
137514,107383
137493,107386
137488,107360
137524,107368
137594,107427
137602,107395
137574,107434
137541,107374
137619,107420
137635,107417
137671,107439
137656,107414
137628,107420
137662,107431
137717,107467
137724,107448
137693,107487
137700,107412
137704,107430
137774,107464
137734,107457
137703,107446
137697,107400
137719,107462
137730,107462
137698,107451
137679,107443
137666,107380
137721,107464
137711,107426
137706,107443
137701,107433
137644,107373
137678,107461
137690,107428
137682,107450
137688,107412
137680,107416
137679,107406
137748,107450
137724,107455
137697,107412
137711,107427
137751,107446
137751,107455
137738,107443
137756,107413
137771,107412
137785,107444
137802,107446
137838,107463
137764,107446
137779,107409
137852,107490
137863,107457
137815,107480
137884,107478
137868,107453
137904,107505
137919,107510
137932,107509
137947,107505
137951,107496
138005,107505
137987,107544
137972,107525
138021,107553
138024,107534
138019,107554
138070,107519
138071,107542
138033,107558
138011,107536
138093,107547
138086,107593
138061,107550
138089,107525
138094,107575
138089,107544
138122,107595
138105,107531
138158,107570
138128,107561
138149,107616
138152,107610
138160,107575
138209,107584
138227,107597
138235,107631
138224,107629
138215,107547
138202,107616
138213,107589
138215,107603
138260,107598
138257,107586
138208,107610
138194,107580
138263,107606
138267,107592
138285,107637
138212,107558
138252,107584
138209,107591
138216,107604
138210,107582
138139,107547
138119,107549
138138,107559
138081,107524
138003,107499
137983,107501
137947,107479
137927,107456
137890,107453
137847,107424
137797,107394
137763,107397
137757,107391
137730,107401
137664,107367
137636,107332
137631,107321
137614,107362
137629,107316
137554,107342
137563,107299
137553,107308
137557,107290
137581,107312
137519,107317
137509,107267
137570,107310
137569,107313
137535,107326
137553,107301
137533,107278
137564,107345
137531,107299
137566,107308
137574,107325
137538,107318
137560,107321
137592,107305
137601,107338
137604,107327
137582,107323
137597,107366
137615,107343
137614,107343
137640,107336
137605,107342
137596,107322
137678,107354
137627,107331
137624,107317
137631,107303
137664,107352
137659,107333
137656,107340
137679,107329
137666,107335
137704,107329
137700,107387
137702,107379
137709,107388
137709,107344
137733,107347
137792,107417
137755,107405
137739,107386
137752,107350
137757,107363
137765,107414
137742,107374
137728,107376
137730,107338
137789,107421
137770,107372
137720,107382
137721,107338
137687,107327
137738,107386
137713,107318
137717,107371
137657,107334
137684,107346
137675,107345
137717,107349
137697,107365
137672,107312
137652,107307
137663,107357
137670,107331
137691,107315
137705,107361
137689,107334
137710,107381
137739,107352
137735,107369
137715,107344
137731,107362
137751,107367
137779,107376
137793,107394
137748,107382
137756,107370
137824,107399
137836,107423
137814,107398
137800,107368
137845,107358
137820,107408
137849,107379
137858,107406
137817,107393
137884,107422
137864,107399
137951,107451
137930,107485
137929,107433
137929,107447
137974,107446
138001,107480
138020,107497
137996,107453
138043,107447
138067,107505
138026,107481
138091,107525
138041,107481
138065,107495
138108,107532
138139,107523
138091,107509
138112,107496
138145,107520
138146,107548
138160,107545
138208,107539
138144,107518
138160,107538
138216,107513
138250,107566
138244,107582
138214,107534
138293,107568
138280,107608
138298,107568
138359,107580
138305,107547
138376,107596
138391,107636
138404,107631
138401,107586
138396,107620
138431,107589
138435,107643
138437,107671
138431,107610
138369,107594
138345,107599
138313,107571
138314,107572
138276,107546
138192,107512
138140,107502
138148,107480
138047,107474
138039,107446
137954,107447
137905,107410
137932,107397
137847,107413
137838,107367
137759,107342
137713,107308
137731,107346
137674,107340
137649,107285
137625,107275
137575,107291
137586,107272
137525,107265
137533,107276
137473,107226
137489,107252
137476,107248
137474,107267
137435,107202
137446,107214
137450,107254
137478,107233
137481,107248
137416,107256
137429,107177
137466,107234
137463,107230
137457,107236
137469,107240
137412,107219
137409,107198
137492,107248
137454,107228
137438,107245
137472,107227
137449,107243
137450,107217
137489,107242
137447,107233
137440,107212
137501,107219
137461,107240
137492,107216
137513,107238
137477,107205
137567,107254
137550,107272
137574,107293
137517,107225
137565,107240
137560,107264
137575,107266
137567,107257
137558,107252
137582,107234
137647,107285
137603,107308
137634,107282
137577,107273
137633,107251
137687,107295
137655,107323
137675,107303
137638,107284
137652,107268
137649,107319
137697,107325
137686,107335
137655,107266
137662,107268
137622,107283
137673,107274
137667,107317
137587,107276
137588,107287
137636,107289
137659,107303
137606,107272
137677,107282
137627,107271
137653,107306
137683,107322
137659,107302
137704,107297
137705,107323
137676,107286
137697,107319
137746,107329
137690,107295
137744,107330
137742,107308
137755,107368
137755,107291
137762,107337
137770,107340
137774,107352
137812,107343
137816,107351
137800,107355
137798,107348
137849,107400
137852,107351
137876,107338
137863,107382
137870,107388
137913,107387
137966,107431
137922,107391
137969,107365
137984,107432
137997,107435
138005,107423
137994,107408
138023,107407
138001,107413
138080,107448
138044,107413
138103,107448
138063,107436
138101,107450
138137,107480
138175,107465
138201,107503
138184,107436
138230,107472
138269,107494
138289,107527
138248,107534
138254,107483
138269,107532
138325,107544
138315,107574
138306,107504
138307,107537
138325,107506
138336,107562
138335,107506
138319,107506
138357,107486
138397,107558
138390,107515
138396,107532
138425,107540
138386,107536
138433,107541
138453,107587
138448,107573
138430,107581
138362,107535
138429,107518
138388,107580
138358,107489
138319,107482
138268,107490
138235,107478
138213,107479
138157,107463
138119,107399
138051,107347
138046,107396
137978,107367
137968,107361
137865,107367
137821,107278
137825,107324
137761,107285
137732,107290
137689,107245
137644,107234
137632,107248
137623,107279
137557,107227
137545,107194
137483,107183
137482,107192
137473,107214
137482,107205
137483,107179
137442,107165
137446,107203
137452,107177
137435,107185
137426,107169
137435,107138
137476,107199
137432,107160
137481,107173
137427,107171
137398,107171
137432,107193
137449,107202
137477,107180
137420,107192
137442,107150
137453,107225
137501,107198
137450,107202
137480,107174
137465,107169
137506,107217
137505,107198
137504,107203
137508,107218
137493,107193
137554,107212
137569,107232
137593,107239
137563,107197
137571,107208
137557,107270
137619,107210
137625,107274
137576,107217
137604,107246
137613,107272
137599,107248
137630,107230
137614,107241
137628,107260
137626,107289
137632,107265
137648,107250
137631,107266
137616,107222
137671,107254
137638,107289
137630,107240
137650,107268
137608,107262
137652,107262
137619,107291
137658,107281
137626,107251
137597,107247
137651,107279
137624,107270
137648,107272
137638,107248
137650,107276
137676,107272
137663,107292
137689,107285
137645,107253
137693,107283
137697,107306
137725,107334
137738,107289
137699,107280
137719,107289
137747,107302
137765,107314
137734,107304
137771,107332
137788,107319
137796,107341
137864,107369
137867,107338
137898,107362
137883,107390
137918,107401
137937,107387
137926,107372
137932,107355
137992,107401
138016,107413
138060,107470
138021,107398
138105,107419
138093,107430
138107,107470
138150,107446
138152,107463
138163,107433
138218,107470
138244,107520
138218,107482
138254,107479
138241,107487
138274,107473
138313,107491
138324,107519
138319,107536
138341,107508
138322,107525
138384,107576
138377,107538
138408,107511
138354,107545
138426,107551
138484,107567
138426,107582
138435,107525
138435,107538
138480,107554
138480,107576
138498,107578
138493,107551
138467,107574
138537,107590
138507,107578
138542,107618
138522,107625
138545,107588
138547,107602
138584,107612
138573,107559
138587,107599
138550,107567
138563,107612
138520,107578
138521,107550
138489,107562
138435,107513
138442,107541
138420,107552
138384,107517
138312,107480
138292,107509
138268,107495
138234,107484
138205,107441
138131,107419
138129,107398
138093,107419
138084,107396
138033,107379
138027,107384
137961,107351
137958,107355
137962,107373
137946,107370
137889,107330
137867,107318
137939,107373
137915,107348
137889,107351
137887,107329
137909,107323
137878,107383
137907,107361
137912,107355
137881,107346
137922,107368
137924,107369
137963,107392
137964,107382
137945,107389
137979,107367
137967,107396
137995,107408
138000,107392
138016,107391
137982,107365
138043,107420
138077,107438
138065,107437
138010,107400
138032,107406
138084,107438
138107,107451
138116,107433
138083,107398
138110,107419
138152,107446
138163,107462
138148,107415
138154,107427
138183,107440
138197,107487
138197,107453
138208,107441
138235,107486
138223,107443
138226,107455
138272,107464
138271,107477
138223,107466
138266,107481
138314,107480
138310,107506
138283,107489
138283,107464
138311,107482
138309,107528
138311,107510
138266,107522
138259,107457
138262,107485
138254,107474
138301,107500
138292,107498
138242,107459
138239,107497
138288,107504
138301,107502
138271,107495
138294,107467
138322,107482
138326,107521
138322,107522
138331,107502
138328,107487
138368,107493
138363,107526
138409,107535
138433,107540
138390,107523
138427,107565
138458,107577
138484,107576
138473,107563
138423,107531
138491,107556
138501,107575
138511,107616
138541,107576
138481,107543
138523,107583
138565,107579
138533,107586
138567,107574
138514,107555
138585,107599
138597,107597
138564,107603
138610,107595
138594,107577
138615,107601
138583,107593
138623,107603
138605,107561
138564,107569
138621,107571
138621,107597
138617,107608
138639,107600
138617,107574
138691,107633
138697,107634
138711,107628
138725,107619
138709,107605
138752,107640
138790,107658
138807,107669
138805,107645
138763,107650
138848,107688
138900,107717
138860,107722
138899,107694
138873,107687
138948,107749
138974,107737
138946,107736
138980,107737
138920,107717
138997,107754
139012,107764
138968,107739
138970,107730
138947,107691
138993,107717
138963,107713
138910,107710
138888,107680
138828,107648
138777,107654
138765,107633
138694,107612
138681,107574
138588,107561
138616,107589
138562,107559
138513,107550
138447,107494
138389,107485
138364,107487
138371,107476
138333,107465
138237,107448
138237,107400
138275,107440
138252,107448
138201,107417
138184,107387
138185,107419
138168,107404
138212,107465
138164,107408
138134,107375
138181,107399
138153,107405
138187,107424
138163,107396
138128,107394
138143,107383
138146,107397
138170,107434
138154,107379
138129,107369
138134,107369
138198,107429
138209,107416
138136,107386
138138,107424
138125,107366
138201,107411
138188,107408
138183,107378
138182,107411
138169,107415
138190,107383
138200,107436
138267,107415
138248,107412
138227,107467
138284,107438
138278,107462
138333,107459
138300,107442
138318,107468
138348,107460
138400,107487
138353,107486
138332,107427
138365,107454
138382,107488
138367,107491
138339,107427
138380,107477
138349,107466
138379,107480
138347,107448
138390,107466
138318,107445
138366,107457
138353,107480
138383,107440
138359,107473
138314,107448
138333,107443
138359,107477
138374,107476
138344,107485
138325,107437
138328,107422
138391,107497
138380,107463
138347,107473
138384,107447
138376,107434
138360,107518
138361,107480
138349,107480
138376,107437
138416,107484
138435,107494
138440,107482
138404,107501
138426,107448
138445,107506
138456,107488
138463,107520
138474,107487
138457,107480
138511,107489
138470,107551
138497,107516
138529,107547
138496,107539
138501,107518
138564,107547
138576,107528
138558,107521
138601,107525
138573,107589
138605,107507
138639,107575
138627,107595
138621,107537
138635,107565
138715,107614
138677,107613
138698,107579
138700,107557
138725,107612
138779,107619
138794,107620
138752,107613
138795,107605
138784,107629
138852,107653
138841,107637
138830,107638
138851,107626
138921,107650
138893,107685
138950,107696
138940,107684
138884,107666
138943,107658
139018,107734
139001,107716
138971,107691
138959,107677
139012,107681
139006,107749
139002,107685
139016,107659
139012,107688
139018,107749
139073,107708
139067,107727
138999,107719
139012,107680
139046,107730
139085,107724
139076,107728
139045,107692
139022,107711
139029,107698
139037,107712
138975,107702
138950,107652
138907,107612
138931,107641
138854,107622
138812,107609
138746,107566
138739,107542
138718,107579
138685,107531
138658,107530
138585,107517
138516,107481
138569,107480
138509,107498
138494,107479
138440,107453
138411,107457
138465,107460
138374,107457
138374,107438
138359,107402
138344,107396
138335,107433
138357,107449
138288,107416
138259,107380
138314,107410
138270,107446
138280,107402
138293,107436
138278,107365
138296,107388
138317,107444
138330,107405
138261,107419
138298,107414
138325,107447
138323,107409
138335,107452
138325,107426
138352,107420
138347,107440
138359,107424
138384,107448
138399,107401
138379,107430
138381,107426
138391,107506
138403,107476
138413,107453
138366,107438
138405,107440
138422,107493
138423,107489
138433,107459
138452,107471
138453,107489
138519,107497
138524,107492
138488,107513
138520,107470
138533,107522
138517,107506
138548,107524
138582,107496
138536,107510
138586,107516
138570,107551
138581,107514
138610,107514
138564,107503
138619,107533
138624,107514
138646,107531
138615,107567
138585,107499
138613,107534
138614,107573
138613,107543
138660,107518
138596,107531
138638,107545
138663,107531
138659,107552
138638,107564
138660,107527
138678,107584
138701,107590
138685,107579
138719,107559
138656,107540
138736,107575
138761,107582
138774,107620
138795,107604
138776,107565
138832,107604
138808,107608
138825,107593
138857,107643
138849,107636
138882,107623
138912,107683
138896,107664
138909,107625
138934,107650
139004,107716
139001,107692
139023,107689
139004,107666
138991,107685
139011,107695
139091,107718
139109,107721
139077,107712
139071,107688
139089,107694
139156,107741
139139,107753
139096,107697
139119,107693
139190,107749
139153,107773
139157,107743
139143,107747
139177,107716
139262,107766
139228,107760
139262,107772
139220,107761
139225,107731
139309,107811
139290,107784
139314,107787
139292,107756
139300,107765
139332,107825
139375,107779
139365,107804
139329,107804
139363,107800
139416,107848
139425,107843
139456,107857
139390,107791
139392,107836
139465,107864
139449,107862
139475,107845
139439,107812
139497,107834
139534,107853
139485,107865
139500,107843
139497,107849
139486,107837
139471,107845
139473,107868
139443,107820
139338,107786
139352,107800
139369,107806
139271,107785
139238,107748
139198,107717
139180,107709
139147,107710
139109,107696
139028,107670
139012,107615
138992,107653
138990,107643
138935,107650
138874,107617
138855,107565
138827,107581
138837,107586
138802,107597
138760,107529
138783,107569
138752,107547
138724,107546
138730,107537
138730,107555
138630,107485
138669,107510
138671,107521
138671,107508
138656,107532
138662,107507
138671,107507
138671,107540
138713,107513
138686,107541
138640,107498
138676,107500
138700,107507
138708,107548
138663,107557
138683,107495
138696,107519
138693,107519
138725,107515
138677,107561
138675,107476
138683,107530
138722,107566
138731,107560
138717,107539
138772,107570
138761,107572
138806,107579
138789,107585
138775,107572
138800,107539
138811,107568
138803,107586
138844,107564
138820,107588
138779,107569
138833,107591
138851,107590
138828,107595
138781,107546
138831,107552
138791,107556
138837,107586
138809,107529
138808,107546
138773,107510
138825,107555
138808,107534
138827,107540
138812,107567
138789,107502
138785,107540
138811,107578
138785,107593
138773,107522
138751,107529
138803,107557
138744,107568
138778,107545
138731,107504
138705,107514
138746,107521
138744,107561
138717,107512
138741,107539
138729,107513
138705,107525
138768,107525
138744,107541
138679,107487
138715,107516
138733,107506
138769,107562
138733,107524
138739,107501
138737,107492
138787,107501
138807,107576
138747,107530
138785,107502
138749,107517
138831,107569
138824,107577
138772,107568
138806,107513
138822,107508
138848,107565
138854,107591
138840,107543
138819,107565
138832,107559
138830,107550
138896,107568
138911,107593
138869,107513
138899,107566
138914,107571
138905,107586
138978,107556
138920,107606
138915,107553
138957,107553
139012,107603
139002,107625
138942,107548
138974,107588
139020,107640
139007,107623
139039,107643
138992,107574
139020,107598
139101,107660
139100,107627
139104,107670
139051,107593
139064,107630
139127,107621
139092,107646
139094,107621
139091,107637
139083,107637
139105,107614
139171,107668
139126,107674
139107,107595
139153,107670
139189,107673
139139,107672
139154,107638
139172,107689
139154,107634
139130,107647
139199,107670
139171,107610
139096,107652
139088,107648
139114,107621
139039,107626
139011,107549
138975,107578
138926,107562
138919,107520
138856,107512
138862,107525
138721,107429
138756,107503
138710,107502
138619,107448
138629,107401
138499,107405
138526,107407
138490,107389
138475,107367
138397,107332
138367,107311
138382,107344
138334,107343
138337,107313
138263,107292
138259,107269
138241,107300
138265,107280
138254,107307
138240,107292
138181,107246
138204,107259
138217,107316
138213,107291
138213,107300
138169,107282
138175,107286
138212,107301
138208,107262
138214,107282
138186,107252
138253,107270
138249,107336
138246,107298
138243,107266
138253,107270
138285,107295
138242,107312
138244,107313
138266,107299
138263,107254
138319,107318
138283,107283
138315,107304
138300,107352
138296,107266
138323,107316
138360,107327
138370,107370
138309,107342
138331,107320
138346,107355
138357,107315
138403,107335
138362,107348
138367,107312
138342,107341
138378,107364
138373,107371
138340,107280
138344,107310
138374,107313
138323,107335
138351,107335
138325,107265
138276,107286
138347,107325
138291,107297
138285,107276
138261,107291
138239,107250
138223,107294
138241,107282
138285,107280
138228,107300
138242,107242
138273,107298
138253,107260
138264,107264
138224,107295
138264,107300
138251,107314
138289,107290
138294,107296
138252,107286
138258,107270
138309,107305
138314,107311
138320,107323
138264,107283
138290,107290
138355,107288
138333,107342
138362,107338
138331,107271
138356,107323
138427,107377
138425,107335
138404,107371
138420,107334
138409,107333
138492,107401
138475,107363
138502,107390
138453,107356
138485,107378
138533,107412
138515,107369
138567,107393
138541,107385
138565,107391
138557,107425
138588,107422
138626,107392
138602,107448
138624,107445
138647,107465
138677,107439
138698,107447
138655,107433
138685,107449
138723,107439
138758,107508
138731,107469
138755,107432
138801,107489
138796,107533
138812,107510
138821,107495
138831,107483
138867,107525
138903,107548
138887,107555
138899,107499
138911,107548
138938,107534
138946,107570
138942,107544
138975,107549
138966,107524
139027,107565
139041,107574
139035,107595
139006,107582
139019,107541
139078,107600
139037,107583
139040,107576
139066,107586
139018,107578
139061,107584
139128,107619
139118,107623
139091,107619
139090,107592
139144,107645
139127,107587
139184,107627
139105,107633
139089,107629
139097,107591
139096,107600
139047,107583
139032,107544
138973,107565
138945,107528
138915,107571
138887,107530
138850,107492
138817,107503
138782,107487
138770,107442
138751,107454
138745,107439
138687,107444
138667,107440
138661,107438
138637,107438
138612,107406
138574,107372
138576,107408
138579,107384
138532,107379
138526,107377
138490,107359
138509,107375
138516,107404
138509,107353
138461,107357
138485,107361
138516,107370
138512,107369
138524,107389
138524,107372
138497,107364
138568,107388
138536,107397
138568,107398
138576,107394
138533,107393
138603,107433
138612,107402
138663,107426
138608,107438
138626,107417
138729,107423
138745,107499
138742,107475
138757,107440
138827,107497
138816,107501
138863,107533
138868,107529
138857,107549
138858,107500
138940,107509
138908,107586
138901,107548
138941,107537
138951,107543
138920,107541
138972,107566
138962,107549
138938,107563
138930,107540
138998,107548
138962,107591
138936,107561
138948,107550
138931,107532
138980,107551
138955,107529
138951,107570
138879,107509
138918,107539
138951,107532
138897,107533
138924,107520
138869,107518
138865,107501
138886,107488
138873,107533
138878,107496
138816,107492
138832,107466
138899,107483
138833,107490
138835,107468
138824,107456
138799,107490
138865,107464
138818,107477
138850,107458
138783,107454
138823,107460
138853,107520
138864,107498
138851,107508
138842,107469
138879,107524
138876,107528
138875,107526
138862,107509
138885,107479
138886,107505
138940,107512
138910,107517
138957,107530
138889,107487
138938,107488
138973,107546
138966,107507
138954,107540
138970,107505
139006,107548
138975,107553
139009,107555
139039,107548
138980,107502
139041,107540
139033,107599
139051,107565
139011,107572
139041,107534
139076,107551
139070,107610
139104,107585
139092,107564
139076,107556
139120,107596
139114,107565
139121,107620
139162,107571
139123,107577
139127,107606
139171,107596
139158,107629
139176,107581
139159,107589
139155,107610
139214,107590
139194,107642
139231,107606
139195,107627
139197,107627
139247,107620
139240,107647
139205,107576
139176,107635
139271,107617
139274,107669
139302,107654
139263,107631
139306,107615
139297,107656
139354,107638
139363,107665
139292,107653
139324,107626
139390,107679
139354,107686
139328,107683
139369,107642
139322,107664
139324,107679
139323,107660
139286,107663
139215,107651
139198,107601
139249,107624
139152,107616
139132,107577
139091,107577
139032,107583
138997,107552
139040,107578
138988,107531
138891,107500
138881,107469
138840,107457
138874,107503
138773,107452
138753,107379
138734,107448
138757,107433
138697,107459
138715,107419
138706,107409
138677,107408
138695,107405
138667,107383
138696,107406
138653,107415
138638,107377
138684,107382
138681,107411
138677,107388
138672,107387
138663,107380
138696,107446
138703,107395
138669,107397
138672,107397
138644,107400
138707,107388
138701,107468
138687,107395
138699,107391
138757,107416
138716,107446
138790,107457
138763,107454
138738,107394
138761,107448
138765,107444
138793,107457
138810,107443
138782,107471
138793,107433
138785,107471
138826,107488
138796,107441
138783,107446
138790,107417
138863,107481
138824,107470
138824,107430
138832,107464
138811,107420
138865,107478
138830,107481
138793,107434
138805,107433
138823,107444
138776,107467
138804,107420
138802,107427
138762,107401
138774,107425
138814,107420
138815,107462
138766,107464
138779,107375
138762,107443
138804,107432
138784,107470
138769,107434
138804,107421
138800,107470
138789,107476
138800,107458
138773,107413
138805,107409
138792,107459
138841,107449
138818,107457
138778,107454
138797,107423
138840,107444
138848,107476
138854,107488
138832,107448
138857,107468
138854,107467
138871,107488
138873,107454
138895,107450
138897,107475
138894,107491
138944,107518
138913,107519
138908,107457
138922,107486
138949,107494
138945,107507
138924,107514
138933,107501
138957,107452
138996,107502
139005,107499
138976,107521
139023,107484
138959,107496
138980,107505
139038,107537
139071,107553
139027,107542
139037,107496
139074,107562
139057,107538
139121,107555
139074,107512
139119,107522
139106,107584
139169,107555
139159,107599
139151,107562
139158,107588
139176,107587
139210,107594
139229,107583
139180,107590
139225,107594
139243,107620
139257,107623
139250,107600
139294,107596
139239,107608
139311,107605
139323,107637
139309,107640
139364,107641
139309,107641
139347,107613
139402,107664
139378,107655
139372,107658
139336,107620
139377,107608
139344,107675
139318,107605
139260,107608
139212,107609
139183,107563
139176,107558
139059,107533
139030,107511
139014,107495
138948,107485
138910,107456
138825,107431
138777,107382
138702,107351
138705,107378
138676,107329
138638,107361
138533,107321
138521,107291
138516,107349
138468,107285
138448,107317
138389,107227
138363,107237
138353,107278
138308,107257
138271,107225
138231,107240
138236,107200
138277,107228
138214,107244
138183,107219
138173,107185
138215,107194
138184,107232
138194,107216
138176,107191
138155,107220
138156,107204
138239,107217
138210,107250
138204,107211
138220,107217
138197,107201
138234,107226
138235,107220
138272,107220
138185,107240
138214,107210
138266,107246
138256,107254
138283,107265
138237,107209
138298,107226
138314,107294
138337,107286
138328,107291
138326,107216
138350,107285
138398,107305
138344,107302
138397,107275
138337,107281
138363,107278
138384,107275
138433,107323
138407,107324
138353,107261
138413,107273
138442,107328
138399,107309
138410,107288
138410,107311
138454,107315
138403,107329
138447,107307
138462,107333
138371,107284
138452,107299
138414,107326
138474,107318
138404,107317
138404,107275
138399,107310
138409,107286
138394,107306
138394,107282
138404,107301
138397,107333
138411,107277
138455,107322
138410,107310
138376,107293
138458,107315
138437,107345
138424,107312
138468,107300
138456,107292
138503,107363
138487,107329
138507,107341
138519,107361
138484,107297
138538,107372
138530,107347
138580,107362
138492,107374
138529,107354
138547,107407
138585,107404
138600,107358
138619,107401
138574,107362
138608,107361
138685,107414
138687,107385
138642,107368
138668,107409
138745,107422
138732,107444
138756,107433
138763,107441
138799,107442
138823,107484
138856,107481
138903,107504
138891,107476
138881,107506
138951,107514
138984,107543
139003,107534
138968,107506
139014,107529
139014,107578
139055,107585
139083,107546
139052,107539
139082,107555
139107,107595
139122,107591
139123,107588
139124,107578
139151,107551
139176,107626
139160,107596
139186,107597
139181,107613
139185,107608
139173,107584
139242,107645
139224,107619
139205,107595
139189,107589
139268,107607
139255,107644
139252,107615
139266,107638
139262,107605
139319,107613
139273,107638
139204,107605
139226,107586
139207,107579
139206,107605
139109,107575
139080,107527
139018,107527
139001,107487
138948,107498
138941,107479
138857,107482
138750,107412
138720,107403
138743,107399
138647,107400
138651,107356
138540,107353
138511,107343
138482,107327
138466,107294
138413,107304
138398,107284
138376,107294
138362,107293
138332,107287
138284,107282
138270,107252
138271,107231
138255,107264
138266,107239
138279,107243
138224,107260
138215,107247
138265,107274
138252,107222
138245,107231
138216,107259
138243,107251
138290,107257
138267,107270
138220,107251
138200,107231
138277,107230
138282,107271
138265,107250
138271,107276
138222,107203
138279,107251
138276,107275
138311,107258
138289,107267
138236,107215
138322,107257
138293,107251
138364,107298
138338,107285
138332,107259
138366,107285
138356,107294
138393,107286
138423,107297
138357,107256
138429,107305
138424,107316
138449,107328
138403,107325
138405,107252
138441,107321
138405,107301
138396,107297
138447,107297
138393,107269
138416,107300
138459,107335
138401,107313
138355,107268
138381,107279
138409,107330
138398,107271
138404,107318
138389,107318
138329,107254
138410,107298
138385,107300
138397,107266
138376,107290
138365,107248
138404,107297
138365,107271
138423,107282
138365,107301
138364,107252
138387,107305
138414,107297
138423,107325
