11111,11111
142206,111597
142208,111586
16624,17622
143932,111978
143993,111971
144006,111998
144030,111994
143994,112012
143987,111965
144054,112037
144011,112045
143956,112031
144023,112007
143993,112044
143992,111995
144022,112030
144093,112029
144037,112074
144071,111981
144088,112040
144042,112002
144168,112019
144117,112045
144125,112046
144175,112089
144107,112085
144092,112041
144181,112046
144211,112083
144150,112055
144124,112077
144163,112111
144196,112072
144128,112061
144187,112048
144164,112045
144200,112090
144220,112085
144273,112059
144269,112119
144264,112137
144307,112118
144276,112110
144205,112152
144262,112085
144375,112131
144325,112122
144308,112134
144348,112169
144371,112148
144338,112146
144372,112153
144337,112139
144305,112180
144401,112150
144338,112144
144421,112104
144446,112164
144530,112205
144473,112171
144498,112166
144515,112191
144511,112174
144572,112180
144535,112213
144571,112239
144538,112204
144515,112176
144473,112198
144589,112197
144273,112059
144589,112260
144577,112180
144594,112276
144566,112225
144567,112233
144612,112213
144639,112255
144613,112244
144603,112246
144668,112255
144636,112277
144664,112298
144642,112226
144588,112229
144583,112261
144622,112230
144698,112219
144679,112204
144702,112216
144662,112239
144699,112276
144685,112245
144680,112237
144668,112267
144667,112253
144666,112248
144666,112251
144723,112234
144718,112260
144736,112278
144726,112292
144716,112282
144771,112345
144735,112261
144880,112286
144700,112307
144711,112280
144714,112255
144700,112255
144720,112250
144723,112241
144796,112318
144789,112341
144752,112247
144805,112274
144752,112315
144808,112301
144866,112286
144747,112263
144781,112293
144814,112318
144886,112341
144788,112330
144885,112348
144911,112313
144928,112295
144880,112295
144666,112248
144666,112251
144981,112353
144995,112310
144973,112356
144946,112374
144974,112370
144937,112312
144955,112316
144981,112336
145029,112393
145012,112340
145032,112419
145042,112355
145091,112312
145051,112397
145041,112329
145093,112396
145097,112417
145055,112354
145055,112396
145031,112362
145113,112364
145145,112391
145164,112429
145180,112458
145172,112445
145159,112363
145173,112433
145137,112440
145153,112460
145171,112424
145119,112420
145162,112408
145157,112381
145183,112375
145174,112413
145214,112424
145227,112412
145164,112410
145245,112468
145209,112471
145152,112415
145253,112439
145244,112436
145224,112411
145211,112417
145226,112444
145136,112425
145219,112394
145288,112425
145282,112471
145255,112453
145234,112411
145214,112415
145305,112479
145275,112500
145243,112428
145197,112450
145237,112445
145263,112440
145259,112418
145214,112379
145258,112405
145119,112420
145306,112480
145264,112461
145204,112430
145238,112413
145319,112454
145331,112441
145335,112484
145331,112481
145297,112467
145329,112448
145292,112474
145293,112405
145325,112496
145308,112454
145319,112462
145286,112485
145290,112453
145230,112446
145233,112432
145238,112444
145251,112376
145249,112365
145226,112417
145229,112419
145211,112370
145152,112361
145210,112415
145139,112369
145113,112347
145145,112348
145108,112370
145053,112262
145080,112358
144940,112307
144882,112257
144878,112255
144942,112222
144914,112226
144860,112269
144804,112251
144707,112222
144669,112164
144632,112152
144592,112104
144586,112147
144468,112106
144475,112102
144408,112101
144334,112089
144384,112071
144344,112058
144265,111999
144275,112049
144137,111981
144077,111920
144085,111951
144038,111900
143968,111866
144014,111839
143953,111898
143934,111890
143879,111878
143801,111828
143783,111792
143700,111816
143737,111852
143663,111802
143623,111762
143518,111761
143536,111701
143507,111724
143522,111731
143420,111669
143367,111736
143292,111663
143263,111575
143270,111647
143245,111562
143191,111610
143108,111623
143023,111556
143072,111531
143070,111580
143019,111516
142931,111490
142952,111558
142888,111504
142868,111496
142855,111497
142798,111462
142735,111448
142762,111460
142679,111421
142705,111423
142722,111472
142665,111399
142605,111353
142592,111375
142602,111414
142536,111366
142408,111342
142443,111350
142507,111362
142475,111372
142403,111295
142349,111283
142375,111342
142370,111336
142351,111299
142267,111276
142243,111285
142220,111230
142190,111232
142169,111188
142218,111228
142201,111241
142177,111183
142108,111138
142104,111149
142868,111496
142063,111154
142084,111142
142074,111109
142020,111231
141974,111188
141961,111094
142031,111205
141961,111114
141982,111157
141918,111185
141890,111132
141892,111098
141906,111156
141918,111177
141894,111101
141888,111134
141819,111109
141787,111102
141841,111077
141805,111050
141750,111049
141781,111036
141732,111002
141792,111032
141762,111080
141766,111094
141762,111092
141739,111078
141723,111111
141728,111067
141673,111057
141721,111019
141751,111078
141715,111023
141680,110994
141649,111045
141659,111041
141686,110999
141721,111017
141710,110999
141761,111018
141743,111076
141682,111024
141687,111015
141651,111052
141689,111085
141646,111044
141686,111015
141692,111020
141695,110994
141699,110989
141721,110991
141778,111019
141814,111061
141785,111078
141776,111037
141724,111060
141721,111062
141798,111046
141837,111094
141813,111056
141805,111008
141790,111089
141752,111070
141820,111079
141845,111082
141840,111095
141883,111072
141883,111084
141852,111080
141858,111054
141898,111071
141934,111123
141950,111127
141984,111154
141990,111180
141975,111152
141937,111115
141940,111096
142019,111170
142025,111183
142023,111076
142016,111203
142028,111146
142018,111174
142097,111207
142118,111184
142095,111157
142071,111235
142072,111174
142196,111214
142085,111141
142202,111198
142141,111175
141790,111089
142283,111223
142246,111252
142232,111252
142259,111237
142232,111244
142214,111217
142201,111216
142230,111233
142258,111188
142378,111250
142332,111234
142325,111304
142289,111261
142330,111274
142393,111310
142430,111309
142443,111286
142459,111332
142380,111280
142472,111327
142492,111321
142452,111276
142489,111298
142479,111357
142531,111359
142523,111324
142586,111317
142549,111319
142564,111319
142202,111198
142678,111430
142645,111431
142630,111372
142654,111391
142717,111437
142712,111390
142703,111397
142725,111451
142679,111386
142742,111386
142799,111478
142787,111426
142800,111478
142798,111418
142817,111449
142811,111452
142869,111452
142860,111442
142859,111423
142459,111332
142935,111469
142952,111506
142960,111468
142947,111551
142949,111533
142931,111490
142944,111490
142940,111513
142994,111493
142969,111490
143041,111538
143073,111538
143021,111525
143016,111563
142983,111524
143052,111511
143146,111549
143084,111555
143097,111524
143108,111551
143127,111561
143100,111545
143114,111551
142787,111426
143192,111527
143182,111572
143222,111590
143185,111598
143145,111587
143138,111587
143149,111567
143222,111567
143263,111582
143207,111548
143230,111630
143184,111596
143203,111564
143255,111565
143263,111618
143221,111556
143240,111587
143252,111536
143221,111623
143286,111594
143313,111599
143328,111625
143307,111607
143294,111618
143330,111624
143257,111545
143283,111649
143263,111619
143240,111632
143210,111600
143286,111583
143296,111614
143262,111574
143233,111631
143173,111570
143283,111562
143291,111581
143259,111567
143258,111579
143194,111564
143221,111552
143201,111552
143247,111591
143230,111548
143201,111537
143184,111535
143263,111618
143241,111565
143244,111571
143196,111590
143164,111570
143098,111549
143140,111531
143128,111500
143152,111541
143191,111581
143181,111533
143157,111611
143106,111541
143115,111504
143184,111562
143170,111576
143152,111497
143176,111588
143107,111518
143157,111522
143130,111538
143142,111501
143080,111467
143126,111532
143140,111577
143062,111528
143068,111486
143146,111495
143155,111557
143139,111557
143123,111555
143069,111532
143088,111482
143156,111575
143096,111548
143060,111545
143061,111526
143056,111524
143074,111522
143088,111521
143148,111509
143101,111508
143121,111523
143020,111548
143128,111524
143055,111539
143096,111476
143119,111507
143159,111545
143127,111554
143173,111545
143166,111532
143132,111477
143104,111502
143091,111508
143150,111560
143156,111577
143115,111564
143072,111502
143058,111525
143149,111552
143124,111525
143077,111504
143095,111531
143085,111531
143106,111514
143133,111492
143161,111517
143137,111516
143119,111472
143124,111500
143174,111492
143138,111508
143139,111485
143170,111537
143235,111543
143170,111596
143155,111573
143153,111536
143158,111522
143118,111560
143120,111561
143176,111541
143142,111498
143210,111557
143226,111588
143190,111569
143173,111583
143147,111491
143205,111550
143232,111549
143058,111525
143238,111533
143246,111546
143284,111555
143277,111599
143278,111584
143271,111603
143273,111575
143221,111596
143230,111574
143141,111569
143236,111547
143230,111545
143294,111499
143277,111599
143280,111583
143232,111552
143219,111578
143296,111541
143389,111581
143295,111569
143340,111623
143291,111594
143338,111571
143311,111597
143373,111587
143350,111585
143322,111580
143328,111581
143284,111585
143335,111568
143342,111591
143058,111525
143340,111552
143404,111591
143366,111674
143374,111624
143336,111625
143335,111609
143406,111590
143454,111674
143425,111590
143482,111686
143392,111593
143348,111573
143431,111648
143451,111638
143451,111608
143443,111628
143507,111684
143487,111651
143475,111614
143457,111668
143445,111663
143464,111647
143534,111652
143564,111676
143577,111699
143531,111712
143565,111676
143516,111642
143562,111645
143551,111724
143543,111737
143535,111676
143501,111663
143502,111674
143540,111653
143560,111654
143636,111644
143592,111690
143611,111686
143618,111720
143642,111744
143656,111668
143684,111758
143647,111746
143621,111709
143610,111736
143664,111677
143665,111674
143692,111702
143730,111751
143722,111773
143728,111747
143725,111690
143735,111739
143811,111752
143734,111797
143714,111736
143773,111680
143826,111800
143777,111711
143785,111809
143775,111769
143846,111725
143809,111699
143758,111723
143502,111674
143830,111776
143827,111733
143867,111757
143876,111818
143796,111748
143787,111724
143891,111812
143921,111815
143894,111793
143893,111811
143878,111749
143861,111795
143859,111766
143855,111828
143856,111782
143902,111800
143900,111767
143840,111775
143846,111785
143918,111789
143950,111776
143958,111816
143935,111803
143973,111853
143952,111830
143926,111844
143928,111837
143907,111779
143976,111811
143991,111842
143970,111839
143983,111828
143908,111831
143921,111802
144016,111874
144051,111841
143987,111802
144063,111860
144060,111807
144047,111840
143989,111857
144040,111845
144009,111862
144082,111831
144015,111909
144092,111907
144115,111882
144073,111887
144069,111882
144037,111878
143998,111880
144073,111853
144128,111892
144143,111867
144104,111859
144121,111886
144104,111864
144156,111867
144174,111845
144187,111897
144225,111915
144238,111904
144212,111897
144185,111898
144209,111898
144219,111897
144198,111897
144183,111852
144185,111858
144202,111898
144237,111892
144191,111895
144235,111915
144214,111931
144267,111963
144224,111947
144252,111969
144316,111958
144329,111951
144370,111984
144385,111937
144395,111996
144382,111983
144359,111973
144388,111973
144425,111954
144405,111972
144414,111991
144398,111962
144377,111938
144406,111951
144373,111927
144482,112001
144464,111984
144457,111981
144473,112001
144543,111998
144445,111990
144472,111995
144514,112013
144502,112004
144497,112010
144509,111975
144495,111970
144507,111976
144529,111988
144519,112000
144567,112007
144551,111978
144566,111990
144558,111970
144570,112001
144385,111937
144395,111996
144685,112051
144602,112015
144683,112053
144693,112102
144728,112099
144731,112104
144724,112116
144709,112097
144741,112073
144737,112080
144714,112077
144722,112055
144699,112076
144693,112050
144695,112043
144712,112071
144695,112067
144696,112068
144697,112047
144678,112024
144696,112026
144667,112038
144653,112039
144529,111988
144676,112050
144612,112039
144658,112037
144669,112029
144623,112007
144585,111986
144565,111990
144500,111970
144493,111951
144485,111922
144431,111930
144405,111899
144409,111817
144342,111893
144724,112116
144327,111875
144339,111898
144263,111894
144224,111921
144198,111906
144193,111847
144102,111825
144040,111811
144029,111748
143987,111741
143897,111771
143957,111773
143885,111727
143840,111710
143752,111686
143768,111853
143667,111638
143623,111608
143628,111600
143630,111572
143512,111568
143537,111585
143752,111686
143768,111853
143243,111451
143035,111394
142961,111367
142985,111350
142901,111366
142885,111350
142805,111315
142747,111249
142681,111256
142667,111215
142681,111297
142681,111236
142648,111260
142597,111288
142513,111222
142448,111159
142422,111141
142390,111124
142378,111152
142367,111141
142382,111177
142322,111139
142272,111117
142247,111074
142207,111085
142177,111073
142143,111101
142147,111099
142156,111061
142125,111041
142105,111001
142085,111071
142056,111013
141971,110972
142961,111367
141991,110988
142016,111010
142011,111037
141920,111022
141937,110987
141919,110966
141785,110966
141837,110933
141813,110917
141843,110931
141894,110931
141894,110949
141852,110951
141808,110951
141799,110929
141713,110945
141814,110999
141770,110950
141749,110888
141796,110915
141771,110935
141754,110924
141770,110948
141723,110921
141717,110866
141683,110854
141713,110875
141738,110864
141802,110940
141763,110918
141744,110908
141738,110942
141757,110953
141724,110901
141726,110954
141749,110897
141762,110950
141761,110910
141778,110910
141837,110933
141758,110938
141699,110932
141678,110895
141727,110898
141786,110909
141795,110904
141796,110919
141776,110919
141763,110913
141734,110897
141744,110946
141748,110949
141746,110920
141729,110921
141717,110909
141772,110919
141822,110903
141837,110914
141823,110949
141799,110904
141796,110974
141870,110885
141744,110908
141835,110955
141877,110972
141817,111007
141836,110970
141791,110930
141799,110892
141799,110915
141827,110926
141820,110925
141867,110938
141901,110913
141940,111003
141930,111040
141928,110963
141888,110940
141922,110993
141911,110956
141971,110972
141952,111014
141955,110968
141985,111025
141932,110991
142032,110975
142011,110990
141939,111000
142031,111000
142062,111050
142045,111015
142057,111055
142013,111045
142017,111003
142093,111036
142116,111053
142161,111055
142190,111095
142220,111077
142205,111104
142217,111091
142226,111074
142197,111119
142229,111106
142274,111078
142245,111100
142274,111114
142296,111124
142313,111100
142345,111118
142343,111101
142346,111114
142317,111118
142339,111127
142410,111116
142412,111141
142420,111146
142462,111116
142457,111175
142510,111148
142536,111156
142539,111162
142555,111176
142563,111179
142553,111183
142637,111180
142626,111258
142696,111273
142681,111281
142720,111272
142706,111283
142696,111283
142719,111266
142709,111319
142758,111236
142738,111271
142747,111257
142810,111247
142853,111323
142831,111267
142829,111276
142809,111273
142883,111271
142859,111265
142906,111313
142877,111287
142911,111318
142906,111347
142951,111333
142938,111361
143003,111374
142982,111413
142990,111382
143004,111383
143007,111415
142993,111397
143032,111369
143018,111388
143067,111375
143096,111382
143070,111395
143089,111421
143110,111434
143137,111403
143132,111430
143124,111412
143146,111451
143172,111440
143170,111456
143179,111415
143193,111443
143171,111466
143227,111482
143221,111478
143224,111453
143218,111456
143236,111481
143238,111492
143259,111503
143287,111484
143263,111483
143289,111451
143241,111456
143207,111473
143230,111427
143253,111467
143267,111464
143309,111438
143295,111443
143297,111486
143334,111508
143326,111519
143335,111523
143331,111481
143310,111481
143307,111514
143339,111506
143321,111468
143345,111513
143322,111514
143345,111506
143363,111477
143267,111509
143277,111471
143335,111484
143383,111479
143224,111453
143218,111456
143333,111535
143357,111529
143342,111518
143331,111524
143306,111479
143291,111481
143300,111481
143352,111466
143303,111464
143338,111462
143372,111468
143382,111509
143394,111510
143351,111497
143372,111511
143327,111466
143284,111462
143319,111444
143345,111473
143303,111483
143313,111491
143284,111413
143338,111492
143333,111446
143280,111446
143302,111427
143311,111382
143277,111471
143318,111434
143320,111400
143315,111489
143358,111501
143344,111447
143297,111475
143277,111438
143252,111449
143244,111438
143250,111422
143222,111443
143251,111436
143267,111406
143274,111412
143302,111447
143282,111448
143283,111449
143220,111450
143275,111465
143263,111458
143186,111464
143157,111431
143331,111443
143305,111448
143332,111473
143311,111451
143276,111444
143277,111434
143260,111429
143279,111442
143293,111482
143253,111476
143261,111430
143224,111486
143254,111446
143190,111429
143226,111422
143204,111441
143213,111400
143250,111449
143241,111412
143275,111374
143240,111408
143220,111399
143218,111392
143253,111401
143227,111454
143274,111459
143234,111468
143218,111435
143189,111427
143242,111391
143236,111420
143254,111406
143250,111456
143316,111463
143301,111437
143276,111426
143261,111408
143297,111485
143260,111466
143273,111444
143240,111468
143255,111415
143294,111423
143313,111430
143288,111374
143298,111435
143314,111480
143328,111470
143307,111472
143308,111467
143280,111396
143329,111507
143322,111470
143311,111436
143316,111441
143290,111422
143384,111487
143378,111468
143382,111512
143363,111499
143338,111454
143434,111472
143423,111481
143378,111477
143436,111494
143407,111486
143449,111464
143416,111415
143261,111408
143440,111467
143471,111523
143435,111533
143431,111514
143437,111534
143446,111500
143442,111514
143446,111514
143498,111491
143547,111611
143538,111540
143526,111508
143524,111568
143499,111549
143544,111486
143606,111530
143573,111549
143531,111516
143550,111578
143512,111547
143598,111549
143546,111561
143618,111615
143572,111579
143561,111553
143637,111551
143661,111582
143655,111604
143640,111571
143628,111532
143621,111540
143683,111591
143680,111659
143666,111586
143648,111565
143634,111563
143602,111547
143695,111578
143739,111595
143698,111550
143690,111567
143668,111626
143659,111585
143680,111554
143740,111637
143499,111549
143794,111591
143817,111640
143795,111623
143804,111625
143772,111660
143750,111652
143735,111580
143760,111590
143765,111591
143812,111588
143815,111556
143859,111619
143852,111640
143842,111638
143826,111636
143796,111645
143776,111639
143812,111594
143879,111659
143878,111647
143915,111668
143872,111669
143881,111662
143837,111634
143966,111614
143964,111684
143935,111719
143877,111711
143883,111680
143902,111712
143895,111676
143846,111652
143897,111611
143905,111664
143925,111656
143964,111672
143947,111675
143972,111694
143873,111687
143917,111670
144020,111693
144002,111660
143964,111728
143898,111697
143954,111668
144053,111696
144015,111710
144039,111718
144082,111708
144085,111756
144014,111710
144009,111718
144081,111739
144050,111764
144058,111766
144050,111731
144094,111734
144064,111708
144045,111714
144073,111729
144080,111685
144095,111736
144146,111691
144140,111755
144172,111728
144207,111780
144164,111765
144210,111816
144186,111778
144244,111766
144190,111779
144214,111790
144280,111772
144315,111775
144273,111842
144322,111841
144319,111811
144317,111831
144338,111820
144323,111838
144363,111884
144434,111865
144399,111868
144382,111823
144361,111887
144422,111832
144426,111847
144469,111841
144529,111901
144465,111848
144518,111904
144487,111872
144542,111899
144573,111905
144534,111937
144511,111924
144598,111932
144551,111907
144618,111895
144552,111902
144668,111909
144669,111926
144693,111977
144703,111987
144687,111996
144670,111933
144679,111965
144679,111932
144687,111979
144683,111996
144677,111975
144685,112017
144645,111952
144636,111921
144732,111956
144732,111975
144687,111950
144705,111937
144653,111928
144766,111953
144739,111920
144693,111946
144686,111935
144719,111930
144683,111930
144573,111905
144712,111906
144718,111971
144712,111988
144677,112001
144623,111946
144660,111898
144692,111974
144639,111908
144685,111932
144625,111927
144587,111909
144651,111881
144658,111913
144622,111876
144618,111932
144614,111902
144563,111928
144544,111926
144539,111898
144547,111854
144567,111929
144518,111871
144449,111836
144475,111812
144482,111878
144388,111854
144397,111787
144341,111788
144317,111797
144248,111767
144230,111758
144210,111713
144248,111718
144246,111751
144152,111724
144114,111704
144052,111633
144041,111685
144007,111663
144008,111642
143921,111607
144022,111606
143923,111650
143886,111620
143815,111584
143780,111521
143809,111566
143749,111537
143731,111561
143667,111518
143583,111469
143536,111496
143561,111443
143505,111434
143540,111401
143478,111409
143498,111427
143433,111398
143427,111421
143297,111391
143294,111334
143269,111372
143256,111344
143216,111329
143242,111335
143140,111310
143058,111329
143040,111283
142990,111261
143012,111218
143015,111269
142984,111267
142908,111246
142854,111147
142876,111201
142821,111227
142786,111220
142740,111194
142735,111141
142646,111156
142649,111117
142563,111095
142670,111073
142583,111081
142549,111131
142530,111047
142468,111065
142421,111032
142373,111043
142406,111090
142361,111027
142338,110996
142270,110972
142274,110961
142272,110931
142248,110950
142244,110945
142260,111014
142206,110965
142167,111029
142124,110948
142143,110976
142129,110950
142067,110916
141980,110896
142015,110866
141989,110911
141988,110858
141946,110880
141910,110912
141929,110855
141882,110855
141916,110815
141910,110870
141830,110863
141830,110842
141840,110826
141829,110847
141729,110795
141751,110828
141841,110875
141775,110761
141799,110781
141768,110805
141730,110806
141712,110814
141710,110772
141651,110749
141637,110786
141648,110744
141752,110744
141652,110739
141619,110803
141613,110749
141642,110725
141657,110782
141677,110706
141595,110769
141583,110769
141631,110776
141553,110718
141520,110714
141635,110726
141628,110706
141568,110728
141549,110740
141550,110695
141525,110686
141623,110756
141574,110690
141549,110738
141549,110754
141556,110746
141520,110671
141544,110676
141568,110708
141615,110655
141642,110716
141646,110712
141581,110796
141591,110761
141574,110765
141614,110744
141609,110713
141602,110714
141645,110689
141693,110761
141687,110717
141614,110740
141636,110727
141622,110763
141735,110787
141799,110786
141747,110789
141766,110777
141782,110819
141747,110758
141729,110745
141709,110810
141728,110792
141834,110819
141783,110786
141805,110792
141795,110775
141792,110768
141842,110791
141870,110820
141903,110785
141883,110831
141838,110826
141871,110775
141870,110880
141853,110820
141848,110800
141909,110837
141907,110823
141948,110874
141907,110851
141871,110851
141947,110843
141989,110910
141973,110876
141952,110841
141998,110878
141970,110905
142006,110852
142003,110905
142014,110893
142030,110911
142023,110925
142052,110890
142056,110875
142006,110917
142039,110851
142069,110913
142146,110942
142112,110925
142116,110927
142100,110900
142085,110901
142179,110904
142153,110935
142142,110918
142149,110949
142141,110941
142172,110934
142199,110992
142214,110926
142182,110986
142191,110967
142247,110939
142264,110958
142261,110919
141973,110876
142310,110968
142333,111024
142337,110983
142368,111038
142344,111008
142364,111038
142329,110996
142303,111013
142319,111034
142372,110990
142336,110997
142486,111042
142458,111079
142400,111013
142453,111108
142409,111054
142420,111036
142509,111005
142508,111078
142568,111080
142472,111108
142592,111147
142493,111136
142566,111130
142523,111079
142589,111081
142597,111100
142577,111087
142677,111086
142694,111145
142684,111089
142697,111192
142629,111138
142641,111131
142725,111117
142773,111128
142752,111153
142734,111145
142756,111160
142735,111145
142834,111190
142835,111185
142804,111151
142825,111207
142798,111205
142816,111148
142855,111203
142893,111234
142865,111211
142833,111220
142819,111189
142866,111188
142839,111244
142897,111190
142918,111188
142950,111174
142934,111235
142968,111279
142994,111229
142959,111256
142955,111194
142938,111257
142936,111225
142937,111204
143000,111245
143030,111280
142963,111227
143003,111227
142955,111179
142986,111244
143038,111267
143030,111203
142996,111231
142999,111214
142971,111229
142944,111168
142798,111205
142995,111198
143016,111231
142971,111248
142976,111235
142954,111174
143009,111272
143001,111223
142997,111213
142964,111256
142942,111212
142950,111208
143005,111252
142950,111174
142934,111226
142936,111211
142931,111232
142835,111191
142856,111124
142955,111221
142931,111210
142924,111180
142924,111192
142955,111162
142965,111191
142933,111209
142924,111230
142890,111214
142894,111183
142851,111133
142838,111181
142876,111171
142892,111152
142954,111164
142871,111190
142921,111208
142884,111197
142813,111163
142847,111177
142871,111146
142872,111163
142835,111147
142877,111155
142865,111164
142891,111153
142872,111198
142951,111152
142928,111182
142925,111200
142898,111157
142857,111182
142928,111164
142926,111202
142866,111230
142871,111176
142891,111209
142900,111206
142847,111177
142885,111143
142955,111204
142921,111163
142891,111207
142921,111187
142913,111181
142881,111135
142929,111179
142932,111160
142922,111118
142884,111197
142961,111158
142952,111191
142959,111215
142937,111213
142940,111196
142945,111206
142866,111196
142924,111176
142885,111141
142929,111137
143011,111163
142959,111191
142974,111218
142922,111193
142987,111178
142991,111194
142986,111216
142993,111194
142978,111216
142996,111184
142962,111145
142885,111143
142994,111225
143015,111206
143008,111205
142992,111259
142981,111252
142959,111262
142993,111213
142996,111225
143025,111251
142918,111200
143016,111168
143079,111237
142992,111182
142995,111221
142982,111229
142977,111168
143051,111210
143052,111223
143064,111194
143002,111199
143028,111202
143058,111248
143066,111220
143018,111163
143014,111192
143035,111185
143015,111215
142993,111194
143070,111242
143080,111276
143064,111264
143070,111274
143057,111239
143049,111227
142989,111250
143066,111240
143147,111289
143135,111249
143098,111235
143083,111237
143060,111215
143178,111326
143164,111251
143157,111274
143135,111249
143141,111255
143097,111283
143177,111243
143211,111347
143255,111304
143179,111286
143221,111282
143263,111299
143163,111347
143226,111378
143216,111255
143181,111301
143214,111267
143209,111275
143266,111309
143247,111264
143309,111297
143327,111355
143306,111325
143302,111362
143280,111270
143317,111367
143326,111317
143349,111332
143309,111327
143339,111376
143340,111374
143338,111356
143299,111316
143394,111310
143367,111333
143424,111341
143455,111418
143387,111341
143429,111342
143354,111359
143418,111355
143445,111422
143414,111400
143431,111421
143359,111339
143401,111347
143479,111383
143476,111360
143474,111409
143418,111386
143453,111361
143489,111399
143529,111417
143516,111386
143495,111494
143516,111378
143552,111419
143521,111464
143553,111384
143537,111453
143589,111403
143515,111356
143491,111476
143513,111440
143563,111469
143575,111450
143584,111477
143640,111426
143607,111394
143606,111477
143598,111479
143607,111464
143593,111423
143644,111427
143650,111450
143635,111460
143610,111450
143686,111452
143689,111414
143747,111446
143743,111483
143718,111496
143746,111482
143743,111503
143750,111470
143781,111553
143800,111518
143768,111528
143759,111518
143791,111508
143767,111508
143843,111441
143860,111544
143876,111516
143844,111575
143872,111551
143786,111536
143887,111535
143862,111533
143923,111563
143898,111491
143919,111575
143921,111554
143915,111516
143941,111587
143913,111574
143899,111566
143983,111555
143987,111558
144025,111586
144061,111616
144062,111587
144027,111585
144031,111595
144027,111571
144077,111608
144055,111640
144065,111629
144087,111617
143984,111583
144079,111571
144102,111548
144072,111627
143843,111441
144146,111646
144092,111666
144067,111647
144160,111622
144068,111653
144118,111672
144139,111674
144139,111625
144162,111644
144195,111670
144233,111657
144229,111641
144204,111672
144255,111674
144251,111696
144301,111683
144237,111667
144231,111684
144265,111658
144341,111659
144287,111687
144300,111679
144277,111697
144314,111631
144330,111652
144393,111740
144313,111709
144342,111698
144368,111708
144390,111739
144372,111682
144381,111699
144388,111758
144358,111742
144376,111711
144409,111717
144449,111684
144389,111727
144498,111722
144472,111743
144503,111763
144472,111745
144462,111709
144537,111815
144529,111778
144491,111762
144507,111739
144551,111777
144468,111706
144517,111734
144554,111795
144507,111785
144443,111767
144433,111735
144480,111717
144395,111719
144402,111678
144378,111708
144461,111720
144435,111722
144377,111717
144383,111700
144317,111658
144333,111719
144284,111700
144181,111641
144169,111600
144233,111648
144189,111580
144095,111597
144060,111556
144057,111554
143966,111576
143938,111528
143859,111514
143825,111483
143775,111485
143725,111441
143681,111427
143756,111431
143690,111436
143612,111377
143607,111329
143571,111395
143519,111389
143514,111345
143486,111377
143417,111346
143377,111316
143338,111306
143300,111236
143243,111236
143256,111218
143192,111263
143151,111161
144333,111719
144284,111700
143105,111140
143052,111087
143021,111165
143007,111117
142983,111117
142952,111125
142929,111134
142921,111098
142897,111124
142856,111061
142829,111086
142822,111087
142801,111094
142784,111076
142722,111077
142675,111063
142674,111011
142611,111022
142585,111005
142599,110961
142526,110965
142490,111021
142543,110966
142510,110975
142464,110966
142445,110977
142450,110950
142438,110973
142380,110932
142358,110920
142333,110938
142335,110944
142339,110919
142264,110906
142257,110846
142238,110890
142253,110884
142214,110818
142192,110863
142180,110830
142138,110852
142135,110793
142122,110799
142147,110792
142123,110777
142083,110799
142048,110744
142042,110721
142042,110769
142007,110717
142018,110717
141980,110713
142526,110965
142490,111021
142015,110722
142001,110708
141970,110712
141958,110719
141979,110725
141962,110718
141936,110735
141948,110725
141948,110677
141876,110751
141906,110748
141902,110725
141837,110755
141870,110684
141790,110613
141874,110704
141856,110704
141870,110675
141860,110681
141804,110676
141787,110680
141782,110628
141794,110642
141739,110643
142048,110744
142042,110721
141781,110624
141825,110639
141837,110682
141822,110717
141766,110713
141801,110726
141813,110689
141794,110710
141767,110697
141761,110678
141776,110688
141832,110673
141784,110715
141878,110664
141841,110706
141881,110768
141867,110735
141825,110699
141809,110685
141821,110658
141854,110708
141948,110666
141948,110732
141929,110753
141936,110747
141948,110773
141994,110770
141996,110788
141969,110767
141992,110766
141961,110763
141947,110750
141954,110735
141965,110730
141979,110778
142044,110775
141998,110775
142090,110821
142077,110849
142095,110816
142083,110793
142110,110785
142061,110803
142065,110744
142128,110795
142225,110808
142227,110826
142178,110867
142213,110831
142231,110812
142251,110843
142252,110855
142203,110911
142260,110897
142219,110877
142258,110895
142230,110826
142256,110852
142232,110849
142297,110864
142330,110836
142279,110872
141961,110763
142382,110921
142409,110936
142399,110961
142437,110914
142408,110957
142425,110917
142375,110912
142406,110932
142460,110963
142532,110931
142540,110949
142561,110944
142542,110975
142575,110950
142559,110948
142606,110994
142618,110995
142601,111019
142589,110980
142663,111040
142647,111022
142656,111032
142747,111037
142703,111035
142716,111037
142715,111049
142786,111078
142755,111065
142785,111085
142741,111061
142760,111027
142830,111037
142860,111107
142897,111064
142887,111145
142865,111093
142924,111102
142977,111158
142997,111134
142957,111102
143010,111176
142974,111156
143044,111170
143041,111167
143138,111205
143083,111153
143109,111128
143182,111201
143151,111243
143182,111226
143190,111231
143185,111209
143175,111202
143216,111255
143210,111245
143219,111234
143217,111247
143211,111231
143234,111207
143355,111277
143298,111254
143308,111284
143272,111265
143291,111241
143381,111292
143345,111248
143339,111259
143400,111293
143392,111243
143350,111251
143432,111306
143439,111293
143450,111329
143449,111345
143418,111369
143441,111341
143404,111301
143407,111302
143452,111267
143503,111253
143532,111325
143506,111354
143491,111284
143518,111352
143466,111316
143483,111282
143547,111334
143569,111375
143509,111311
143519,111372
143516,111346
143570,111337
143533,111338
143531,111323
143554,111352
143580,111373
143516,111380
143537,111361
143474,111324
143439,111332
143478,111300
143528,111270
143604,111351
143589,111364
143570,111326
143520,111314
143474,111267
143502,111324
143483,111278
143571,111346
143519,111327
143538,111346
143521,111310
143497,111294
143554,111318
143477,111305
143518,111273
143501,111253
143554,111323
143527,111273
143581,111343
143544,111335
143497,111321
143490,111322
143469,111330
143485,111303
143398,111297
143441,111247
143453,111268
143502,111266
143543,111301
143504,111328
143568,111272
143509,111315
143493,111313
143532,111260
143494,111312
143488,111337
143463,111305
143478,111322
143493,111268
143479,111277
143502,111339
143515,111306
143494,111301
143430,111289
143481,111292
143400,111243
143409,111276
143401,111238
143529,111243
143490,111273
143505,111273
143512,111313
143444,111278
143438,111309
143354,111263
143378,111268
143487,111312
143481,111295
143425,111295
143423,111289
143438,111267
143398,111232
143383,111324
143389,111298
143365,111273
143376,111254
143360,111224
143374,111250
143370,111250
143405,111221
143406,111254
143436,111244
143458,111323
143429,111263
143440,111250
143412,111231
143457,111280
143416,111299
143437,111302
143369,111242
143385,111217
143494,111294
143488,111216
143446,111220
143442,111278
143479,111278
143448,111194
143467,111267
143499,111251
143527,111282
143512,111332
143509,111319
143510,111320
143458,111313
143470,111281
143456,111286
143446,111259
143481,111272
143536,111262
143566,111280
143594,111314
143557,111333
143542,111323
143553,111321
143544,111299
143541,111280
143552,111336
143581,111327
143584,111315
143602,111307
143584,111302
143615,111367
143625,111324
143571,111277
143607,111366
143576,111326
143552,111305
143678,111376
143661,111337
143686,111343
143653,111314
143656,111301
143694,111348
143673,111381
143656,111388
143693,111381
143671,111364
143627,111331
143638,111340
143626,111337
143682,111338
143765,111304
143720,111364
143663,111365
143696,111323
143764,111384
143764,111421
143772,111401
143744,111409
143800,111406
143821,111450
143821,111401
143835,111433
143743,111379
143724,111378
143748,111384
143774,111358
143808,111359
143847,111406
143844,111398
143768,111373
143807,111372
143789,111326
143839,111388
143866,111410
143812,111414
143838,111392
143832,111408
143869,111410
143874,111438
143862,111459
143894,111399
143857,111404
143871,111387
143849,111463
143845,111416
143800,111443
143814,111395
143852,111384
143849,111399
143909,111384
143919,111463
143886,111477
143873,111420
143883,111389
143864,111373
143918,111477
143919,111419
143948,111481
143895,111462
143931,111446
143990,111437
143938,111418
143807,111372
143993,111443
144013,111457
144036,111457
143980,111472
144008,111508
143924,111437
143978,111449
143985,111440
144037,111428
144066,111523
144074,111511
144029,111480
144064,111479
144027,111524
144023,111521
144068,111558
144129,111564
144141,111500
144143,111555
144134,111509
143886,111477
144198,111516
143883,111389
144169,111518
144243,111580
144206,111548
144190,111619
144215,111598
144200,111552
144183,111574
144217,111518
144257,111545
144301,111546
144289,111627
144335,111628
144370,111601
144334,111553
144292,111596
144298,111613
144275,111583
144299,111571
144389,111628
144329,111600
144375,111604
144324,111572
144382,111582
144354,111559
144421,111586
144403,111630
144335,111633
144366,111595
144397,111632
144433,111668
144453,111653
144449,111642
144407,111621
144434,111641
144467,111649
144450,111690
144445,111676
144385,111616
144395,111660
144407,111606
144452,111653
144494,111669
144541,111684
144478,111647
144509,111646
144510,111663
144490,111594
144519,111690
144489,111671
144472,111652
144462,111673
144450,111652
144462,111608
144524,111639
144568,111636
144575,111642
144569,111693
144555,111674
144544,111658
144602,111725
144564,111741
144627,111746
144614,111739
144585,111705
144521,111701
144546,111695
144676,111705
144647,111639
144636,111731
144612,111655
144694,111742
144701,111719
144670,111706
144692,111723
144670,111668
144675,111700
144670,111718
144789,111769
144697,111758
144724,111721
144776,111783
144774,111735
144766,111750
144748,111757
144804,111803
144752,111766
144745,111782
144718,111783
144771,111755
144838,111824
144861,111757
144795,111784
144864,111793
144891,111753
144891,111844
144913,111851
144899,111832
144887,111785
144846,111811
144931,111801
144859,111821
144843,111798
144908,111796
144912,111831
144891,111781
144911,111863
144822,111808
144840,111773
144889,111754
144950,111827
144902,111762
144856,111743
144848,111748
144863,111831
144832,111790
144790,111757
144756,111700
144781,111717
144685,111658
144718,111783
144675,111662
144689,111712
144611,111704
144471,111652
144483,111588
144468,111566
144485,111633
144366,111542
144322,111542
144300,111555
144239,111481
144275,111483
144230,111502
144150,111447
144083,111487
144048,111394
143954,111408
144035,111458
143996,111381
143903,111378
143848,111362
143872,111342
143841,111339
143764,111282
143727,111313
143677,111281
143604,111252
143559,111196
143564,111247
143518,111232
143441,111228
143440,111163
143388,111176
143302,111130
143337,111102
143295,111161
143247,111079
143187,111123
143099,111084
143052,111086
143011,111026
142967,110999
142991,110973
142927,111025
142897,110999
142871,110934
142877,110968
142833,110981
142766,110989
142730,110961
142677,110926
142620,110858
142569,110893
142651,110928
142583,110865
142533,110824
142475,110866
142420,110808
142407,110745
142453,110809
142391,110796
142280,110742
142279,110756
142226,110795
142262,110719
142253,110736
142187,110693
142161,110718
142113,110666
142110,110712
142102,110699
142019,110653
141996,110659
141990,110639
141956,110597
142927,111025
141926,110638
141912,110599
141920,110647
141857,110660
141826,110648
141747,110601
141737,110564
141762,110581
141753,110570
141680,110515
141684,110597
141619,110536
141612,110520
141626,110516
141626,110542
141618,110518
141602,110530
141607,110508
141576,110519
141561,110558
141557,110490
141555,110497
141497,110472
141485,110461
141415,110474
141463,110419
141509,110408
141478,110477
141461,110448
141453,110489
141417,110432
141392,110399
141497,110459
141448,110461
141399,110453
141434,110455
141345,110424
141440,110388
141435,110461
141386,110395
141336,110414
141403,110371
141434,110465
141408,110423
141371,110425
141404,110387
141362,110425
141355,110407
141401,110470
141361,110454
141368,110386
141351,110428
141341,110393
141319,110401
141360,110412
141397,110463
141360,110432
141376,110393
141371,110429
141294,110383
141372,110393
141395,110410
141381,110424
141356,110383
141354,110396
141330,110381
141323,110405
141360,110394
141341,110405
141382,110408
141413,110454
141398,110465
141404,110467
141424,110426
141430,110435
141433,110442
141350,110423
141404,110414
141463,110476
141441,110421
141427,110409
141427,110478
141406,110409
141469,110428
141463,110454
141457,110409
141470,110440
141481,110379
141460,110432
141435,110410
141494,110468
141521,110500
141499,110511
141529,110507
141516,110475
141515,110463
141485,110460
141524,110453
141576,110489
141625,110457
141631,110535
141621,110517
141592,110531
141596,110529
141651,110487
141671,110526
141622,110515
141627,110494
141687,110507
141737,110566
141737,110535
141703,110580
141701,110506
141746,110546
141760,110588
141818,110598
141836,110611
141838,110637
141873,110552
141818,110568
141836,110538
141785,110567
141894,110632
141911,110672
141911,110651
141885,110618
141915,110578
141951,110640
141988,110653
141996,110636
141999,110675
141972,110653
142000,110676
142081,110684
142056,110652
142024,110649
142023,110709
142139,110699
142160,110715
142156,110753
142110,110737
142141,110736
142110,110746
142100,110757
142162,110693
142180,110716
142256,110718
142225,110792
142258,110781
142275,110700
142276,110725
142313,110755
142287,110791
142340,110782
142332,110761
142317,110725
142289,110781
142300,110745
142405,110787
142342,110847
142409,110818
142357,110812
142361,110796
142401,110769
142433,110791
142490,110818
142482,110836
142484,110848
142477,110831
142486,110832
142523,110848
142444,110823
142551,110876
142497,110874
142537,110900
142542,110928
142513,110838
142500,110907
142479,110863
142603,110880
142649,110905
142575,110903
142626,110906
142618,110854
142615,110871
142678,110956
142660,110901
142666,110902
142670,110913
142676,110858
142640,110921
142735,110961
142685,110966
142704,110945
142664,110908
142669,110905
142779,110968
142731,110873
142674,110869
142723,110935
142663,110902
142771,110906
142760,110952
142720,110864
142702,110925
142692,110909
142718,110901
142700,110920
142687,110914
142738,110905
142756,110884
142842,110944
142808,110908
142771,110943
142763,110895
142745,110883
142794,110959
142771,110907
142738,110937
142712,110924
142667,110914
142678,110925
142670,110898
142696,110877
142681,110863
142707,110882
142743,110915
142742,110875
142758,110942
142718,110895
142739,110850
142709,110856
142768,110892
142716,110879
142694,110883
142712,110855
142691,110869
142734,110887
142672,110831
142700,110920
142719,110881
142746,110918
142690,110949
142713,110931
142699,110919
142647,110887
142664,110826
142782,110882
142716,110925
142691,110849
142687,110918
142642,110882
142702,110870
142695,110871
142639,110822
142663,110887
142693,110848
142689,110912
142739,110938
142694,110875
142677,110918
142669,110890
142657,110878
142638,110870
142632,110859
142640,110873
142647,110839
142693,110845
142715,110839
142727,110846
142760,110881
142767,110914
142754,110911
142708,110903
142728,110860
142726,110912
142646,110886
142722,110857
142664,110826
142696,110865
142727,110937
142686,110885
142715,110912
142647,110866
142660,110862
142641,110856
142658,110865
142738,110905
142702,110908
142749,110900
142724,110895
142686,110896
142731,110863
142725,110904
142659,110850
142718,110858
142738,110922
142729,110881
142693,110886
142693,110918
142667,110899
142705,110894
142718,110898
142717,110949
142696,110856
142687,110887
142766,110879
142761,110884
142736,110854
142796,110913
142713,110903
142691,110875
142694,110896
142675,110891
142761,110861
142713,110876
142764,110859
142810,110917
142804,110950
142777,110961
142751,110926
142781,110870
142843,110925
142821,110954
142755,110923
142784,110907
142791,110883
142775,110876
142832,110890
142861,110949
142812,110953
142798,110931
142790,110901
142805,110905
142809,110909
142851,110899
142886,110893
142922,110916
142908,110994
142907,110933
142904,110912
142836,110947
142876,110951
142938,110985
142844,110944
142859,110924
142925,110953
142919,110978
142911,110957
142902,110959
142899,110935
142904,111010
142895,110987
142940,110994
142969,110987
142976,111042
142989,110974
142973,110942
143005,110947
142985,111026
142927,110993
142993,110986
143039,111024
143006,110992
143024,110981
143020,110989
143003,110954
143085,111002
143010,110959
142995,111003
143120,111014
143062,111025
143064,111029
143098,111016
143092,111033
143077,110958
142844,110944
143109,110972
143133,110990
143124,111064
143086,111020
143051,111003
143112,111025
143175,111044
143086,110971
143148,111049
143058,111041
143091,111017
143135,111019
143184,111104
143209,111088
143149,111060
143212,111118
143218,111108
143180,111048
143119,111056
143216,111080
143247,111035
143256,111044
143217,111053
143214,111031
142995,111003
143282,111044
143277,111061
143294,111091
143261,111163
143230,111050
143288,111064
143349,111143
143365,111105
143296,111098
143326,111131
143319,111115
143371,111147
143420,111145
143394,111088
143356,111165
143384,111152
143361,111144
143465,111128
143441,111157
143418,111190
143427,111190
143430,111145
143470,111198
143493,111194
143504,111186
143499,111233
143483,111195
143482,111230
143489,111199
143482,111213
143506,111201
143537,111189
143519,111240
143510,111207
143486,111205
143527,111210
143570,111218
143510,111197
143518,111167
143496,111201
143557,111175
143572,111179
143589,111197
143671,111185
143563,111143
143607,111172
143356,111165
143384,111152
143642,111192
143687,111215
143713,111189
143730,111233
143736,111261
143712,111256
143719,111274
143729,111291
143729,111294
143728,111313
143737,111299
143738,111286
143771,111339
143757,111317
143780,111277
143774,111280
143752,111287
143776,111289
143771,111283
143797,111324
143856,111295
143864,111378
143899,111328
143883,111285
143954,111377
143926,111363
143910,111379
143898,111356
143922,111366
143985,111348
143924,111324
143954,111358
143911,111350
143935,111369
143978,111359
143978,111358
144010,111352
144005,111403
144005,111389
143985,111383
144008,111369
144015,111384
144084,111346
144071,111386
144012,111402
144063,111392
144085,111343
144103,111360
144099,111385
144140,111405
144184,111357
144189,111385
144177,111400
144190,111390
144244,111403
144234,111451
144232,111469
144256,111425
144250,111462
144259,111485
144217,111494
144237,111423
144252,111472
144244,111444
144222,111441
144278,111447
144259,111447
144321,111459
144268,111436
144218,111416
144242,111419
144246,111472
144269,111456
144329,111474
144287,111480
144323,111471
144366,111476
144293,111391
144289,111420
144103,111360
144340,111465
144289,111427
144309,111499
144344,111468
144258,111496
144265,111466
144285,111458
144265,111479
144257,111444
144227,111434
144226,111419
144235,111399
144174,111427
144217,111399
144134,111383
144192,111373
144128,111417
144087,111344
144080,111311
144006,111316
144268,111436
144021,111334
143971,111359
143916,111326
143849,111265
143828,111283
143767,111217
143678,111231
143711,111198
143682,111190
143636,111134
143634,111152
143587,111146
143539,111119
143431,111107
143412,111097
143382,111087
143284,111049
143278,111035
143252,111015
143296,110993
143263,111006
143201,111008
143172,110980
143138,110972
143070,110935
143039,110906
143031,110953
142961,110931
142885,110908
142855,110882
142787,110844
142740,110823
142716,110792
142690,110772
142653,110757
142629,110729
142571,110744
142521,110738
142555,110770
142484,110760
142450,110739
142352,110727
142308,110701
142316,110665
142287,110606
142245,110600
142266,110627
142247,110655
142214,110645
142157,110575
142091,110551
142115,110573
142044,110550
142010,110578
141964,110545
141936,110549
141830,110533
141815,110511
141937,110462
141875,110488
141847,110459
141775,110460
141704,110435
141697,110411
141726,110437
141667,110436
141629,110372
141574,110419
141563,110357
141512,110378
141520,110349
141504,110364
141518,110343
141532,110346
141499,110372
141491,110361
141439,110342
141429,110285
141381,110287
141424,110329
141363,110303
141312,110287
141282,110259
141384,110285
141297,110269
141215,110319
141227,110290
141221,110244
141227,110237
141205,110194
141161,110208
141144,110187
141243,110271
141188,110211
141186,110257
141150,110188
141097,110249
141177,110267
141117,110270
141125,110204
141105,110223
141080,110171
141121,110160
141131,110209
141097,110157
141088,110196
141028,110167
141017,110174
141083,110194
141054,110218
141073,110197
141014,110169
140968,110126
140988,110191
140982,110166
140962,110115
141043,110184
141029,110158
140987,110153
141046,110166
141021,110167
141012,110205
140980,110165
140968,110169
140936,110147
140917,110150
140964,110096
140949,110111
141025,110118
141028,110141
141027,110139
140995,110154
140962,110146
140962,110168
141031,110186
141022,110137
141097,110157
141027,110129
141064,110201
141100,110209
141039,110260
141040,110215
141021,110195
141048,110207
141021,110182
141018,110179
141093,110164
141000,110144
141105,110159
141116,110185
141194,110220
141196,110234
141169,110267
141195,110213
141160,110189
141209,110216
141182,110207
141204,110242
141160,110216
141220,110214
141025,110118
141252,110234
141259,110233
141278,110257
141291,110289
141275,110310
141264,110300
141221,110293
141274,110287
141274,110251
141293,110255
141372,110302
141358,110246
141352,110249
141337,110347
141328,110269
141427,110284
141430,110378
141429,110291
141456,110314
141464,110322
141481,110322
141488,110345
141454,110367
141389,110317
141452,110343
141558,110360
141569,110394
141582,110371
141576,110411
141568,110356
141535,110367
141566,110354
141594,110416
141584,110436
141602,110416
141618,110413
141553,110381
141571,110359
141644,110413
141661,110420
141748,110467
141717,110423
141709,110435
141698,110454
141726,110464
141680,110427
141744,110460
141844,110460
141818,110481
141878,110486
141884,110450
141896,110527
141894,110519
141863,110477
141907,110506
141894,110521
141943,110532
141934,110561
141935,110512
141999,110561
142007,110540
141992,110479
142009,110585
141935,110567
142047,110523
142067,110587
142066,110555
142021,110561
142059,110569
142022,110541
142131,110572
142124,110606
142111,110567
142097,110632
142083,110617
142064,110618
142081,110611
142115,110588
142196,110557
142242,110592
142264,110622
142235,110655
142210,110616
142222,110598
142254,110651
142244,110644
142217,110675
142200,110645
142192,110620
142228,110629
142245,110665
142259,110616
142299,110589
142296,110638
142313,110631
142285,110706
142268,110708
142295,110702
142295,110626
142246,110655
142253,110620
142308,110590
142345,110679
142328,110626
142344,110720
142336,110652
142302,110655
142308,110663
142344,110617
142348,110652
142388,110629
142394,110697
142370,110641
142354,110679
142378,110634
142346,110676
142359,110606
142244,110644
142439,110661
142437,110637
142417,110700
142374,110691
142358,110678
142371,110663
142445,110737
142375,110664
142339,110619
142413,110722
142372,110718
142345,110704
142331,110670
142360,110621
142417,110636
142424,110655
142339,110611
142345,110650
142315,110624
142348,110655
142312,110669
142315,110659
142368,110673
142370,110670
142362,110684
142335,110688
142266,110632
142253,110595
142391,110640
142321,110653
142360,110665
142311,110648
142247,110598
142286,110615
142365,110661
142320,110664
142292,110581
142339,110657
142291,110661
142273,110619
142261,110625
142236,110589
142300,110587
142302,110631
142331,110590
142319,110612
142260,110632
142222,110605
142231,110590
142286,110591
142240,110566
142312,110580
142299,110628
142261,110567
142254,110594
142199,110623
142311,110603
142364,110652
142292,110644
142268,110631
142275,110635
142250,110584
142311,110627
142303,110672
142237,110657
142248,110602
142259,110583
142304,110592
142223,110617
142254,110597
142270,110583
142305,110538
142309,110647
142357,110615
142303,110656
142256,110589
142282,110650
142245,110623
142242,110651
142374,110649
142291,110595
142354,110694
142238,110632
142241,110620
142291,110592
142318,110667
142342,110657
142325,110622
142312,110593
142365,110662
142312,110597
142308,110551
142272,110601
142381,110605
142351,110610
142315,110628
142360,110608
142248,110602
142399,110687
142391,110678
142326,110643
142386,110628
142415,110644
142406,110624
142372,110636
142394,110675
142350,110675
142431,110639
142476,110656
142424,110665
142430,110714
142378,110672
142388,110650
142500,110738
142472,110708
142461,110660
142489,110685
142470,110674
142514,110668
142512,110727
142523,110712
142514,110728
142502,110708
142480,110661
142544,110736
142497,110738
142504,110723
142473,110734
142443,110683
142448,110663
142422,110670
142544,110699
142540,110727
142496,110671
142523,110745
142430,110706
142506,110670
142525,110683
142523,110712
142526,110706
142534,110706
142476,110671
142511,110693
142514,110661
142504,110703
142595,110644
142595,110702
142585,110710
142597,110742
142582,110676
142503,110663
142532,110730
142479,110704
142515,110701
142558,110754
142579,110724
142555,110698
142550,110706
142492,110679
142602,110727
142624,110732
142550,110693
142602,110725
142564,110698
142594,110709
142545,110650
142523,110745
142637,110727
142630,110763
142633,110799
142614,110774
142610,110768
142581,110774
142590,110735
142586,110742
142602,110740
142591,110698
142679,110761
142732,110779
142661,110747
142664,110802
142685,110779
142621,110789
142668,110717
142755,110759
142718,110750
142739,110788
142717,110765
142697,110787
142693,110763
142698,110779
142727,110730
142737,110731
142732,110773
142762,110789
142827,110811
142870,110786
142825,110825
142811,110780
142793,110850
142748,110784
142792,110786
142869,110834
142859,110797
142822,110821
142835,110837
142766,110796
142815,110772
142866,110815
142806,110816
142842,110789
142853,110839
142826,110799
142855,110848
142869,110808
142861,110766
142755,110759
142855,110826
142915,110865
142889,110882
142841,110877
142853,110828
142836,110826
142848,110767
142901,110787
142897,110816
142891,110843
142962,110853
142912,110865
142870,110814
142941,110848
142902,110859
142885,110835
142881,110822
142917,110838
142863,110892
142952,110869
142914,110871
142859,110855
142915,110871
142907,110840
142865,110844
142894,110835
142935,110842
142974,110809
142993,110869
143048,110867
143009,110899
142999,110821
143013,110908
142950,110861
142935,110829
143002,110858
143020,110940
143037,110883
143052,110918
142993,110871
143062,110862
143081,110862
143068,110917
143021,110910
143049,110918
143064,110845
143071,110855
143097,110864
143099,110911
143131,110928
143173,110948
143130,110974
143164,110909
143119,110923
143128,110958
143194,110952
143156,110953
143140,110900
143188,110949
143195,110946
143177,110926
143189,110982
143236,110914
143232,110910
143302,110952
143250,110968
143271,110946
143276,110930
143314,110958
143302,110975
143254,110943
143318,111022
143322,110994
143273,111022
143293,111016
143281,110987
143339,110974
143288,110958
143288,110975
143377,110956
143401,110999
143403,110977
143386,111043
143355,110989
143388,110961
143418,111009
143447,111041
143397,111005
143408,110996
143428,110989
143398,111002
143421,110988
143177,110926
143414,111001
143442,111042
143486,111034
143521,111096
143491,111070
143449,111062
143417,111023
143434,111042
143440,111018
143476,111005
143550,111106
143502,111030
143507,111071
143442,111038
143518,111044
143585,111075
143537,111002
143566,111090
143460,111045
143564,111063
143499,111100
143553,111097
143536,111071
143527,111082
143564,111045
143587,111045
143650,111077
143626,111085
143626,111093
143583,111058
143533,111048
143625,111113
143539,111085
143487,111074
143505,111075
143486,111041
143434,111019
143435,110964
143495,111066
143446,111010
143390,110947
143390,110983
143336,110979
143369,110954
143270,110990
143263,110959
143254,110884
143280,110945
143243,110936
143192,110901
143139,110872
143169,110875
143105,110922
143068,110885
143015,110854
142949,110778
142918,110762
142850,110779
142813,110702
142807,110747
142820,110742
142793,110775
142697,110669
142634,110708
142627,110669
142618,110643
142599,110676
142552,110649
142480,110586
142457,110559
142471,110631
142432,110594
142305,110548
142298,110542
142225,110501
142157,110521
142133,110456
142148,110456
142177,110407
142119,110436
142071,110494
141996,110435
141957,110418
141914,110464
141860,110359
141835,110330
141815,110374
141771,110390
141698,110339
141660,110297
141662,110295
141591,110293
141578,110262
141504,110258
141513,110268
141462,110262
141436,110184
141387,110162
141362,110148
141287,110147
141231,110076
141184,110115
142471,110631
141141,110097
141162,110083
141109,110125
141075,110109
141029,110026
141064,110073
140968,110014
140936,110023
140879,110045
140837,109977
140860,110001
140869,109970
140806,110007
140805,109988
140796,109983
140683,109937
140643,109902
140609,109941
140570,109876
140577,109895
140604,109894
140602,109909
140593,109941
140550,109901
140499,109815
140520,109932
140488,109885
140442,109859
140427,109853
140356,109835
140338,109792
140377,109787
140383,109765
140321,109772
140391,109815
140312,109815
140276,109770
140305,109819
140227,109742
140295,109808
140301,109784
140241,109754
140250,109744
140271,109777
140217,109787
140237,109847
140177,109791
140176,109738
140111,109723
140142,109753
140186,109707
140179,109691
140186,109746
140181,109739
140139,109677
140117,109702
140118,109739
140036,109723
140121,109695
140113,109731
140094,109694
140088,109725
140084,109680
140221,109762
140150,109737
140130,109811
140071,109773
140061,109704
140115,109699
140182,109759
140094,109761
140147,109705
140083,109706
140159,109775
140143,109775
140142,109769
140075,109712
140074,109712
140116,109702
140160,109673
140211,109761
140205,109760
140154,109725
140142,109746
140106,109736
140148,109721
140151,109724
140142,109698
140136,109698
140151,109712
140133,109710
140147,109771
140193,109725
140167,109684
140225,109744
140165,109774
140140,109776
140152,109721
140211,109707
140222,109804
140180,109738
140166,109736
140227,109800
140224,109809
140226,109797
140210,109778
140145,109745
140248,109771
140187,109800
140261,109817
140215,109818
140215,109770
140219,109753
140181,109782
140196,109785
140238,109758
140256,109802
140234,109728
140237,109808
140194,109758
140308,109749
140339,109757
140341,109833
140332,109831
140322,109813
140293,109779
140329,109779
140314,109781
140294,109763
140329,109813
140354,109808
140326,109779
140280,109789
140328,109852
140324,109810
140302,109788
140316,109807
140340,109807
140393,109825
140425,109895
140417,109821
140406,109853
140356,109818
140492,109880
140444,109880
140467,109844
140495,109892
140487,109882
140425,109863
140485,109839
140530,109906
140534,109879
140522,109890
140534,109836
140567,109835
140502,109852
140568,109847
140506,109856
140329,109779
140601,109885
140642,109900
140651,109945
140629,109945
140661,109957
140603,109912
140681,109909
140703,109927
140665,109933
140668,109920
140703,109945
140634,109964
140736,109942
140768,109976
140702,109917
140719,109961
140677,109931
140708,109946
140809,109970
140781,110009
140767,109957
140765,110003
140845,110032
140832,110002
140815,109982
140764,109961
140817,109939
140786,109933
140883,109922
140905,110064
140915,110062
140840,110021
140860,110062
140837,110012
140822,109996
140850,109977
140881,110005
140906,109996
140884,110000
140902,110031
140881,110046
140839,110014
140899,110007
140954,110051
140897,110033
140831,110053
140949,109996
140978,110051
140916,110024
140914,110043
140938,109985
140976,109997
141017,110038
140985,110031
140977,110026
140924,110057
140904,110036
140953,110010
141007,110055
141011,110113
140978,110040
141032,110035
140962,110018
140984,110019
141027,110073
141037,110042
140990,110068
141051,110044
140953,110035
140963,110075
140983,110021
141011,110056
141032,110005
141030,110015
141047,110049
141038,110093
141022,110074
141038,110087
141022,110056
141018,110038
141042,110042
141026,110035
141027,110055
141056,110077
141058,110072
141068,110055
141070,110032
141050,110068
141018,110025
141030,110017
141095,110056
141044,110057
141043,110049
141024,110027
141026,109997
140995,109963
140991,110007
140966,109997
141008,109970
141011,109977
141010,110002
141021,109989
141012,110015
141011,110056
141032,110005
141030,110015
141047,110049
141038,110093
141022,110074
141073,110043
141048,110024
141063,109995
141042,110042
141026,110035
141037,110004
141012,109980
141001,110027
141046,110029
141069,110032
141053,110039
141047,110043
141024,110044
141019,110025
141051,110012
140989,110011
141024,109988
141017,110002
141037,110038
141028,109982
141010,109999
140996,109998
141018,110013
141016,110020
141017,109981
141010,110007
140982,110035
140984,109992
140963,109957
141047,110034
140985,109982
141095,110075
141039,110031
141081,110036
141067,110030
141060,110021
141044,110020
141036,110064
141013,110030
141013,110009
141036,110057
141062,110042
141051,110044
141059,109998
141101,110023
141057,110032
141059,110011
141044,110025
141068,109997
141043,110040
141034,110034
141039,110014
141066,110040
141084,110029
141113,110092
141060,110048
141072,110030
141065,110103
141144,110103
141187,110141
141153,110050
141145,110067
141117,110019
141107,110058
141039,110031
141126,110050
141183,110093
141159,110104
141144,110118
141194,110142
141159,110129
141201,110141
141160,110130
141181,110116
141191,110133
141279,110074
141258,110106
141254,110101
141290,110140
141306,110133
141068,109997
141337,110144
141321,110153
141362,110201
141329,110203
141304,110142
141252,110128
141324,110172
141358,110121
141408,110163
141407,110176
141464,110238
141436,110242
141418,110177
141440,110189
141501,110209
141479,110238
141460,110211
141455,110203
141452,110241
141461,110227
141509,110217
141516,110241
141541,110244
141575,110255
141569,110271
141582,110272
141495,110248
141509,110228
141554,110266
141562,110204
141642,110223
141653,110288
141687,110308
141686,110327
141667,110297
141741,110286
141684,110326
141702,110306
141693,110282
141709,110280
141703,110259
141752,110325
141735,110331
141720,110358
141723,110293
141685,110351
141757,110318
141798,110343
141779,110373
141795,110335
141791,110319
141782,110311
141749,110290
141763,110328
141735,110317
141753,110348
141772,110327
141816,110324
141814,110314
141826,110359
141868,110352
141822,110358
141858,110340
141867,110373
141805,110366
141827,110318
141851,110375
141846,110344
141822,110327
141796,110353
141826,110295
141830,110342
141820,110336
141881,110349
141885,110393
141890,110381
141868,110332
141844,110326
141836,110297
141798,110343
141883,110333
141891,110401
141896,110385
141879,110348
141773,110345
141859,110324
141870,110341
141925,110382
141908,110314
141906,110400
141855,110351
141911,110338
141932,110380
141899,110386
141864,110371
141882,110366
141965,110371
141967,110396
141936,110348
141967,110410
141991,110399
141952,110385
141962,110400
141943,110372
141948,110430
141910,110434
141902,110350
141945,110365
141937,110365
141990,110386
142051,110386
142071,110427
142004,110397
142029,110492
141977,110427
142051,110381
142052,110460
142029,110413
142044,110427
142080,110422
142064,110463
142065,110423
142060,110425
142037,110459
142007,110438
141992,110394
142048,110444
142099,110432
142141,110412
142132,110459
142201,110480
142180,110489
142169,110446
142163,110465
142141,110476
142162,110439
142250,110509
142236,110435
142194,110443
142215,110462
142205,110486
142246,110501
142191,110506
142174,110469
142176,110448
142270,110514
142227,110483
142226,110479
142248,110533
142238,110521
142222,110464
142301,110500
142309,110495
142358,110556
142357,110532
142342,110566
142328,110516
142324,110545
142306,110507
142402,110580
142361,110609
142379,110581
142380,110603
142385,110564
142408,110542
142326,110525
142360,110540
142427,110532
142413,110559
142426,110599
142446,110615
142437,110608
142473,110576
142465,110573
142450,110591
142458,110627
142497,110618
142533,110626
142597,110620
142558,110652
142591,110631
142594,110591
142619,110602
142577,110591
142570,110609
142594,110613
142589,110625
142601,110626
142658,110623
142591,110641
142606,110605
142616,110603
142632,110621
142648,110657
142661,110640
142630,110655
142690,110686
142662,110630
142668,110639
142678,110668
142672,110673
142720,110692
142775,110712
142751,110710
142760,110716
142782,110762
142775,110675
142803,110672
142810,110701
142820,110715
142795,110685
142798,110706
142829,110681
142790,110696
142791,110690
142774,110667
142738,110693
142785,110669
142763,110664
142755,110674
142710,110641
142692,110622
142715,110593
142658,110631
142625,110611
142641,110594
142641,110595
142592,110606
142600,110639
142592,110634
142567,110605
142576,110599
142579,110584
142519,110578
142490,110570
142456,110541
142368,110512
142349,110504
142268,110480
142250,110473
142220,110462
142161,110425
142160,110415
142125,110414
142076,110392
142056,110359
142007,110382
141981,110368
141976,110325
141960,110315
141933,110272
141877,110262
141885,110353
141823,110314
141795,110249
141746,110205
141672,110260
141737,110284
141603,110190
141588,110172
141572,110145
141447,110142
141401,110157
141406,110141
141427,110136
141363,110075
141310,110068
141247,110061
141217,110034
142349,110504
141195,110006
141160,110042
141139,110051
141060,109999
141011,110002
140907,109974
140897,109914
140892,109889
140892,109921
140845,109928
140809,109924
140794,109926
140723,109836
140718,109829
140657,109829
140606,109815
140640,109750
140638,109774
140563,109786
140559,109811
140499,109784
140458,109746
140419,109716
140434,109779
140370,109827
140350,109769
140289,109728
140231,109736
140220,109680
140158,109690
140112,109609
140120,109655
140111,109637
140132,109651
140083,109664
140072,109659
140030,109588
140027,109625
140010,109537
139994,109586
139997,109565
139968,109605
139896,109553
139878,109540
139907,109550
139893,109561
139834,109528
139828,109546
139792,109518
139749,109521
139675,109484
139695,109477
139618,109469
139669,109475
139654,109428
139706,109514
139697,109545
139699,109488
139677,109449
139652,109452
139654,109440
139670,109422
139623,109448
139602,109401
139575,109399
139572,109379
139612,109429
139593,109429
139600,109470
139563,109472
139577,109449
139558,109466
139544,109425
139533,109422
139508,109424
139564,109450
139546,109425
139516,109424
139513,109397
139571,109397
139548,109445
139539,109394
139508,109411
139512,109415
139568,109417
139585,109448
139586,109393
139603,109469
139606,109450
139550,109425
139520,109381
139629,109442
139608,109452
139525,109380
139594,109471
139542,109460
139540,109442
139616,109432
139671,109462
139593,109463
139652,109487
139637,109462
139639,109445
139698,109506
139664,109498
139651,109472
139663,109503
139655,109447
139711,109457
139739,109504
139651,109432
139650,109443
139699,109501
139679,109527
139731,109550
139770,109500
139731,109501
139737,109509
139742,109554
139748,109538
139765,109515
139838,109514
139828,109525
139815,109497
139798,109582
139754,109547
139823,109491
139914,109605
139868,109506
139877,109600
139837,109552
139889,109534
139905,109524
139888,109599
139841,109552
139925,109575
139962,109583
139929,109642
139989,109600
139954,109602
140015,109607
139958,109583
139978,109575
139981,109574
140003,109609
140042,109594
140094,109629
140123,109568
140141,109635
140135,109653
140148,109618
140108,109612
140125,109700
140100,109634
140139,109609
140168,109679
140163,109670
140143,109753
140187,109712
140222,109710
140223,109687
140237,109694
140294,109649
140328,109710
140339,109729
140387,109722
140359,109724
140370,109737
140356,109698
140405,109783
140398,109749
140363,109757
140433,109774
140466,109780
140473,109772
140488,109812
140475,109786
140433,109768
140467,109808
140534,109833
140619,109809
140135,109653
140614,109795
140646,109836
140624,109865
140677,109867
140652,109891
140652,109860
140641,109840
140596,109859
140706,109806
140746,109907
140691,109861
140674,109865
140714,109921
140686,109887
140766,109882
140841,109940
140839,109912
140815,109941
140813,109891
140802,109889
140857,109889
140875,109932
140837,109909
140845,109893
140912,109970
140921,109939
140889,109896
140939,109973
140929,109993
140878,109964
140844,109951
140838,109928
140906,109927
141030,109966
140996,109923
141023,110022
141031,110007
141023,109970
140993,109953
141027,110018
140965,109979
140989,109941
141021,109929
141009,109978
141026,109993
141016,109953
140973,110018
141003,110038
140976,110023
140957,109962
140946,109969
140959,109953
141001,109944
141057,109949
141085,109943
141103,110012
141057,109985
141057,110061
141065,109968
141089,110040
141006,110020
140994,109955
141052,109972
141114,110023
141061,109965
141058,110021
140997,109986
141018,110000
141057,109959
141046,109970
141023,109970
141043,110003
141049,110023
141006,109951
141044,109995
141030,109971
140995,109979
140991,109976
141015,109938
140992,109959
141025,109958
141083,109980
141070,109959
141046,110002
141042,109982
141026,109981
140989,109923
140959,109937
140925,109941
140948,109937
140986,109939
140980,109932
140966,109955
140941,109934
140953,109937
140933,109964
140913,109990
141014,109964
141011,109982
141015,109940
140962,109954
140959,109886
140924,109918
141043,110003
141009,109955
140996,109951
140951,109949
140869,109947
140917,109865
140996,109962
140968,109927
140925,109895
140937,109946
140905,109914
140916,109941
140969,109956
140942,109947
140943,109961
140973,109940
140990,109961
140935,109917
140931,109895
140919,109986
140871,109910
140916,109894
140906,109947
140974,109913
140914,109926
140976,109957
140965,109953
140980,109943
140950,109937
140916,109895
140952,110005
140975,109965
140947,110000
140954,109939
140900,109892
140967,109916
141010,109964
140975,109932
141020,109950
141017,109891
141011,109971
140992,109963
141042,109974
141032,109947
141005,109973
140967,109964
140967,109940
141011,109966
140962,109979
140934,109953
140960,109941
140962,109953
141042,109946
141077,109988
141093,109938
141010,109971
141050,109987
141025,109943
141046,109950
141098,109978
141090,109984
141069,110010
141092,109953
141106,110021
141086,109989
141054,109967
141055,110010
141034,110003
141084,109991
141174,110058
141165,110049
141149,110022
141203,110093
141195,110057
141181,110096
141212,110034
141197,110030
141159,110070
141230,110036
141175,110012
141246,110006
141258,110072
141256,110091
141235,110027
141272,110071
141251,110026
141237,110081
141215,110091
141284,110065
141338,110025
141370,110100
141390,110106
141309,110127
141346,110063
141359,110081
141346,110107
141352,110064
141386,110166
141364,110127
141355,110105
141317,110134
141384,110098
141319,110091
141323,110114
141424,110129
141398,110093
141379,110070
141355,110112
141335,110118
141410,110087
141424,110107
141396,110127
141458,110110
141465,110085
141485,110089
141494,110096
141509,110110
141521,110115
141514,110115
141567,110169
141561,110178
141507,110163
141492,110129
141511,110152
141549,110185
141473,110145
141481,110205
141444,110125
141533,110173
141568,110164
141521,110120
141503,110176
141568,110168
141593,110262
141509,110194
141587,110200
141626,110186
141601,110216
141575,110231
141601,110224
141577,110156
141664,110221
141645,110214
141651,110211
141653,110174
141667,110251
141642,110274
141649,110244
141638,110236
141621,110234
141674,110197
141740,110285
141745,110216
141731,110287
141701,110236
141734,110239
141769,110228
141767,110257
141748,110302
141776,110273
141795,110274
141753,110277
141707,110281
141742,110232
141790,110287
141799,110219
141801,110273
141844,110331
141864,110307
141866,110271
141892,110329
141909,110372
141890,110334
141891,110315
141911,110291
141838,110307
141948,110307
141935,110311
141919,110283
141887,110322
141931,110310
142004,110310
141892,110281
141937,110255
141745,110216
141943,110313
142010,110298
141956,110361
141935,110341
141933,110320
142023,110307
142015,110357
142002,110361
142037,110300
142039,110352
142004,110370
142051,110355
141986,110366
141976,110327
142025,110337
142073,110335
142060,110334
142031,110385
142019,110351
142009,110322
141994,110391
142032,110411
142029,110362
142050,110352
142094,110363
142154,110327
142098,110408
142128,110433
142112,110376
142105,110373
142162,110411
142103,110422
142083,110409
142074,110374
142142,110369
142188,110361
142199,110407
142216,110451
142236,110415
142161,110415
142182,110361
142171,110428
142194,110416
142241,110440
142193,110488
142241,110484
142235,110437
142235,110483
142259,110471
142265,110459
142318,110437
142338,110415
142327,110448
142297,110496
142313,110478
142391,110407
142399,110496
142398,110451
142413,110489
142458,110483
142393,110538
142391,110539
142414,110526
142420,110557
142412,110517
142502,110484
142492,110515
142480,110498
142484,110565
142526,110495
142488,110573
142487,110528
142537,110512
142517,110527
142615,110529
142649,110612
142611,110553
142607,110563
142571,110538
142599,110534
142674,110633
142652,110573
142646,110564
142656,110601
142661,110598
142666,110605
142648,110560
142721,110628
142774,110590
142760,110639
142744,110646
142754,110639
142748,110661
142781,110659
142787,110665
142769,110645
142753,110621
142790,110660
142797,110604
142862,110678
142838,110658
142832,110636
142868,110674
142838,110654
142937,110689
142934,110695
142877,110696
142896,110664
142864,110691
142891,110670
142915,110674
142923,110707
142993,110718
142931,110691
142964,110680
142876,110681
142943,110666
142933,110694
142946,110680
142897,110656
142868,110595
142760,110639
142885,110680
142847,110654
142774,110653
142824,110620
142811,110655
142757,110596
142746,110613
142701,110580
142645,110590
142695,110595
142657,110583
142563,110512
142561,110513
142515,110527
142472,110509
142422,110485
142374,110408
142321,110366
142312,110407
142248,110366
142915,110674
142204,110355
142179,110382
142170,110375
142066,110322
142003,110319
142034,110314
142007,110302
141889,110265
141891,110284
141792,110245
141770,110219
141751,110127
141717,110223
141647,110143
141587,110169
141512,110118
141465,110095
141504,110107
141446,110075
141394,110085
141370,110027
141291,110047
141299,109968
141268,110015
141227,109938
141176,110001
141105,109948
141060,109907
141016,109894
141016,109907
140937,109901
140922,109917
140866,109848
140803,109887
140786,109856
140729,109781
140683,109767
140621,109798
140581,109784
140513,109726
140517,109718
140453,109699
140453,109681
140456,109716
140386,109708
140370,109699
140316,109705
140269,109657
140203,109641
140177,109611
140103,109610
140090,109608
140043,109535
140029,109523
140033,109551
139986,109523
140000,109573
139930,109494
139818,109469
139895,109489
139869,109515
139798,109442
139784,109484
139711,109435
139707,109401
139753,109448
139726,109400
139692,109421
139643,109391
139662,109393
139600,109386
139577,109390
139475,109371
139480,109340
139439,109365
139466,109339
139382,109362
139366,109332
139384,109318
139320,109271
139359,109303
139346,109264
139336,109241
139338,109259
139318,109192
139284,109230
139290,109207
139254,109240
139271,109219
139261,109217
139222,109233
139172,109251
139158,109168
139134,109164
139129,109173
139135,109169
139127,109156
139142,109184
139108,109187
139152,109227
139207,109219
139133,109212
139161,109239
139112,109160
139117,109194
139123,109206
139099,109238
139104,109227
139050,109173
139106,109163
139086,109186
139102,109171
139083,109183
139081,109183
139072,109171
139050,109163
139036,109166
139015,109143
139091,109151
139071,109148
139082,109172
139079,109198
139089,109203
139133,109234
139114,109237
139160,109200
139139,109217
139150,109237
139165,109210
139152,109201
139151,109181
139150,109179
139132,109223
139132,109176
139118,109221
139136,109159
139106,109214
139151,109228
139174,109185
139171,109185
139178,109286
139196,109202
139152,109205
139210,109216
139224,109209
139272,109232
139295,109235
139311,109241
139276,109271
139292,109285
139292,109294
139301,109292
139326,109299
139287,109282
139286,109320
139309,109303
139331,109293
139328,109272
139355,109294
139363,109307
139403,109288
139391,109288
139405,109279
139399,109271
139348,109343
139489,109394
139472,109395
139451,109368
139460,109391
139487,109361
139484,109331
139458,109349
139452,109362
139512,109334
139501,109334
139584,109378
139657,109412
139638,109439
139624,109435
139643,109371
139662,109385
139707,109466
139689,109477
139731,109461
139683,109424
139722,109457
139761,109470
139309,109303
139763,109415
139328,109272
139811,109453
139894,109519
139875,109561
139868,109526
139895,109559
139884,109526
139880,109545
139881,109533
139969,109532
140082,109567
140065,109574
140117,109598
140109,109655
140146,109628
140181,109625
140120,109572
140145,109594
140154,109637
140172,109626
140180,109674
140212,109615
140210,109666
140269,109658
140228,109692
140212,109677
140245,109659
140288,109676
140300,109670
140344,109666
140416,109675
140484,109737
140444,109750
140556,109741
140515,109770
140510,109710
140479,109725
140545,109784
140558,109807
140541,109828
140568,109762
140534,109772
140559,109794
140554,109766
140612,109787
140543,109787
140581,109801
140644,109846
140635,109854
140662,109834
140709,109813
140714,109796
140776,109811
140807,109823
140836,109882
140820,109904
140811,109852
140783,109815
140846,109922
140846,109881
140844,109914
140828,109881
140799,109872
140855,109851
140867,109831
140861,109865
140895,109866
140892,109931
140956,109896
140894,109909
140941,109947
140948,109912
140925,109936
140955,109920
140908,109904
140887,109895
140897,109882
140912,109898
140946,109870
141012,109875
141022,109924
140968,109925
140959,109914
140955,109891
140932,109936
140945,109948
140900,109880
140898,109873
140958,109944
140981,109902
140998,109922
140927,109896
140983,109883
140911,109910
140970,109892
140987,109938
140962,109913
140935,109910
140924,109903
140920,109884
140852,109877
140866,109888
140879,109835
140948,109867
140955,109844
140973,109882
140925,109890
140942,109898
140898,109905
140920,109917
140874,109875
141012,109879
140939,109898
140929,109835
140926,109909
140875,109877
140934,109870
140877,109945
140941,109887
140885,109911
140866,109894
140892,109843
140931,109863
140912,109854
140994,109873
140971,109845
140965,109923
140975,109921
140981,109916
140990,109913
140965,109892
140943,109868
140983,109943
140973,109936
140998,109900
141002,109945
140955,109916
140928,109872
141035,109921
140996,109908
141018,109925
140977,109875
140950,109841
140967,109925
140977,109938
141034,109949
140980,109899
141014,109887
141031,109942
141037,109941
140974,109883
140973,109926
141012,109900
141071,109906
141031,109880
141111,109888
141063,109953
141019,109928
141087,109948
140980,109902
141008,109904
141121,109941
141043,109839
140997,109917
141068,109925
140997,109938
141002,109946
141020,109929
141079,109917
141076,109981
141131,109951
141082,109910
141114,109935
141128,109940
141098,109986
141052,109995
141059,109960
141043,109921
141045,109962
141071,109877
141043,109936
141077,109877
141135,109912
141081,110000
141047,109883
141079,109972
141027,109969
141072,109934
141095,109970
141191,109900
141147,109921
141145,109955
141162,109996
141170,109969
141173,109976
141137,109958
141110,109902
141135,109907
141132,109926
141168,109989
141154,109988
141140,109954
141102,109909
141160,109994
141162,109979
141130,109984
141114,109975
141119,109941
141126,109927
141206,110014
141212,109942
141197,109992
141227,110028
141121,109941
141158,109968
141198,110016
141259,110002
141241,109959
141209,109975
141195,109945
141095,109970
141259,110030
141177,109991
141146,109939
141196,109953
141266,109992
141226,109991
141209,109965
141261,110042
141192,109986
141220,109974
141187,109972
141263,110002
141319,109985
141303,110008
141302,110013
141249,110022
141298,110010
141264,110016
141262,110017
141253,110006
141251,110007
141254,109985
141358,110045
141312,110042
141330,110016
141356,110032
141275,110036
141361,110044
141471,110080
141450,110070
141389,110074
141409,110065
141370,110056
141482,110041
141506,110072
141436,110050
141466,110141
141431,110089
141465,110083
141261,110042
141192,109986
141523,110055
141535,110153
141542,110168
141469,110098
141533,110083
141511,110131
141491,110119
141506,110084
141534,110084
141539,110098
141645,110168
141632,110184
141579,110121
141608,110098
141611,110160
141604,110160
141634,110148
141703,110143
141718,110132
141687,110187
141732,110193
141663,110191
141652,110218
141705,110255
141713,110186
141707,110166
141739,110188
141724,110201
141725,110196
141709,110234
141799,110204
141844,110266
141817,110209
141780,110179
141794,110205
141741,110198
141796,110174
141864,110230
141836,110188
141824,110223
141770,110178
141788,110219
141866,110261
141893,110205
141843,110186
141895,110290
141872,110261
141796,110261
141885,110213
141889,110202
141958,110253
141930,110232
141991,110314
141938,110259
141938,110242
141967,110255
141988,110306
142004,110350
141937,110247
141937,110257
141988,110292
142025,110324
141982,110234
142023,110313
141954,110288
141989,110262
142097,110280
142066,110336
142141,110312
142121,110299
142101,110353
142069,110355
142080,110307
142109,110318
142220,110334
142174,110382
142218,110419
142244,110396
142197,110413
142187,110361
142194,110426
142185,110376
142247,110361
142273,110399
142328,110444
142318,110394
142338,110470
142305,110427
142332,110372
142397,110451
142414,110401
142365,110389
142418,110425
142413,110460
142406,110462
142488,110523
142477,110531
142481,110532
142436,110527
142494,110511
142462,110496
142447,110511
142468,110516
142497,110510
142539,110498
142598,110519
142664,110488
142689,110540
142675,110573
142709,110587
142687,110548
142696,110574
142702,110579
142693,110553
142755,110591
142804,110606
142769,110574
142727,110595
142777,110567
142850,110649
142832,110578
142829,110606
142831,110649
142831,110661
142830,110616
142871,110640
142851,110669
142877,110629
142910,110669
142949,110648
143019,110671
142984,110650
143022,110721
142995,110663
142993,110652
143001,110642
143086,110739
143042,110675
143071,110736
143018,110708
143065,110666
143123,110722
143033,110716
143172,110749
143102,110769
143093,110718
143105,110728
143157,110702
143205,110693
143258,110742
143226,110790
143254,110759
143243,110794
143239,110732
143173,110730
143257,110809
143286,110814
143227,110769
143231,110727
143308,110800
143258,110764
143220,110748
143268,110840
143262,110775
143268,110790
142995,110663
142993,110652
143371,110794
143402,110822
143358,110841
143352,110810
143334,110823
143276,110787
143242,110746
143219,110735
143268,110754
143335,110794
143313,110788
143266,110761
143227,110714
143195,110781
143128,110692
143107,110698
143128,110690
143124,110734
143114,110670
143025,110667
142959,110622
142988,110620
142902,110649
142870,110630
142776,110575
142834,110548
142829,110587
142689,110498
142726,110567
142656,110532
142574,110496
142478,110448
142443,110437
142355,110398
142282,110389
142285,110322
142243,110360
142258,110291
142223,110284
142210,110337
142146,110302
142125,110258
142055,110237
142016,110237
141976,110207
141888,110199
141868,110145
141888,110184
141829,110107
141741,110114
141693,110078
143025,110667
141643,110085
141577,110086
141518,110116
141447,110069
141403,110027
141359,110022
141325,109959
141331,109973
141282,109948
141331,109963
141267,109978
141226,109887
141227,109915
141081,109902
141044,109863
141117,109887
141063,109909
141025,109871
140931,109779
140944,109787
140855,109804
140832,109761
140838,109753
140861,109796
140784,109787
140776,109764
140741,109750
140723,109703
140699,109762
140667,109751
140599,109707
140560,109704
140532,109667
140564,109738
140544,109660
140478,109705
140439,109644
140412,109614
140477,109653
140398,109591
140353,109639
140294,109562
140327,109595
140228,109534
140297,109559
140312,109630
140288,109645
140258,109605
140230,109593
140151,109529
140135,109567
140106,109516
140096,109460
140158,109462
140147,109528
140144,109537
140105,109531
140102,109489
140064,109481
140033,109530
139925,109493
140004,109436
140037,109499
139985,109528
140002,109476
140023,109498
139972,109434
140013,109403
139977,109471
139927,109505
139954,109445
139926,109470
139890,109442
139947,109450
139950,109478
139893,109451
139865,109452
139848,109462
139791,109367
139906,109451
139823,109415
139826,109402
139805,109436
139739,109426
139864,109400
139927,109446
139878,109401
139855,109496
139878,109425
139834,109443
139852,109334
140033,109530
139906,109440
139869,109451
139833,109421
139776,109410
139848,109404
139904,109389
139943,109419
139911,109474
139905,109469
139880,109474
139904,109481
139868,109464
139913,109460
139940,109422
139885,109421
139952,109481
139927,109503
139891,109481
139870,109404
139910,109431
139968,109418
139855,109502
139939,109491
139857,109465
139898,109425
139974,109405
139972,109415
139989,109438
139982,109431
140018,109503
140045,109472
140048,109472
140025,109491
140009,109453
140034,109522
140033,109535
140082,109515
140053,109439
140098,109494
140103,109521
140105,109483
140148,109580
140077,109512
140080,109513
140131,109522
140184,109527
140198,109555
140179,109540
140221,109550
140158,109600
140164,109565
140230,109539
140308,109601
140293,109593
140315,109620
140332,109594
140268,109606
140336,109594
140378,109670
140355,109675
140344,109663
140342,109607
140334,109628
140381,109599
140490,109654
140447,109642
140446,109637
140446,109626
140473,109719
140053,109439
140523,109740
140525,109754
140522,109712
140554,109723
140573,109703
140550,109667
140660,109689
140656,109709
140647,109708
140715,109715
140719,109707
140751,109771
140738,109778
140779,109774
140749,109782
140808,109815
140814,109870
140748,109846
140816,109816
140796,109822
140792,109818
140877,109830
140970,109822
140911,109843
140918,109820
140936,109865
140984,109830
140996,109865
141042,109831
141060,109931
141050,109929
141044,109907
141076,109913
141072,109880
141097,109899
141084,109901
141156,109963
141177,109926
141171,109984
141201,109983
141155,109962
141173,109927
141181,109990
141234,109935
141306,109986
141267,110012
141262,109918
141276,109937
141241,109967
141271,109996
141307,110042
141347,110040
141372,109966
141325,109936
141398,110030
141386,110055
141329,110005
141325,109993
141429,110012
141476,110083
141399,110048
141480,110123
141407,110058
141421,110082
141443,110058
141485,110031
141476,110054
141523,110024
141553,110089
141524,110082
141503,110056
141468,110063
141511,110041
141483,110044
141580,110045
141610,110078
141548,110112
141582,110080
141541,110037
141518,110122
141545,110057
141608,110130
141698,110125
141610,110094
141668,110163
141692,110164
141685,110174
141610,110140
141589,110136
141607,110089
141643,110100
141729,110134
141692,110150
141673,110102
141728,110194
141702,110176
141674,110161
141684,110110
141698,110168
141749,110186
141669,110172
141690,110115
141775,110132
141693,110146
141692,110163
141688,110147
141640,110086
141733,110129
141741,110159
141691,110090
141680,110165
141643,110129
141661,110076
141655,110126
141698,110105
141712,110146
141647,110125
141608,110046
141599,110095
141580,110026
141625,110094
141679,110069
141677,110061
141689,110115
141669,110098
141663,110121
141603,110082
141637,110100
141563,110089
141535,110053
141607,110043
141585,110106
141567,110023
141522,110074
141536,110076
141531,110015
141556,110087
141553,110068
141477,110040
141526,110072
141534,110083
141535,110086
141511,110052
141522,110053
141576,110091
141543,110104
141518,110080
141472,110093
141456,110045
141435,110077
141452,110020
141466,109992
141523,110019
141515,109987
141561,110072
141497,110032
141504,110085
141376,110061
141379,110017
141489,110015
141570,110035
141492,110023
141509,110019
141538,110088
141517,110070
141535,110044
141483,109999
141476,109987
141556,110087
141515,110010
141531,110046
141493,110056
141524,110065
141464,110077
141447,110042
141527,110039
141526,110079
141521,110060
141485,110042
141484,110103
141439,110025
141486,110032
141603,110083
141564,110054
141527,110036
141497,110057
141514,110062
141569,110071
141577,110064
141609,110102
141587,110035
141650,110071
141581,110105
141599,110092
141576,110073
141562,110081
141536,110055
141570,110111
141566,110118
141567,110128
141546,110078
141574,110098
141539,110058
141569,110090
141608,110087
141618,110090
141667,110106
141696,110082
141642,110075
141646,110112
141620,110112
141628,110051
141636,110129
141637,110111
141634,110082
141601,110081
141600,110074
141576,110086
141701,110083
141747,110099
141784,110174
141785,110153
141776,110172
141761,110168
141732,110110
141689,110114
141687,110139
141697,110142
141731,110097
141799,110220
141816,110136
141755,110077
141775,110176
141713,110122
141837,110105
141814,110197
141786,110180
141740,110180
141765,110164
141830,110151
141883,110182
141874,110197
141882,110179
141901,110226
141917,110194
141898,110233
141885,110268
141864,110192
141842,110156
141822,110204
141907,110217
141917,110199
141977,110230
141984,110228
141955,110193
141944,110221
141913,110215
141979,110233
142035,110253
142036,110248
142025,110230
142028,110260
142062,110284
142043,110304
142050,110307
142088,110267
142023,110306
142042,110276
142042,110242
142034,110239
142072,110220
142087,110225
142122,110269
142142,110247
142096,110286
142091,110291
142089,110240
142136,110302
142102,110303
142105,110287
142181,110317
142183,110331
142181,110296
142198,110321
142162,110315
142202,110273
142213,110285
142195,110285
142202,110252
141979,110233
142226,110286
142242,110353
142259,110375
142192,110364
142218,110351
142182,110358
142177,110308
142163,110327
142232,110259
142285,110353
142279,110353
142265,110313
142275,110345
142264,110344
142325,110379
142314,110367
142325,110327
142338,110354
142304,110315
142350,110347
142338,110303
142295,110314
142354,110317
142369,110383
142363,110448
142388,110424
142336,110424
142344,110351
142361,110373
142334,110350
142394,110395
142407,110353
142425,110384
142443,110344
142418,110394
142472,110390
142500,110401
142539,110383
142550,110410
142465,110402
142557,110430
142513,110430
142475,110443
142518,110497
142542,110423
142545,110474
142592,110477
142599,110498
142623,110510
142563,110511
142606,110457
142640,110533
142625,110491
142642,110545
142643,110479
142636,110477
142631,110514
142620,110486
142644,110529
142621,110498
142630,110500
142648,110500
142653,110491
142636,110518
142653,110482
142698,110508
142684,110549
142705,110579
142748,110584
142746,110552
142797,110551
142778,110555
142779,110590
142751,110583
142748,110536
142799,110573
142740,110550
142788,110558
142785,110535
142777,110556
142836,110523
142829,110506
142862,110541
142912,110543
142861,110533
142888,110545
142896,110573
142900,110567
142961,110514
142935,110590
142886,110647
142978,110622
142973,110646
142971,110634
143004,110640
143001,110635
142986,110612
142978,110668
143014,110644
142981,110640
142971,110669
142966,110654
142995,110638
142957,110612
142958,110627
142985,110645
142962,110646
142997,110627
143003,110625
143060,110632
143071,110640
143084,110644
143125,110655
143104,110625
143077,110679
143103,110705
143114,110730
143117,110673
143116,110693
143110,110713
143121,110676
143109,110670
143194,110637
143211,110638
143194,110653
143237,110753
143232,110731
143261,110730
143234,110714
143254,110746
143273,110699
143361,110715
143291,110758
143328,110767
143306,110759
143298,110782
143362,110750
143312,110761
143398,110805
143324,110731
143333,110731
143344,110721
143332,110757
143329,110777
143312,110783
143370,110787
143377,110738
143354,110721
143351,110726
143364,110743
143116,110693
143390,110757
143421,110789
143364,110797
143332,110768
143241,110727
143243,110732
143250,110683
143239,110678
143256,110686
143243,110660
143118,110661
143076,110708
143122,110674
143037,110666
142997,110641
142964,110614
142921,110623
142928,110606
142902,110571
142847,110551
142772,110498
142715,110470
142653,110449
142706,110419
142653,110418
142632,110430
142547,110451
142508,110426
142469,110368
142402,110345
142333,110308
142342,110321
142310,110340
142231,110263
142197,110273
142110,110175
142069,110186
142064,110180
142123,110212
142055,110186
142014,110178
141981,110195
141901,110162
141833,110123
141775,110105
141688,110089
141637,110067
141620,110011
141605,109998
141627,109989
141596,110032
141566,110036
141502,109984
141438,109978
141376,109933
141318,109878
141335,109986
141294,109904
141305,109904
141170,109917
141190,109913
141182,109885
141150,109844
141087,109844
141067,109763
141035,109772
140964,109766
140917,109730
140933,109718
140967,109789
140910,109766
140833,109758
140780,109759
140765,109758
140720,109693
140625,109673
140663,109674
140765,109724
140648,109657
140644,109659
140591,109658
140601,109602
140520,109630
140575,109695
140491,109679
140476,109614
140398,109635
140379,109588
140366,109527
140400,109613
140369,109543
140364,109553
140270,109531
140241,109516
140268,109532
140299,109555
140253,109480
140234,109531
140197,109474
140179,109502
140136,109468
140136,109459
140136,109425
140097,109447
140138,109456
140136,109465
140060,109449
140028,109435
140040,109421
140006,109388
139973,109393
140020,109398
140012,109438
140023,109445
140048,109443
140003,109453
139991,109369
139942,109447
139941,109417
139904,109423
139909,109429
139926,109410
139901,109383
139945,109362
139951,109371
139978,109335
139979,109434
139925,109324
139927,109413
139950,109395
139996,109358
140179,109502
139893,109359
139883,109304
140136,109425
139961,109397
139982,109411
139941,109443
139920,109393
139975,109379
139984,109415
139957,109370
139950,109438
139924,109426
139931,109391
139973,109422
139996,109432
139965,109386
139970,109447
139985,109426
139967,109415
139935,109407
139981,109412
139950,109387
139951,109444
140024,109392
139944,109405
139991,109387
139979,109434
140067,109403
140058,109498
140011,109455
140050,109436
140122,109482
140120,109434
140059,109456
140121,109495
140069,109488
140035,109435
140171,109463
140174,109436
140044,109428
140077,109490
140064,109459
140151,109470
140173,109516
140153,109506
140220,109508
140190,109491
140145,109462
140197,109474
140222,109458
140301,109504
140245,109533
140265,109529
140259,109538
140240,109490
140260,109502
140296,109561
140350,109573
140270,109619
140254,109505
140256,109509
140333,109537
140352,109571
140333,109513
140367,109587
140349,109572
140327,109575
140351,109543
140453,109578
140387,109632
140416,109651
140405,109599
140417,109595
140418,109611
140545,109584
140542,109625
140570,109662
140556,109665
140566,109689
140577,109630
140561,109700
140532,109675
140570,109647
140638,109652
140670,109726
140723,109675
140690,109659
140679,109730
140730,109671
140809,109733
140749,109676
140752,109727
140760,109727
140799,109701
140824,109762
140876,109770
140850,109770
140811,109720
140907,109771
140914,109786
140860,109837
140870,109816
140920,109833
140886,109801
140917,109781
140899,109823
140927,109794
140984,109789
140994,109821
141081,109813
141048,109838
141046,109788
141057,109849
140978,109835
141009,109814
141097,109822
141077,109822
141083,109856
141032,109866
141053,109837
141044,109835
141061,109841
141101,109837
141134,109870
141176,109886
141234,109923
141193,109898
141190,109871
141161,109849
141182,109873
141131,109884
141202,109879
141214,109938
141233,109858
141218,109885
141215,109906
141193,109840
141246,109902
141272,109891
141217,109882
141217,109920
141271,109916
141282,109941
141220,109880
141259,109903
141196,109917
141254,109889
141229,109897
141234,109877
141261,109911
141249,109852
141317,109897
141342,109914
141311,109931
141293,109880
141274,109895
141334,109922
141298,109930
141255,109892
141240,109871
141318,109884
141338,109937
141312,109906
141256,109920
141281,109940
141313,109920
141371,109886
141289,109861
141315,109862
141289,109848
141326,109896
141323,110003
141333,109922
141309,109934
141298,109929
141285,109958
141263,109928
141256,109869
141299,109911
141314,109930
141277,109893
141282,109941
141224,109911
141229,109859
141281,109884
141319,109945
141323,109946
141280,109930
141259,109891
141282,109917
141325,109929
141310,109952
141273,109936
141213,109923
141199,109894
141255,109885
141275,109846
141313,109878
141293,109886
141277,109906
141215,109848
141280,109924
141204,109898
141263,109859
141303,109899
141279,109871
141250,109910
141230,109877
141272,109847
141281,109930
141275,109899
141209,109871
141243,109793
141189,109847
141245,109899
141242,109875
141255,109881
141218,109858
141169,109850
141222,109822
141161,109843
141147,109805
141204,109883
141223,109897
141219,109901
141222,109871
141214,109904
141181,109848
141186,109846
141227,109872
141256,109890
141190,109850
141191,109844
141135,109852
141149,109874
141205,109828
141197,109852
141118,109832
141115,109795
141142,109825
141186,109805
141217,109883
141231,109885
141193,109872
141223,109836
141175,109856
141229,109876
141261,109877
141191,109869
141174,109900
141130,109832
141146,109825
141263,109847
141230,109847
141168,109883
141179,109852
141228,109850
141269,109885
141171,109844
141219,109871
141238,109819
141239,109862
141237,109895
141219,109837
141255,109948
141240,109885
141186,109893
141176,109888
141207,109878
141222,109833
141263,109860
141262,109860
141332,109891
141330,109898
141298,109918
141287,109937
141269,109894
141299,109927
141240,109862
141243,109847
141296,109929
141328,109951
141310,109924
141322,109961
141377,109886
141337,109928
141365,109897
141365,109892
141410,109879
141422,109939
141425,109958
141403,109949
141381,109925
141379,109923
141401,109916
141426,109964
141422,109996
141357,109937
141313,109942
141418,109979
141423,109956
141399,109926
141398,109977
141426,109941
141473,109942
141541,109995
141510,109953
141490,109972
141543,109968
141525,109982
141500,109932
141494,110042
141448,109966
141428,109971
141459,109939
141498,109957
141577,109976
141570,110008
141570,110027
141520,110044
141491,109959
141554,110020
141526,110055
141586,110027
141549,110031
141533,109997
141529,109992
141518,110013
141640,110005
141596,110011
141610,110027
141593,110045
141640,110044
141640,110054
141618,110008
141613,110036
141626,110048
141660,110056
141632,110091
141596,110072
141495,110047
141580,110027
141573,110045
141663,110032
141668,109999
141721,110040
141705,110065
141669,110039
141697,110084
141647,110017
141666,110006
141736,110024
141748,110062
141723,110045
141736,110077
141719,110073
141710,110064
141759,110021
141683,110031
141734,110040
141758,110135
141678,110098
141682,110092
141727,110042
141807,110050
141816,110131
141823,110111
141832,110122
141818,110092
141762,110058
141819,110015
141837,110133
141820,110117
141779,110138
141825,110095
141788,110120
141774,110034
141858,110109
141827,110108
141799,110152
141823,110140
141788,110095
141856,110078
141902,110077
141972,110146
141935,110172
141959,110121
141931,110164
141929,110130
141953,110135
141935,110134
141929,110108
141905,110180
141933,110173
141937,110159
141919,110138
141887,110119
141975,110114
141992,110180
141959,110128
142023,110195
141962,110166
142053,110178
142005,110223
142081,110238
142026,110224
142063,110200
142017,110159
141988,110194
142023,110187
142011,110185
142042,110214
142040,110173
142045,110203
142070,110209
142126,110195
142091,110190
142081,110193
142068,110183
142170,110234
142161,110213
142194,110235
142226,110226
142288,110281
142270,110310
142305,110255
142288,110258
142173,110317
142297,110320
142266,110342
142285,110315
142282,110282
142279,110291
142303,110323
142301,110315
142289,110267
142281,110303
142314,110319
142340,110333
142318,110318
142352,110277
142342,110338
142337,110348
142370,110308
142359,110294
142421,110348
142421,110294
142374,110278
142438,110315
142435,110324
142457,110276
142494,110361
142445,110335
142494,110289
142454,110305
142465,110314
142437,110282
142454,110310
142464,110334
142459,110301
142470,110312
142496,110297
142486,110360
142522,110347
142523,110302
142540,110318
142301,110315
142289,110267
142595,110355
142593,110364
142641,110400
142638,110409
142652,110409
142631,110403
142583,110359
142657,110391
142680,110422
142658,110383
142667,110430
142629,110392
142670,110407
142665,110382
142704,110400
142691,110404
142700,110408
142693,110438
142694,110394
142699,110446
142738,110386
142745,110392
142750,110449
142459,110301
142792,110419
142828,110416
142863,110452
142832,110500
142817,110564
142822,110469
142789,110450
142845,110483
142913,110487
142916,110499
142902,110487
142900,110472
142885,110439
142885,110479
142862,110481
142880,110501
142944,110540
142947,110562
142949,110566
142898,110546
142906,110519
142929,110509
142846,110475
142912,110449
142938,110484
142881,110501
142910,110534
142930,110514
142906,110476
142886,110512
142854,110462
142805,110454
142845,110467
142781,110396
142876,110416
142826,110387
142774,110439
142772,110426
142720,110419
142667,110409
142613,110365
142558,110329
142593,110348
142544,110374
142461,110357
142439,110318
142373,110315
142336,110284
142278,110253
142230,110244
142211,110200
142179,110154
142217,110161
142126,110153
142075,110117
142048,110115
141988,110070
141941,110037
141866,110020
141865,110004
142906,110476
142886,110512
141807,110014
141744,110012
141641,109988
141651,109978
141556,109965
141480,109954
141465,109927
141439,109886
141371,109885
141360,109817
141370,109828
141310,109809
141344,109869
141233,109843
141216,109814
141179,109755
141119,109749
141033,109736
141037,109686
141046,109751
141017,109706
140926,109708
140865,109703
140854,109678
140796,109658
140770,109591
140769,109670
140733,109678
140667,109629
140637,109585
140588,109588
140598,109559
140553,109577
140497,109503
140496,109532
140558,109547
140539,109578
140482,109519
140399,109490
140399,109509
140381,109528
140257,109437
140275,109468
140267,109460
140267,109445
140209,109429
140196,109451
140167,109435
140116,109445
140061,109380
140072,109399
140059,109348
140057,109341
140033,109331
140052,109394
140009,109330
139953,109359
139893,109323
139921,109321
139875,109291
139921,109291
139886,109341
139895,109285
139802,109257
139824,109285
139797,109287
139743,109269
139771,109270
139805,109249
139772,109225
139807,109314
139726,109197
139734,109288
139694,109227
139715,109209
139776,109287
139745,109255
139698,109218
139696,109268
139589,109208
139673,109208
139675,109211
139614,109219
139616,109196
139607,109245
139557,109126
139609,109173
139639,109205
139583,109146
139616,109180
139617,109203
139622,109227
139616,109230
139591,109238
139587,109227
139552,109190
139526,109205
139551,109169
139569,109191
139596,109150
139581,109146
139580,109222
139561,109175
139526,109163
139569,109232
139511,109172
139546,109178
139620,109228
139614,109186
139646,109232
139614,109187
139636,109205
139593,109118
139537,109159
139623,109205
139627,109215
139648,109260
139669,109292
139652,109241
139628,109236
139571,109253
139577,109232
139562,109191
139550,109190
139652,109193
139759,109284
139712,109251
139669,109234
139677,109235
139686,109233
139798,109315
139756,109260
139762,109251
139745,109295
139771,109209
139814,109265
139755,109227
139833,109237
139913,109305
139851,109338
139821,109309
139786,109290
139868,109268
139861,109270
139883,109267
139936,109392
139953,109389
139986,109379
139983,109372
139992,109368
139935,109341
140001,109338
140081,109416
140054,109371
140023,109368
140067,109426
140045,109363
140154,109414
140140,109395
140145,109362
140089,109378
140190,109416
140216,109485
140255,109476
140286,109504
140288,109489
140302,109447
140340,109507
140367,109511
140346,109528
140357,109521
140331,109527
140389,109503
140456,109567
140474,109530
140421,109508
140458,109542
140468,109504
140532,109581
140552,109579
140487,109507
140544,109578
140564,109543
140566,109526
140635,109577
140591,109512
140023,109368
140709,109655
140729,109663
140703,109672
140707,109650
140710,109680
140710,109674
140720,109650
140738,109610
140821,109625
140812,109654
140859,109654
140888,109695
140889,109725
140874,109709
140871,109683
140867,109728
140866,109714
140860,109680
140958,109714
140942,109752
140951,109720
140984,109693
141039,109693
141037,109724
141068,109759
141066,109803
141026,109817
141060,109766
141055,109800
141008,109751
141082,109779
141038,109712
141092,109802
141092,109749
141092,109729
141068,109826
141039,109761
141144,109763
141222,109829
141225,109774
141139,109763
141152,109834
141216,109826
141178,109847
141164,109835
141206,109790
141269,109784
141288,109850
141233,109835
141213,109809
141250,109898
141225,109846
141178,109803
141164,109842
141189,109819
141201,109800
141272,109818
141313,109837
141296,109860
141302,109878
141324,109834
141291,109839
141338,109874
141285,109877
141265,109823
141304,109837
141286,109832
141280,109844
141261,109836
141279,109791
141305,109812
141301,109847
141291,109874
141314,109855
141272,109860
141304,109826
141283,109823
141277,109878
141309,109833
141283,109838
141239,109839
141278,109787
141308,109888
141282,109822
141260,109812
141235,109846
141197,109790
141214,109837
141294,109873
141277,109849
141257,109805
141176,109802
141224,109806
141248,109850
141216,109813
141143,109792
141208,109810
141152,109804
141213,109771
141272,109845
141243,109838
141241,109802
141206,109777
141246,109843
141235,109848
141237,109829
141203,109805
141183,109818
141174,109827
141179,109834
141160,109809
141107,109800
141089,109794
141108,109800
141134,109747
141073,109796
141156,109808
141130,109838
141125,109778
141109,109781
141156,109822
141149,109768
141150,109826
141136,109761
141127,109787
141093,109789
141083,109750
141083,109768
141040,109795
141081,109747
141064,109744
141040,109747
141066,109721
141042,109738
141039,109700
141060,109687
141090,109688
141077,109745
141084,109768
141078,109709
141093,109717
141120,109742
141091,109718
141109,109683
141046,109681
141047,109705
141060,109694
141032,109723
141039,109684
141070,109678
141081,109698
141069,109712
141085,109696
141100,109710
141059,109773
141087,109754
141089,109733
141097,109760
141109,109775
141080,109732
141084,109761
141096,109766
141091,109724
141056,109718
141100,109745
141125,109783
141090,109790
141099,109782
141056,109746
141098,109777
141078,109779
141071,109758
141063,109796
141057,109764
141081,109787
141091,109774
141107,109766
141090,109703
141091,109719
141065,109731
141104,109714
141110,109722
141121,109786
141093,109782
141053,109798
141096,109752
141059,109773
141052,109709
141089,109733
141100,109709
141138,109745
141105,109798
141080,109790
141033,109798
141075,109786
141033,109786
141058,109774
141047,109805
141074,109771
141136,109753
141108,109744
141151,109768
141109,109712
141123,109716
141138,109724
141201,109815
141176,109811
141163,109825
141143,109739
141191,109783
141178,109790
141160,109859
141158,109830
141172,109821
141200,109774
141200,109773
141191,109822
141252,109816
141235,109842
141205,109841
141236,109865
141202,109809
141191,109805
141168,109802
141176,109800
141189,109774
141264,109794
141280,109823
141241,109831
141242,109811
141226,109825
141205,109803
141256,109805
141228,109784
141248,109794
141259,109772
141262,109772
141219,109794
141289,109776
141336,109812
141349,109836
141311,109849
141321,109830
141285,109841
141266,109830
141285,109826
141216,109831
141226,109834
141260,109795
141249,109810
141362,109829
141297,109852
141287,109862
141309,109818
141294,109862
141330,109844
141300,109845
141318,109848
141364,109829
141327,109857
141331,109866
141317,109833
141373,109843
141417,109816
141323,109819
141350,109834
141339,109829
141383,109840
141416,109879
141433,109918
141408,109907
141350,109915
141362,109913
141363,109876
141320,109870
141378,109878
141442,109870
141461,109915
141497,109944
141464,109928
141489,109915
141478,109914
141432,109900
141461,109875
141537,109902
141562,109953
141597,109961
141545,109910
141539,109947
141545,109926
141533,109919
141546,109973
141536,109976
141484,109923
141542,109920
141612,109986
141646,109979
141618,109967
141623,109963
141626,109979
141630,109964
141584,110003
141573,109925
141648,109947
141658,109968
141628,109999
141636,109974
141617,109987
141648,109958
141650,109980
141680,109952
141673,110020
141702,109935
141716,109961
141752,110016
141775,109973
141708,109961
141690,109997
141739,109965
141819,110086
141823,109997
141739,109958
141777,110090
141790,110071
141763,110024
141721,110026
141740,109983
141803,109999
141849,110031
141847,110025
141787,110000
141777,109989
141630,109964
141846,110051
141830,110112
141838,110063
141821,110048
141892,110062
141933,110052
141871,110024
141881,110120
141871,110066
141935,110044
141959,110122
141922,110061
141888,110091
141932,110078
141905,110065
141891,110100
141992,110076
142016,110109
142044,110103
141963,110087
141957,110076
141980,110127
141944,110086
142006,110111
142011,110080
142012,110068
142067,110133
142106,110185
142116,110138
142116,110194
142077,110129
142095,110120
142084,110136
142173,110174
142107,110146
142110,110127
142094,110072
142130,110188
142121,110217
142109,110207
142122,110169
142109,110209
142154,110140
142183,110146
142100,110208
142201,110212
142168,110210
142143,110219
142089,110170
142093,110125
142129,110127
142120,110112
142196,110181
142224,110200
142135,110134
142129,110187
142086,110165
142111,110117
142159,110153
142097,110120
142120,110207
142040,110144
142019,110077
142167,110090
142153,110145
142098,110149
142060,110148
142041,110080
142004,110126
141990,110119
141984,110088
141928,110083
141903,110072
141891,110030
141913,110035
141887,110036
141857,109975
141852,110040
141799,109966
141749,109929
141730,110017
141639,109960
141711,109910
141701,109948
141700,109922
141591,109892
141555,109899
141504,109838
141524,109845
141504,109856
141434,109848
141370,109778
141356,109822
141303,109738
141312,109800
141335,109796
141247,109782
141211,109761
141161,109735
141103,109723
141104,109740
141011,109673
141059,109709
140981,109686
140980,109677
140903,109629
140815,109612
140811,109544
140862,109601
140758,109562
140710,109508
140699,109594
140622,109506
140577,109466
140563,109514
140445,109472
140459,109488
140440,109470
140360,109457
140357,109473
140309,109394
140240,109400
140197,109389
140195,109350
140228,109327
140204,109330
140192,109352
140180,109374
140101,109321
140007,109258
140001,109294
139881,109259
139886,109257
139935,109294
139877,109223
139856,109245
139753,109221
139696,109128
139688,109169
139648,109152
139592,109154
139598,109084
139678,109179
139568,109126
139575,109120
139543,109144
139487,109135
139434,109067
139402,109067
139332,109051
139284,109040
139328,109005
139343,108981
139273,108988
139288,109012
139229,109024
139199,108934
139197,108987
139120,108954
139059,108902
139143,109001
139108,108983
139086,108923
139067,108946
139009,108909
139013,108910
138987,108876
138993,108881
138999,108858
139000,108874
138981,108876
138931,108895
138902,108834
138853,108855
138838,108833
138879,108891
138801,108855
138744,108775
138844,108813
138826,108848
138793,108824
138829,108900
138784,108849
138755,108799
138843,108839
138839,108836
138795,108811
138748,108804
138768,108800
138753,108764
138785,108853
138731,108783
138748,108818
138721,108809
138727,108793
138664,108814
138705,108765
138651,108772
138762,108819
138780,108828
138772,108768
138775,108826
138773,108793
138762,108780
138778,108865
138805,108827
138768,108827
138734,108779
138798,108786
138860,108833
138792,108846
138820,108782
138825,108853
138846,108848
138800,108841
138795,108780
138822,108839
138802,108885
138835,108889
138775,108833
138824,108871
138814,108819
138829,108813
138872,108838
138893,108811
138888,108869
138903,108841
138857,108817
138895,108891
138846,108869
138906,108852
138952,108897
138920,108855
138924,108884
138916,108867
138943,108832
138935,108874
138914,108852
138927,108890
138939,108908
138924,108886
138973,108856
139032,108936
139092,108928
139008,108902
138997,108877
139072,108926
139012,108951
139004,108911
139006,108940
138985,108895
139054,108851
139032,108916
139078,108934
139128,108880
139115,108972
139084,108913
139083,108919
139105,108957
139102,108909
139154,108969
139176,109026
139169,108988
139165,108951
139145,108947
139174,109016
139190,108981
139149,109012
139191,108974
139239,108964
139273,108962
139328,108995
139351,109045
139328,109061
139361,109059
139316,109065
139294,109032
139331,109091
139333,109043
139342,109031
139447,109113
139418,109094
139411,109034
139443,109074
139484,109072
139512,109138
139486,109067
139443,109112
139449,109115
139475,109074
139580,109115
139582,109138
139559,109060
139590,109121
139572,109129
139570,109190
139555,109156
139567,109142
139596,109181
139607,109129
139649,109152
139790,109220
139759,109210
139751,109210
139806,109184
139778,109196
139712,109226
139821,109282
139771,109256
139782,109183
139848,109230
139864,109270
139871,109253
139893,109283
139886,109230
139863,109239
139937,109284
139900,109346
139891,109335
139889,109285
139893,109266
139963,109249
139961,109242
140024,109286
140102,109302
140016,109300
139999,109332
139976,109277
140062,109281
140076,109306
139596,109181
140095,109326
140107,109355
140091,109378
140101,109382
140032,109363
140049,109334
140030,109319
140078,109386
140128,109317
140167,109326
140233,109343
140235,109407
140180,109395
140211,109387
140188,109344
140183,109331
140221,109395
140124,109378
140200,109318
140235,109389
140194,109330
140180,109376
140200,109358
140152,109371
140171,109366
140149,109350
140129,109369
140121,109357
140134,109341
140164,109373
140227,109367
140215,109376
140172,109321
140167,109389
140196,109363
140113,109339
140128,109336
140147,109309
140205,109312
140186,109317
140220,109379
140197,109342
140156,109330
140128,109313
140089,109267
140161,109345
140129,109341
140172,109304
140168,109349
140125,109308
140123,109289
140141,109383
140096,109346
140115,109312
140069,109388
140065,109349
140082,109313
140047,109277
140086,109270
140125,109293
140081,109330
140146,109336
140118,109341
140075,109320
140048,109302
140013,109252
140058,109321
139991,109295
140061,109284
140068,109297
140035,109232
140037,109311
139958,109299
139995,109293
140015,109255
139991,109242
140044,109298
139996,109289
140010,109237
139922,109282
139937,109246
140034,109271
140039,109257
139965,109257
139939,109309
139959,109274
139953,109296
139953,109296
139916,109263
139922,109226
140026,109295
139995,109205
139956,109317
139913,109278
139952,109208
139935,109218
139954,109260
139931,109236
139909,109192
139876,109191
139888,109156
140068,109297
139959,109244
139839,109251
139871,109197
139898,109231
139893,109272
139877,109213
139856,109234
139871,109251
139840,109222
139839,109224
139860,109177
139932,109172
139919,109200
139930,109244
139870,109278
139861,109228
139799,109258
139849,109240
139846,109258
139835,109221
139789,109210
139780,109215
139760,109208
139766,109179
139832,109250
139831,109203
139867,109232
139781,109188
139787,109155
139890,109251
139835,109194
139835,109173
139807,109231
139810,109233
139776,109215
139726,109208
139711,109186
139784,109176
139739,109180
139806,109164
139767,109188
139816,109165
139794,109235
139753,109175
139728,109199
139693,109167
139692,109149
139730,109173
139719,109153
139746,109143
139819,109217
139799,109177
139750,109155
139753,109188
139694,109182
139735,109164
139802,109225
139755,109193
139761,109145
139717,109124
139756,109211
139697,109176
139695,109171
139697,109122
139695,109154
139754,109172
139756,109143
139775,109160
139729,109224
139739,109201
139713,109118
139728,109110
139765,109159
139688,109178
139675,109110
139703,109148
139655,109158
139702,109167
139797,109156
139716,109138
139701,109147
139664,109144
139630,109096
139717,109187
139738,109141
139668,109149
139708,109163
139723,109115
139703,109107
139745,109162
139696,109080
139684,109060
139672,109079
139705,109106
139695,109171
139740,109144
139745,109146
139740,109188
139732,109146
139709,109177
139718,109169
139684,109154
139701,109209
139656,109147
139686,109146
139698,109160
139762,109162
139833,109119
139851,109194
139813,109184
139832,109173
139818,109181
139725,109221
139848,109217
139827,109233
139802,109192
139823,109223
139744,109191
139767,109167
139731,109202
139746,109140
139787,109180
139843,109203
139795,109156
139809,109227
139799,109221
139814,109184
139907,109215
139904,109193
139919,109199
139862,109222
139865,109197
139908,109178
139970,109243
139923,109216
139896,109234
139920,109220
139888,109193
139916,109219
139934,109210
139941,109220
139968,109288
139996,109255
140006,109232
139977,109261
139970,109281
140035,109250
140025,109245
140059,109299
140080,109274
140012,109253
139994,109253
140054,109259
140121,109310
140047,109286
140023,109254
140051,109307
140012,109261
140079,109257
140096,109274
140107,109277
140116,109276
140145,109308
140100,109349
140133,109310
140044,109285
140097,109300
140176,109287
140235,109309
140227,109343
140164,109310
140182,109360
140169,109330
140137,109317
140181,109321
140269,109319
140232,109345
140173,109283
140194,109319
140177,109310
140225,109343
140226,109381
140206,109328
140152,109392
140215,109344
140233,109369
140294,109305
140366,109393
140317,109395
140282,109364
140285,109387
140348,109426
140336,109392
140332,109454
140284,109421
140284,109385
140319,109359
140349,109370
140329,109366
140365,109383
140339,109359
140352,109453
140373,109381
140408,109461
140363,109394
140320,109418
140421,109415
140365,109462
140444,109470
140465,109416
140381,109420
140400,109407
140413,109384
140416,109395
140487,109384
140521,109436
140494,109464
140477,109446
140469,109446
140448,109358
140482,109503
140441,109418
140438,109449
140536,109417
140522,109440
140562,109436
140570,109478
140481,109449
140492,109435
140611,109473
140536,109448
140541,109466
140481,109470
140465,109454
140487,109429
140491,109385
140486,109422
140510,109409
140523,109449
140456,109431
140396,109458
140441,109411
140371,109400
140430,109410
140436,109424
140343,109386
140368,109337
140430,109348
140302,109334
140283,109418
140255,109305
140209,109281
140283,109352
140234,109303
140144,109324
140154,109275
140176,109297
140093,109279
140068,109250
139997,109235
139950,109196
139906,109198
139880,109157
139894,109212
139841,109210
139789,109147
139773,109117
139681,109101
139678,109097
139618,109021
139657,109054
139566,109072
139547,109025
139488,109060
139352,109003
139331,108957
139360,108962
139297,108928
139247,108960
139166,108916
139127,108928
139051,108855
139027,108827
138991,108830
139022,108828
138952,108796
138909,108847
138837,108793
138806,108775
138693,108709
138663,108716
138630,108691
138583,108664
138550,108619
138489,108612
138471,108590
138397,108590
138350,108580
138314,108569
138198,108565
138091,108510
138092,108478
138043,108477
137995,108431
138048,108426
138006,108473
137916,108423
137857,108383
137822,108369
137800,108374
137705,108416
137660,108316
137561,108259
137553,108246
137470,108218
137487,108234
137452,108148
137392,108181
137407,108213
137298,108138
137235,108252
137152,108121
137095,108086
137138,108075
137157,108112
137052,108073
137001,108045
136965,108021
136966,107978
136958,108035
136902,108042
136905,107987
136800,107990
136762,107960
136728,107929
136750,107956
136693,107945
136620,107935
136604,107940
136523,107892
136497,107872
136539,107870
136504,107866
136447,107822
136454,107873
136399,107848
136388,107812
136421,107833
136362,107795
136326,107797
136358,107781
136330,107762
136279,107751
136243,107762
136192,107781
136322,107721
136149,107687
136146,107736
136157,107711
136116,107742
136081,107717
136076,107735
136068,107699
136100,107754
136093,107705
136093,107687
136052,107719
136004,107717
135951,107705
135967,107647
136028,107716
136017,107690
135993,107666
135970,107678
136041,107699
135969,107676
135934,107637
136004,107696
135979,107715
135986,107704
135982,107724
135990,107702
135902,107699
135943,107662
135996,107662
136089,107712
136092,107766
136128,107760
136064,107797
136130,107738
136074,107735
136054,107755
136083,107719
136163,107691
136204,107794
136202,107772
136201,107798
136192,107736
136239,107825
136222,107744
135951,107705
136321,107831
136305,107821
136257,107853
136353,107800
136387,107798
136454,107857
136467,107910
136447,107916
136509,107876
136490,107936
136479,107907
136516,107920
136553,107889
136560,107932
136560,107905
136596,107905
136663,107997
136679,107961
136669,107979
136666,107940
136764,107973
136687,107955
136761,107950
136772,107981
136844,107969
136811,107964
136859,108006
136836,107967
136192,107736
136239,107825
137004,108065
136994,108048
137057,108063
137102,108097
137143,108088
137149,108084
137162,108126
137182,108174
137220,108140
137217,108209
137243,108226
137267,108224
