11111,11111
0,0
80202,79996
98559,97854
98618,97860
98639,97829
98600,97827
98610,97815
98658,97877
98669,97928
98691,97891
98706,97879
98695,97877
98745,97927
98787,97905
98812,97904
98811,97887
98836,97896
98834,97978
98916,97966
98898,97984
98901,97977
98901,97938
98968,98023
99042,97993
99001,98019
98999,97989
98960,97979
99071,98061
99061,98058
99108,98052
99067,98096
99031,98020
99114,98055
99122,98083
99137,98067
99121,98044
99142,98081
99204,98108
99178,98070
99215,98127
99202,98063
99178,98098
99197,98103
99288,98135
99299,98132
99261,98111
99285,98120
99296,98171
99322,98159
99338,98177
99390,98178
99320,98146
99412,98196
99412,98213
99416,98194
99455,98197
99438,98174
99497,98228
99496,98220
99516,98206
99491,98259
99467,98192
99539,98255
99593,98234
99591,98270
99550,98068
99576,98061
99620,98097
99600,98153
99643,98108
99608,98141
99635,98105
99689,98195
99722,98148
99737,98160
99717,98143
99724,98133
99765,98178
99827,98222
99775,98173
99791,98170
99770,98216
99811,98209
99871,98243
99828,98244
99854,98213
99867,98220
99931,98255
99943,98266
99957,98250
99888,98254
99867,98236
99958,98282
99946,98229
99881,98238
99863,98186
99767,98186
99761,98147
99713,98168
99637,98071
99535,98055
99461,97994
99379,98012
99302,97953
99233,97894
99112,97867
99053,97807
98995,97842
98943,97747
98845,97734
98749,97705
98666,97638
98646,97612
98588,97622
98485,97584
98387,97540
98292,97498
98296,97528
98228,97433
98200,97452
98074,97377
98053,97366
98104,97411
98071,97388
97987,97355
98160,97429
98430,97564
98437,97598
98510,97646
98503,97619
98501,97634
98758,97798
98768,97768
98774,97757
98808,97773
99003,97825
98967,97809
99032,97863
99091,97867
99071,97890
99037,97873
99048,97885
99100,97920
99139,97907
99125,97921
99116,97871
99080,97919
99204,97944
99220,97938
99200,97911
99182,97942
99212,97929
99259,97972
99308,97947
99294,97981
99293,97963
99249,97979
99328,97951
99370,98044
99335,98006
99372,97992
99397,98017
99399,98055
99474,98053
99464,98033
99420,98029
99447,98037
99489,98031
99522,98107
99501,98078
99530,98070
99490,98074
99559,98090
99607,98118
99590,98091
99553,98115
99564,98110
99639,98114
99663,98140
99637,98105
99662,98121
99659,98110
99692,98149
99765,98194
99705,98162
99685,98115
99716,98164
99769,98185
99770,98177
99796,98208
99749,98163
99763,98154
99803,98213
99828,98210
99831,98184
99825,98225
99858,98203
99902,98252
99926,98274
99880,98267
99899,98230
99904,98274
99959,98268
99988,98260
100005,98285
99974,98268
100013,98278
100058,98340
100062,98321
100061,98319
100002,98306
100014,98286
100110,98337
100022,98274
99977,98269
99905,98192
99836,98202
99758,98174
99746,98185
99625,98105
99516,98017
99466,97981
99400,98001
99361,97979
99243,97909
99095,97821
99079,97850
99052,97833
98935,97746
98877,97765
98745,97707
98710,97659
98709,97665
98627,97654
98514,97605
98482,97534
98448,97568
98388,97526
98391,97543
98326,97515
98272,97450
98254,97453
98239,97478
98223,97449
98194,97443
98122,97417
98289,97562
98270,97501
98334,97535
98310,97469
98391,97552
98378,97578
98405,97582
98403,97567
98392,97553
98470,97584
98497,97650
98494,97600
98528,97639
98461,97592
98521,97626
98589,97685
98574,97638
98595,97652
98540,97648
98655,97668
98646,97676
98650,97667
98684,97670
98576,97649
98689,97689
98714,97714
98672,97684
98673,97697
98631,97674
98666,97687
98716,97728
98699,97689
98714,97681
98663,97668
98717,97677
98751,97754
98719,97691
98728,97720
98666,97691
98749,97744
98749,97712
98765,97728
98718,97738
98690,97698
98769,97733
98785,97760
98765,97717
98799,97729
98731,97717
98794,97726
98824,97760
98787,97756
98824,97727
98777,97747
98855,97753
98879,97802
98874,97771
98830,97749
98859,97765
98924,97820
98937,97783
98930,97784
98944,97814
98894,97775
98999,97838
99017,97883
99037,97832
99035,97849
99026,97852
99102,97877
99089,97883
99118,97916
99073,97869
99110,97886
99153,97895
99203,97921
99207,97953
99176,97897
99215,97943
99269,97934
99255,97977
99280,97954
99234,97918
99290,97966
99309,97969
99344,98008
99368,98008
99354,97975
99383,98004
99403,98033
99470,98033
99431,98031
99450,98036
99485,98050
99485,98090
99565,98069
99527,98078
99532,98069
99538,98048
99590,98128
99637,98094
99605,98111
99595,98065
99632,98121
99676,98135
99712,98130
99627,98132
99669,98106
99659,98152
99747,98156
99728,98116
99753,98157
99726,98118
99765,98141
99798,98193
99814,98167
99816,98196
99794,98160
99828,98166
99867,98250
99875,98205
99851,98185
99812,98196
99880,98205
99912,98245
99940,98220
99887,98268
99909,98229
99902,98247
99956,98249
99920,98288
99920,98237
99930,98209
99958,98233
99999,98277
99973,98265
100005,98231
99983,98253
100023,98260
100068,98291
100063,98297
100033,98299
100030,98268
100054,98277
100135,98325
100121,98304
100122,98337
100067,98274
100158,98342
100139,98385
100170,98354
100166,98347
100174,98318
100195,98396
100209,98350
100271,98410
100270,98369
100189,98355
100243,98376
100242,98356
100204,98359
100124,98310
100067,98249
100047,98269
99956,98249
99851,98193
99811,98124
99672,98084
99619,98045
99607,98048
99484,98002
99402,97980
99300,97876
99272,97919
99193,97866
99125,97811
99084,97794
98899,97741
98943,97729
98928,97777
98858,97703
98762,97701
98696,97624
98649,97637
98664,97640
98610,97602
98584,97563
98492,97511
98503,97545
98480,97580
98478,97519
98419,97554
98341,97454
98380,97514
98433,97559
98384,97485
98366,97503
98302,97450
98373,97510
98396,97512
98339,97520
98356,97474
98349,97505
98381,97497
98384,97551
98390,97513
98421,97539
98371,97476
98436,97542
98442,97560
98469,97562
98445,97554
98408,97563
98422,97550
98518,97565
98456,97586
98466,97563
98441,97546
98517,97602
98539,97622
98567,97612
98535,97592
98517,97576
98595,97625
98643,97657
98644,97633
98655,97666
98596,97606
98697,97678
98757,97704
98689,97671
98687,97665
98652,97632
98732,97682
98749,97686
98731,97680
98687,97663
98687,97653
98754,97688
98759,97730
98742,97690
98721,97690
98710,97665
98733,97699
98753,97705
98710,97674
98716,97656
98658,97664
98738,97726
98728,97702
98720,97680
98692,97660
98675,97663
98702,97716
98743,97679
98672,97692
98692,97642
98669,97665
98739,97700
98675,97680
98708,97689
98661,97642
98679,97655
98743,97692
98742,97694
98727,97704
98713,97668
98681,97650
98778,97689
98784,97748
98756,97692
98734,97670
98795,97674
98821,97755
98817,97719
98845,97755
98820,97736
98793,97757
98872,97729
98926,97792
98908,97740
98878,97775
98894,97759
98961,97786
99006,97815
98964,97778
98945,97823
98980,97814
99040,97798
99008,97856
99033,97838
98997,97803
99043,97840
99071,97888
99085,97874
99098,97904
99069,97829
99098,97879
99162,97878
99232,97918
99204,97892
99163,97867
99196,97922
99223,97905
99317,97968
99290,97898
99272,97922
99293,97938
99351,97935
99390,97999
99362,97952
99302,97944
99384,97981
99382,97985
99443,98010
99417,97977
99378,97946
99454,98038
99483,98025
99455,98001
99430,98016
99439,97980
99497,98010
99526,98067
99552,98024
99526,98033
99498,98003
99546,98091
99578,98047
99622,98076
99591,98054
99548,98062
99605,98072
99668,98092
99616,98055
99668,98103
99599,98044
99631,98120
99660,98123
99698,98083
99697,98125
99609,98086
99702,98110
99735,98136
99702,98139
99732,98114
99712,98104
99736,98096
99781,98175
99801,98158
99807,98158
99752,98127
99849,98192
99837,98212
99856,98206
99873,98199
99815,98151
99901,98223
99878,98225
99918,98210
99881,98208
99760,98117
99781,98183
99749,98138
99690,98097
99601,98088
99503,97995
99450,98013
99388,97949
99298,97910
99220,97857
99097,97853
99050,97832
99006,97786
98881,97725
98810,97671
98723,97659
98683,97613
98644,97602
98499,97559
98442,97513
98357,97452
98296,97471
98269,97440
98188,97440
98115,97370
97985,97337
98036,97353
98005,97363
97932,97282
97881,97287
97809,97232
97813,97258
97856,97273
97750,97280
97743,97210
97709,97217
97723,97220
97756,97275
97703,97195
97689,97232
97645,97176
97729,97236
97706,97248
97668,97214
97664,97232
97675,97216
97701,97268
97730,97235
97708,97249
97728,97258
97673,97244
97758,97274
97749,97315
97741,97244
97748,97249
97702,97264
97823,97281
97831,97323
97822,97273
97839,97313
97806,97301
97902,97322
97925,97363
97908,97320
97932,97355
97905,97318
97972,97393
98018,97380
98006,97421
98046,97380
98008,97419
98080,97423
98083,97445
98107,97418
98102,97435
98063,97416
98168,97463
98176,97484
98152,97410
98130,97431
98131,97444
98200,97462
98201,97499
98168,97475
98165,97440
98196,97459
98185,97470
98212,97475
98187,97502
98191,97451
98160,97480
98207,97459
98251,97512
98184,97446
98155,97469
98143,97454
98212,97480
98185,97481
98199,97490
98175,97457
98151,97449
98193,97467
98212,97464
98159,97425
98200,97454
98166,97505
98243,97491
98227,97498
98269,97480
98202,97485
98200,97445
98295,97533
98262,97505
98254,97532
98238,97475
98281,97507
98340,97538
98362,97570
98352,97527
98333,97534
98359,97555
98415,97577
98403,97581
98422,97595
98389,97557
98467,97620
98509,97617
98495,97631
98544,97632
98474,97621
98544,97610
98601,97649
98607,97663
98624,97705
98551,97649
98648,97685
98701,97678
98691,97703
98681,97704
98681,97669
98698,97739
98771,97724
98785,97755
98784,97784
98760,97728
98815,97736
98845,97764
98854,97819
98854,97761
98820,97766
98871,97783
98900,97786
98933,97812
98911,97816
98884,97800
98963,97837
99013,97852
98990,97853
99027,97851
98961,97838
99011,97850
99046,97855
99078,97871
99079,97882
99023,97866
99090,97849
99123,97912
99097,97876
99112,97876
99060,97856
99141,97893
99183,97910
99135,97900
99184,97915
99121,97881
99164,97884
99229,97945
99159,97950
99172,97896
99149,97890
99217,97929
99264,97965
99207,97960
99233,97925
99168,97920
99263,97955
99319,97954
99277,97987
99294,97944
99246,97954
99321,97956
99376,97991
99297,97961
99339,97996
99312,97943
99355,98018
99377,98013
99381,98017
99388,98032
99338,97968
99422,98022
99396,98009
99412,98007
99377,97953
99353,97956
99326,97992
99272,97960
99268,97922
99181,97907
99041,97840
99058,97793
98947,97814
98845,97719
98784,97720
98615,97616
98633,97614
98506,97588
98439,97556
98301,97466
98215,97405
98173,97398
98075,97391
97948,97314
97884,97294
97717,97229
97723,97229
97600,97188
97545,97153
97430,97071
97349,97074
97318,97087
97241,97040
97164,97013
97099,96988
97021,96931
97033,96945
97020,96951
96927,96930
96909,96894
96821,96889
96843,96902
96873,96882
96847,96895
96786,96829
96745,96879
96797,96908
96820,96881
96816,96857
96799,96874
96771,96854
96867,96898
96858,96903
96847,96896
96837,96873
96852,96901
96880,96927
96924,96956
96891,96926
96885,96933
96888,96916
96957,96960
96966,96968
96942,96972
96964,96964
96971,96947
97020,97006
97067,97003
97055,97014
97052,96998
97070,97017
97143,97037
97169,97068
97148,97053
97135,97033
97160,97057
97260,97074
97250,97104
97271,97063
97257,97095
97248,97070
97326,97141
97322,97132
97313,97113
97293,97094
97319,97131
97337,97108
97372,97135
97338,97129
97326,97106
97334,97143
97393,97137
97393,97150
97337,97141
97298,97096
97315,97128
97359,97140
97318,97140
97335,97082
97306,97090
97319,97151
97336,97109
97330,97105
97286,97147
97239,97057
97253,97117
97314,97134
97270,97124
97276,97118
97254,97084
97244,97084
97311,97141
97282,97137
97295,97088
97276,97099
97251,97099
97308,97150
97298,97114
97307,97108
97289,97083
97324,97132
97369,97157
97362,97160
97403,97184
97348,97130
97419,97149
97437,97198
97468,97183
97488,97201
97432,97198
97518,97200
97556,97270
97592,97250
97572,97257
97567,97242
97625,97254
97667,97295
97673,97296
97716,97284
97678,97266
97734,97306
97760,97310
97791,97330
97815,97365
97793,97323
97879,97368
97905,97397
97897,97409
97924,97395
97931,97369
97986,97429
98027,97445
98015,97449
98019,97463
98030,97419
98078,97473
98143,97504
98140,97491
98160,97451
98109,97475
98178,97466
98201,97545
98233,97508
98255,97515
98212,97524
98291,97547
98328,97542
98336,97595
98344,97554
98317,97555
98415,97608
98466,97604
98423,97615
98440,97631
98402,97574
98554,97667
98528,97642
98557,97654
98521,97649
98537,97622
98588,97698
98637,97699
98623,97703
98639,97685
98654,97682
98688,97751
98745,97726
98717,97739
98750,97741
98713,97735
98781,97727
98820,97776
98833,97776
98833,97781
98844,97709
98895,97828
98970,97842
98960,97824
98934,97809
98957,97807
99021,97841
99034,97855
99060,97866
99039,97851
99036,97865
99103,97882
99138,97928
99130,97906
99127,97876
99154,97882
99175,97961
99246,97969
99224,97956
99261,97930
99260,97952
99287,97964
99345,98031
99372,97989
99324,97974
99349,97996
99390,98008
99424,98052
99473,98044
99423,98032
99439,98039
99550,98067
99553,98087
99548,98089
99547,98074
99507,98106
99573,98077
99541,98096
99539,98086
99469,98011
99418,97995
99350,98000
99312,97956
99213,97899
99099,97871
98998,97815
98989,97777
98902,97762
98809,97710
98654,97626
98620,97611
98519,97619
98465,97582
98410,97542
98276,97461
98198,97406
98139,97436
98093,97405
98018,97350
97918,97321
97833,97269
97831,97231
97748,97243
97646,97199
97619,97172
97547,97188
97538,97142
97491,97134
97457,97124
97428,97070
97359,97103
97390,97051
97401,97102
97340,97077
97322,97070
97295,97068
97378,97069
97365,97076
97352,97076
97306,97055
97299,97075
97374,97114
97388,97097
97349,97056
97345,97058
97332,97120
97419,97093
97426,97120
97377,97099
97408,97101
97396,97119
97457,97135
97450,97153
97451,97117
97420,97129
97440,97130
97542,97193
97520,97193
97510,97161
97534,97148
97525,97208
97615,97200
97634,97197
97659,97241
97608,97190
97631,97177
97699,97285
97716,97250
97687,97252
97685,97266
97716,97270
97766,97266
97775,97299
97778,97257
97705,97255
97769,97296
97806,97301
97782,97322
97755,97234
97738,97295
97772,97273
97806,97307
97785,97272
97819,97309
97765,97217
97829,97294
97845,97316
97847,97315
97817,97296
97770,97255
97798,97310
97820,97290
97839,97310
97794,97264
97779,97296
97800,97285
97817,97268
97844,97294
97790,97292
97766,97260
97812,97306
97814,97295
97846,97276
97808,97323
97776,97275
97834,97300
97907,97315
97889,97331
97848,97296
97862,97318
97907,97351
97964,97353
97944,97347
97924,97347
97905,97314
97995,97392
98016,97365
98039,97400
98013,97402
98003,97341
98076,97435
98091,97406
98106,97411
98109,97431
98055,97416
98130,97424
98187,97503
98179,97431
98194,97489
98168,97456
98223,97478
98270,97510
98248,97516
98253,97483
98271,97469
98321,97509
98320,97533
98367,97539
98341,97505
98349,97524
98401,97563
98474,97585
98431,97587
98443,97544
98461,97563
98465,97638
98510,97596
98517,97630
98493,97625
98480,97565
98572,97652
98593,97610
98556,97655
98556,97605
98559,97632
98579,97645
98664,97699
98595,97641
98604,97654
98602,97640
98658,97684
98686,97702
98715,97674
98664,97673
98682,97655
98752,97718
98756,97701
98779,97727
98727,97706
98758,97696
98786,97760
98796,97725
98805,97737
98776,97720
98803,97717
98818,97783
98830,97794
98826,97759
98843,97732
98824,97747
98857,97744
98900,97809
98867,97734
98890,97750
98877,97735
98956,97836
98955,97785
98972,97801
98923,97793
98946,97779
98970,97794
99021,97846
98995,97831
98973,97789
98990,97806
99006,97831
99055,97882
99048,97846
98992,97834
99037,97808
99113,97835
99071,97890
99106,97878
99101,97844
99105,97902
99147,97856
99197,97898
99182,97887
99175,97890
99195,97900
99208,97917
99263,97951
99245,97899
99211,97920
99236,97932
99302,97929
99289,97973
99261,97931
99197,97894
99184,97906
99190,97893
99164,97859
99061,97862
98935,97750
98858,97709
98825,97740
98750,97690
98669,97625
98515,97543
98483,97574
98404,97548
98335,97459
98212,97457
98147,97374
98057,97397
98023,97329
97921,97291
97823,97267
97721,97187
97683,97189
97598,97192
97554,97135
97441,97060
97369,97045
97323,97026
97338,97014
97245,97038
97202,96950
97074,96965
97081,96935
97131,96962
97014,96944
97025,96888
96948,96862
96974,96885
96951,96898
96952,96876
96951,96893
96892,96817
96897,96889
96927,96891
96930,96872
96872,96859
96877,96859
96895,96888
96923,96920
96924,96897
96909,96898
96893,96872
96926,96867
96978,96960
96967,96914
96978,96940
96970,96888
96973,96936
97031,96922
97001,96975
97003,96934
96979,96922
97001,96957
97061,96972
97074,96949
97097,96995
97037,96935
97101,97000
97172,97004
97147,96990
97158,96998
97130,96993
97182,97025
97236,97052
97180,97044
97197,96998
97175,97028
97216,97023
97243,97065
97232,97047
97255,97062
97198,97002
97275,97031
97250,97080
97285,97073
97257,97059
97196,97036
97287,97048
97272,97107
97264,97040
97284,97060
97227,97006
97250,97057
97262,97073
97218,97069
97228,97026
97209,97019
97240,97053
97277,97072
97248,97078
97242,97011
97225,97040
97284,97053
97318,97074
97319,97082
97268,97068
97292,97046
97330,97116
97357,97112
97358,97125
97388,97083
97353,97100
97397,97114
97452,97165
97434,97161
97427,97114
97432,97123
97484,97158
97521,97207
97539,97164
97526,97163
97510,97161
97588,97202
97638,97232
97641,97215
97643,97219
97632,97229
97709,97275
97754,97280
97770,97277
97730,97252
97768,97280
97819,97302
97860,97313
97839,97325
97870,97327
97878,97328
97921,97359
97952,97401
97984,97352
97921,97324
97980,97358
98036,97413
98024,97391
98037,97405
98040,97391
98034,97395
98082,97406
98154,97460
98104,97441
98119,97437
98154,97446
98182,97458
98193,97478
98236,97458
98177,97476
98195,97454
98251,97515
98321,97547
98249,97505
98280,97466
98257,97478
98319,97522
98346,97572
98321,97552
98339,97495
98305,97508
98390,97582
98416,97562
98390,97523
98345,97538
98392,97548
98422,97587
98460,97558
98446,97593
98396,97532
98452,97568
98512,97604
98540,97625
98521,97623
98455,97583
98494,97594
98574,97625
98543,97639
98540,97606
98563,97621
98564,97607
98599,97630
98580,97657
98595,97624
98593,97639
98618,97641
98638,97689
98684,97676
98663,97655
98622,97638
98660,97670
98663,97693
98681,97681
98703,97668
98652,97683
98702,97677
98757,97697
98700,97707
98712,97712
98723,97678
98744,97689
98743,97714
98778,97752
98752,97715
98744,97678
98786,97719
98834,97753
98853,97755
98843,97764
98823,97716
98897,97773
98893,97796
98926,97802
98959,97776
98852,97774
98955,97780
99000,97808
99006,97805
99001,97849
98962,97752
99012,97831
99011,97816
99009,97802
98992,97793
98923,97759
98875,97750
98890,97728
98743,97715
98666,97615
98553,97592
98547,97563
98425,97558
98364,97458
98259,97455
98154,97349
98067,97357
98021,97340
97889,97267
97772,97245
97685,97170
97611,97133
97561,97137
97476,97087
97390,97084
97244,96947
97234,96991
97147,96921
97110,96943
97036,96845
96860,96850
96886,96813
96869,96836
96803,96780
96717,96745
96650,96727
96682,96748
96613,96761
96608,96729
96583,96692
96496,96693
96584,96695
96518,96739
96528,96702
96494,96693
96440,96682
96510,96699
96544,96726
96482,96719
96493,96708
96478,96673
96522,96729
96500,96712
96535,96734
96498,96701
96458,96673
96573,96731
96555,96753
96584,96722
96531,96728
96493,96685
96586,96730
96568,96765
96561,96748
96575,96728
96567,96748
96596,96759
96646,96781
96623,96757
96634,96756
96585,96743
96703,96814
96693,96840
96691,96791
96705,96795
96725,96809
96749,96821
96767,96830
96780,96852
96697,96833
96734,96821
96768,96850
96749,96863
96746,96805
96789,96841
96718,96787
96801,96843
96766,96843
96776,96820
96759,96826
96746,96786
96795,96869
96789,96819
96775,96830
96770,96822
96763,96801
96812,96826
96769,96860
96803,96828
96753,96845
96749,96799
96792,96820
96781,96885
96746,96810
96782,96826
96729,96805
96822,96854
96783,96881
96789,96818
96815,96831
96766,96818
96840,96865
96868,96870
96866,96844
96831,96873
96818,96827
96893,96891
96921,96873
96893,96897
96873,96860
96863,96882
96939,96884
96931,96951
96940,96915
96920,96892
96906,96901
96980,96903
96979,96971
96992,96922
96942,96926
96975,96957
97014,96938
97073,96997
97024,96938
97031,96934
97028,96958
97103,96968
97115,97014
97100,96998
97099,96951
97134,96988
97171,97036
97177,96999
97213,97026
97157,96993
97194,97020
97225,97070
97242,97038
97220,97051
97232,96988
97241,97077
97273,97045
97320,97079
97324,97079
97286,97028
97335,97113
97363,97089
97428,97136
97396,97096
97391,97092
97455,97141
97438,97142
97492,97157
97456,97144
97449,97100
97503,97184
97550,97175
97542,97173
97575,97166
97507,97154
97577,97200
97640,97201
97633,97224
97629,97224
97605,97156
97641,97237
97679,97230
97710,97228
97695,97253
97672,97203
97752,97271
97762,97303
97750,97268
97758,97274
97770,97257
97811,97252
97853,97332
97835,97287
97882,97330
97811,97268
97890,97340
97867,97345
97923,97343
97882,97328
97878,97308
97953,97320
97935,97374
98007,97371
97944,97352
97955,97359
98006,97377
98012,97376
98035,97379
98049,97356
97988,97364
98067,97381
98086,97411
98092,97404
98045,97392
98041,97357
98078,97394
98124,97404
98085,97422
98088,97429
98022,97373
98128,97415
98107,97464
98107,97391
98099,97395
98060,97410
98135,97395
98156,97450
98100,97415
98148,97407
98093,97392
98137,97410
98154,97444
98144,97446
98115,97414
98130,97416
98186,97464
98162,97464
98175,97460
98180,97415
98154,97459
98231,97452
98228,97454
98231,97466
98210,97447
98225,97471
98231,97471
98263,97483
98247,97486
98242,97475
98251,97468
98270,97489
98271,97464
98213,97474
98148,97416
98101,97380
98081,97374
97993,97355
97916,97305
97770,97259
97670,97182
97622,97168
97571,97119
97408,97057
97336,96991
97171,96962
97141,96914
97028,96900
96922,96820
96789,96775
96651,96675
96631,96710
96488,96648
96395,96615
96278,96535
96126,96507
96073,96492
96009,96466
95924,96400
95807,96359
95722,96324
95675,96333
95652,96270
95545,96284
95481,96216
95463,96193
95464,96219
95389,96243
95374,96172
95332,96172
95309,96129
95317,96185
95372,96186
95303,96197
95290,96134
95309,96175
95358,96174
95360,96208
95398,96198
95339,96194
95371,96188
95440,96214
95428,96232
95455,96241
95420,96259
95478,96208
95514,96318
95540,96277
95564,96315
95521,96286
95542,96297
95612,96334
95580,96361
95617,96327
95586,96296
95641,96338
95668,96332
95708,96364
95653,96354
95714,96357
95677,96409
95752,96398
95812,96412
95769,96437
95775,96380
95810,96450
95882,96426
95841,96446
95872,96442
95838,96422
95798,96415
95880,96470
95879,96480
95887,96445
95864,96402
95859,96433
95889,96474
95873,96450
95879,96433
95834,96393
95835,96418
95847,96441
95832,96433
95849,96441
95760,96391
95826,96417
95831,96405
95824,96421
95813,96411
95744,96378
95795,96376
95824,96403
95776,96421
95811,96401
95805,96373
95780,96414
95851,96435
95826,96427
95842,96412
95792,96435
95838,96404
95882,96449
95830,96452
95857,96437
95801,96435
95904,96444
95911,96510
95894,96453
95912,96488
95832,96459
95950,96483
95978,96493
95955,96476
95982,96505
95945,96464
96038,96529
96048,96537
96087,96551
96061,96536
96070,96496
96108,96592
96112,96594
96147,96584
96179,96561
96182,96595
96228,96604
96232,96639
96267,96586
96295,96637
96220,96573
96328,96671
96321,96676
96346,96650
96384,96684
96323,96633
96447,96706
96444,96736
96475,96694
96459,96704
96481,96711
96539,96715
96576,96776
96585,96757
96598,96768
96574,96755
96646,96763
96699,96812
96650,96811
96704,96803
96697,96791
96736,96863
96777,96864
96761,96834
96818,96844
96767,96851
96850,96868
96825,96889
96881,96893
96863,96919
96838,96826
96917,96936
96934,96938
96929,96885
96945,96926
96882,96874
96964,96963
97006,96956
96994,96939
97022,96918
96954,96937
97063,96978
97071,96987
97088,96953
97069,96984
97073,96933
97072,96994
97141,97025
97115,97036
97090,96988
97112,96990
97173,97002
97220,97033
97205,97026
97184,97050
97156,96988
97230,97067
97222,97071
97253,97042
97266,97066
97191,97018
97258,97083
97308,97064
97309,97079
97304,97072
97259,97055
97326,97125
97333,97085
97369,97110
97384,97093
97326,97085
97420,97125
97411,97173
97456,97121
97447,97135
97422,97133
97509,97163
97512,97200
97523,97166
97522,97194
97544,97154
97565,97188
97614,97236
97591,97242
97608,97180
97612,97245
97643,97234
97707,97269
97691,97245
97675,97246
97702,97235
97730,97277
97772,97307
97799,97275
97777,97271
97842,97303
97851,97355
97899,97321
97889,97347
97889,97351
97881,97333
97987,97383
97961,97393
97996,97367
97970,97372
97987,97348
98014,97380
98021,97393
97904,97334
97867,97307
97819,97294
97789,97248
97666,97239
97613,97187
97493,97113
97381,97096
97375,97073
97271,97016
97158,96977
97015,96924
96971,96848
96838,96852
96781,96780
96668,96749
96553,96704
96427,96615
96380,96646
96256,96573
96200,96544
96036,96453
95942,96414
95935,96422
95822,96412
95754,96336
95624,96272
95594,96269
95549,96288
95526,96236
95468,96243
95332,96195
95387,96216
95376,96197
95340,96200
95323,96210
95280,96138
95333,96233
95362,96219
95372,96225
95374,96214
95338,96205
95369,96196
95458,96272
95454,96280
95462,96263
95450,96254
95474,96268
95552,96317
95536,96315
95573,96321
95574,96316
95586,96341
95633,96375
95679,96409
95679,96346
95631,96333
95720,96385
95746,96400
95792,96454
95797,96400
95774,96420
95803,96459
95866,96499
95877,96473
95862,96466
95886,96417
95957,96530
96003,96539
96026,96543
96032,96544
96030,96489
96067,96579
96100,96551
96111,96572
96139,96593
96108,96541
96170,96608
96212,96622
96162,96605
96196,96596
96149,96575
96212,96592
96216,96639
96175,96580
96189,96624
96131,96582
96177,96576
96223,96612
96172,96628
96184,96586
96137,96581
96183,96579
96194,96608
96169,96595
96172,96559
96098,96564
96167,96579
96186,96607
96140,96600
96138,96602
96084,96544
96146,96625
96148,96573
96166,96591
96118,96589
96127,96568
96141,96596
96172,96605
96196,96626
96158,96608
96159,96581
96193,96641
96199,96628
96235,96626
96218,96635
96159,96619
96276,96689
96296,96669
96286,96700
96267,96626
96281,96661
96342,96664
96358,96722
96354,96717
96348,96693
96353,96657
96392,96740
96428,96733
96456,96744
96453,96729
96433,96698
96514,96813
96529,96764
96505,96792
96563,96770
96503,96758
96586,96824
96611,96800
96619,96839
96631,96798
96609,96809
96679,96864
96695,96850
96715,96867
96695,96811
96731,96835
96783,96912
96760,96909
96823,96886
96777,96910
96760,96873
96830,96897
96884,96918
96883,96917
96867,96905
96847,96935
96948,96951
96969,96977
96948,96960
96969,96950
96948,96971
97020,96989
97032,97010
97051,96978
97006,96994
96988,96975
97082,97034
97070,97021
97089,97017
97056,96991
97092,97017
97145,97027
97163,97065
97136,97009
97128,97041
97149,97056
97167,97084
97189,97076
97222,97078
97207,97031
97238,97068
97265,97084
97296,97130
97285,97126
97267,97091
97298,97082
97349,97150
97373,97157
97371,97150
97356,97096
97384,97176
97402,97127
97460,97193
97421,97168
97394,97162
97445,97172
97457,97190
97511,97197
97471,97200
97474,97175
97500,97200
97542,97234
97563,97262
97572,97238
97534,97203
97556,97222
97641,97288
97606,97260
97652,97243
97629,97280
97656,97261
97720,97304
97731,97316
97720,97316
97717,97249
97757,97339
97814,97338
97799,97358
97852,97346
97788,97362
97835,97330
97869,97403
97924,97390
97885,97372
97856,97379
97898,97370
97917,97432
97900,97366
97927,97404
97816,97346
97839,97330
97814,97334
97748,97287
97625,97259
97486,97146
97508,97162
97401,97172
97295,97084
97255,97073
97060,96971
97036,96934
96930,96920
96881,96869
96738,96788
96643,96762
96509,96717
96464,96699
96376,96659
96263,96642
96118,96516
96081,96540
95991,96479
95923,96466
95818,96412
95749,96368
95694,96367
95645,96334
95617,96321
95543,96302
95468,96261
95484,96309
95469,96278
95450,96278
95389,96270
95380,96235
95412,96275
95437,96260
95445,96271
95415,96286
95394,96259
95477,96323
95473,96289
95462,96320
95495,96342
95455,96264
95585,96370
95590,96377
95632,96364
95618,96376
95591,96368
95660,96399
95728,96431
95699,96414
95712,96423
95720,96413
95774,96457
95825,96471
95802,96464
95841,96480
95809,96471
95891,96502
95935,96515
95937,96534
95992,96536
96001,96524
96036,96553
96089,96606
96121,96599
96138,96600
96141,96599
96162,96640
96238,96652
96210,96649
96219,96639
96165,96615
96260,96673
96275,96697
96245,96625
96219,96676
96204,96646
96314,96666
96278,96717
96274,96654
96230,96633
96259,96654
96263,96683
96248,96661
96296,96650
96256,96644
96248,96660
96259,96688
96273,96657
96238,96658
96210,96616
96214,96651
96239,96673
96229,96662
96212,96648
96222,96631
96176,96628
96251,96669
96265,96670
96229,96640
96235,96657
96201,96656
96299,96657
96291,96672
96287,96709
96290,96649
96279,96659
96298,96716
96340,96702
96345,96678
96335,96722
96342,96695
96385,96740
96444,96743
96459,96776
96427,96726
96450,96749
96509,96793
96584,96792
96546,96795
96558,96800
96613,96823
96626,96864
96722,96863
96693,96882
96700,96829
96734,96868
96786,96920
96779,96903
96824,96887
96763,96912
96821,96941
96888,96981
96919,96959
96880,97003
96901,96966
96913,96981
96999,97011
97046,97007
97028,96997
96992,97028
97037,97009
97095,97018
97112,97076
97140,97042
97103,97061
97136,97061
97196,97100
97177,97085
97223,97117
97193,97050
97178,97097
97275,97102
97301,97154
97260,97141
97270,97111
97276,97124
97341,97175
97338,97168
97342,97134
97333,97141
97342,97149
97404,97185
97397,97180
97424,97207
97416,97149
97450,97221
97459,97174
97498,97247
97474,97198
97451,97174
97492,97207
97514,97228
97532,97215
97549,97246
97461,97210
97554,97244
97569,97276
97567,97245
97612,97250
97541,97223
97594,97263
97651,97290
97632,97306
97624,97253
97613,97271
97659,97282
97680,97327
97701,97307
97727,97307
97667,97293
97720,97287
97749,97343
97758,97323
97725,97342
97705,97318
97778,97347
97757,97315
97778,97356
97787,97341
97766,97293
97787,97369
97830,97405
97796,97371
97858,97362
97777,97344
97876,97389
97902,97371
97914,97409
97881,97364
97905,97359
97944,97407
97954,97445
97965,97400
97970,97449
97959,97381
97979,97461
98031,97469
97989,97458
98021,97438
97978,97433
98064,97465
98068,97480
98076,97468
98083,97490
98020,97448
98091,97458
98099,97514
98098,97467
98066,97448
98007,97404
98012,97452
97969,97378
97884,97381
97800,97298
97635,97282
97639,97231
97526,97215
97439,97112
97365,97123
97205,97033
97140,97011
97072,96970
96963,96942
96853,96850
96712,96802
96670,96776
96625,96773
96478,96704
96389,96675
96258,96579
96227,96614
96138,96573
96021,96506
95977,96453
95862,96422
95798,96415
95796,96427
95670,96348
95607,96325
95513,96298
95579,96318
95496,96292
95462,96264
95403,96239
95345,96253
95408,96259
95359,96245
95364,96261
95282,96248
95322,96256
95353,96274
95397,96245
95386,96283
95351,96256
95356,96241
95413,96316
95433,96280
95432,96293
95426,96295
95400,96292
95476,96286
95460,96331
95482,96315
95482,96299
95457,96331
95515,96320
95505,96372
95505,96316
95548,96350
95553,96351
95549,96376
95627,96408
95591,96393
95606,96398
95630,96425
95720,96408
95711,96451
95735,96460
95761,96421
95783,96444
95805,96455
95869,96507
95873,96493
95831,96471
95880,96485
95924,96542
95948,96530
95909,96546
95886,96543
95907,96476
95996,96580
95991,96552
95968,96540
95920,96483
95977,96543
95972,96566
96008,96565
95959,96518
95947,96524
95926,96514
96003,96515
95982,96562
95935,96533
95929,96497
95917,96486
95931,96539
95948,96512
95971,96552
95890,96450
95913,96508
95973,96546
95954,96519
95970,96534
95926,96470
95974,96544
95991,96562
95973,96569
96005,96561
96020,96531
95984,96574
96047,96542
96044,96592
96070,96592
96039,96557
96064,96559
96138,96633
96124,96585
96095,96590
96101,96623
96134,96610
96204,96653
96182,96669
96216,96635
96187,96630
96272,96685
96329,96685
96300,96716
96291,96665
96312,96700
96388,96698
96399,96723
96390,96754
96427,96722
96390,96767
96477,96725
96496,96806
96502,96787
96488,96780
96497,96780
96565,96808
96578,96787
96605,96828
96614,96820
96536,96814
96635,96812
96663,96895
96632,96826
96675,96852
96645,96832
96701,96846
96715,96893
96762,96901
96715,96918
96715,96837
96725,96882
96785,96947
96757,96908
96769,96873
96725,96898
96784,96925
96862,96967
96843,96913
96786,96958
96794,96884
96820,96943
96847,96954
96845,96929
96808,96899
96825,96935
96833,96925
96908,96947
96832,96956
96855,96951
96809,96934
96854,96927
96932,96971
96841,96944
96855,96921
96851,96943
96894,96935
96919,96995
96888,96933
96940,96962
96860,96927
96932,96976
96963,96983
96921,96982
96894,96971
96891,96962
96940,96962
96985,97019
96930,96958
96971,96992
96914,96946
97017,97007
97009,97033
97021,97012
96986,96979
96966,96998
97000,97012
97046,97039
97011,97025
97042,97029
96996,96991
97069,97020
97079,97066
97090,97029
97067,97024
97075,97000
97154,97087
97149,97074
97163,97084
97130,97056
97118,97057
97203,97081
97235,97117
97241,97089
97189,97068
97230,97096
97313,97139
97328,97117
97341,97140
97309,97145
97325,97127
97365,97199
97371,97175
97358,97154
97403,97184
97373,97147
97457,97176
97470,97241
97499,97209
97460,97198
97486,97243
97510,97249
97588,97269
97550,97219
97548,97249
97569,97243
97608,97294
97664,97292
97662,97305
97627,97260
97645,97268
97652,97290
97648,97292
97606,97227
97581,97248
97488,97172
97433,97167
97408,97135
97277,97096
97176,96983
97067,97001
97003,96950
96950,96947
96793,96889
96665,96816
96562,96712
96509,96730
96403,96670
96303,96637
96170,96529
96060,96512
96033,96505
95954,96468
95831,96417
95724,96345
95629,96321
95612,96317
95515,96288
95456,96253
95340,96196
95284,96177
95257,96190
95239,96170
95145,96144
95085,96093
95021,96106
95050,96124
95022,96108
94963,96094
94969,96040
94971,96060
95020,96090
95007,96090
94962,96084
94967,96073
94993,96102
95022,96114
95042,96135
95056,96135
95029,96063
95078,96124
95114,96147
95129,96174
95114,96156
95125,96144
95171,96164
95196,96201
95211,96223
95214,96181
95206,96186
95237,96223
95290,96217
95311,96248
95290,96238
95289,96184
95334,96269
95398,96267
95370,96260
95427,96277
95357,96261
95415,96303
95512,96342
95507,96335
95508,96316
95504,96326
95545,96372
95566,96332
95603,96357
95607,96359
95569,96359
95637,96407
95634,96385
95657,96425
95655,96395
95660,96375
95664,96425
95717,96393
95681,96413
95701,96400
95670,96359
95731,96392
95703,96471
95723,96414
95692,96406
95677,96408
95721,96436
95750,96422
95723,96425
95740,96400
95667,96369
95725,96436
95782,96443
95726,96438
95744,96392
95704,96427
95753,96438
95791,96410
95783,96429
95744,96436
95760,96410
95825,96447
95808,96464
95843,96495
95836,96463
95761,96439
95830,96482
95919,96519
95861,96452
95894,96482
95884,96472
95945,96533
95979,96552
95978,96547
95996,96570
95944,96485
96025,96549
96072,96612
96091,96578
96081,96576
96076,96584
96113,96616
96152,96608
96162,96640
96193,96645
96176,96615
96235,96676
96299,96669
96288,96680
96294,96676
96299,96658
96362,96711
96378,96748
96423,96720
96425,96754
96390,96727
96449,96755
96494,96797
96467,96748
96521,96781
96494,96750
96551,96813
96616,96794
96584,96814
96562,96781
96581,96825
96637,96818
96674,96851
96680,96848
96663,96869
96683,96812
96721,96896
96748,96907
96739,96878
96735,96885
96766,96871
96758,96913
96825,96877
96792,96906
96781,96882
96796,96880
96839,96911
96894,96950
96829,96951
96816,96914
96859,96918
96900,96925
96940,97005
96915,96946
96960,96952
96932,96940
97002,96984
96987,96997
97026,96997
96977,97001
97002,96986
97066,97012
97034,97017
97075,97039
97023,97013
97076,97016
97084,97045
97104,97076
97098,97066
97075,97013
97055,97029
97118,97065
97168,97072
97129,97049
97122,97037
97130,97032
97189,97110
97194,97057
97165,97094
97150,97056
97185,97052
97249,97143
97250,97074
97250,97122
97198,97084
97279,97081
97310,97127
97312,97132
97323,97145
97275,97135
97369,97137
97394,97156
97354,97172
97393,97174
97379,97123
97374,97175
97422,97197
97424,97163
97429,97170
97455,97165
97417,97181
97482,97216
97506,97189
97478,97188
97504,97219
97501,97184
97565,97234
97531,97229
97560,97220
97514,97221
97568,97251
97568,97257
97607,97302
97579,97239
97612,97255
97585,97227
97673,97271
97631,97313
97605,97263
97614,97220
97584,97263
97586,97273
97556,97220
97451,97196
97345,97140
97296,97088
97276,97077
97151,97001
97026,96947
96929,96895
96846,96901
96749,96828
96663,96790
96531,96711
96395,96688
96345,96630
96266,96632
96146,96514
96020,96512
95871,96397
95830,96414
95765,96362
95632,96368
95568,96278
95428,96246
95394,96194
95364,96220
95229,96158
95207,96138
95064,96053
95062,96088
95024,96076
95020,96075
94950,96037
94898,95988
94889,96054
94891,96048
94892,95983
94883,96015
94798,95980
94894,96048
94883,96030
94927,96048
94879,96027
94880,95987
94956,96053
94966,96099
94945,96053
94955,96080
94945,96058
94990,96081
95017,96097
95052,96098
95016,96126
94991,96067
95052,96148
95065,96143
95072,96105
95096,96127
95044,96118
95129,96147
95155,96175
95167,96143
95154,96182
95113,96117
95184,96201
95199,96188
95224,96164
95272,96195
95232,96223
95292,96231
95372,96275
95356,96262
95386,96279
95347,96262
95456,96294
95431,96317
95444,96292
95451,96291
95455,96268
95459,96329
95510,96309
95485,96325
95509,96291
95451,96300
95494,96336
95535,96355
95463,96306
95477,96281
95439,96315
95502,96309
95493,96305
95474,96276
95466,96301
95392,96260
95464,96308
95461,96293
95411,96259
95431,96271
95370,96285
95448,96282
95457,96299
95438,96276
95450,96300
95411,96280
95486,96290
95524,96334
95456,96300
95477,96310
95471,96289
95552,96334
95533,96376
95566,96343
95521,96353
95562,96313
95610,96351
95630,96404
95652,96369
95611,96374
95620,96328
95690,96409
95688,96432
95685,96453
95666,96394
95750,96444
95756,96428
95800,96474
95810,96426
95785,96450
95833,96462
95863,96504
95905,96529
95923,96495
95944,96512
95943,96475
96008,96538
96021,96568
96062,96557
95999,96553
96071,96578
96130,96611
96122,96594
96114,96632
96104,96545
96156,96615
96230,96644
96246,96653
96214,96629
96228,96608
96219,96659
96262,96691
96331,96702
96282,96689
96326,96685
96324,96654
96407,96721
96394,96721
96381,96680
96410,96701
96408,96738
96443,96781
96480,96707
96486,96763
96461,96726
96482,96742
96531,96778
96572,96817
96567,96748
96552,96756
96609,96813
96633,96851
96629,96788
96629,96827
96589,96772
96653,96812
96712,96834
96692,96860
96743,96856
96711,96845
96721,96833
96782,96901
96780,96854
96812,96896
96792,96848
96809,96897
96858,96893
96880,96906
96881,96886
96864,96905
96908,96955
96926,96953
96972,96924
96950,96970
96927,96920
96954,96930
97035,96973
97006,97003
97006,96978
96988,96965
97055,96995
97106,96996
97067,97028
97087,97016
97051,96995
97092,97031
97132,97028
97129,97065
97167,97009
97145,97033
97176,97037
97226,97087
97223,97034
97218,97055
97222,97039
97278,97070
97330,97116
97282,97090
97310,97119
97313,97083
97362,97144
97398,97154
97372,97145
97386,97141
97399,97113
97453,97191
97496,97184
97487,97205
97479,97180
97464,97163
97520,97192
97510,97196
97526,97183
97473,97159
97371,97111
97375,97126
97352,97101
97254,97028
97139,96988
97029,96923
97002,96926
96919,96863
96844,96825
96761,96813
96603,96699
96546,96723
96478,96677
96390,96611
96273,96576
96162,96539
96149,96500
96108,96509
95973,96430
95895,96409
95789,96370
95769,96345
95723,96333
95661,96253
95585,96247
95545,96233
95512,96230
95497,96263
95432,96169
95420,96174
95370,96187
95398,96195
95367,96184
95361,96196
95326,96157
95296,96133
95356,96200
95373,96183
95377,96221
95347,96194
95361,96171
95363,96191
95443,96220
95391,96201
95410,96213
95402,96194
95438,96237
95469,96245
95435,96267
95461,96222
95463,96248
95475,96267
95531,96259
95521,96311
95515,96260
95517,96242
95556,96308
95569,96268
95605,96326
95572,96291
95587,96288
95657,96318
95643,96374
95689,96356
95678,96340
95690,96327
95713,96407
95775,96391
95755,96366
95759,96368
95757,96376
95813,96414
95815,96430
95815,96403
95806,96394
95809,96388
95854,96448
95848,96407
95875,96454
95847,96421
95845,96423
95881,96412
95936,96448
95858,96421
95847,96419
95844,96463
95892,96445
95916,96449
95861,96461
95850,96434
95872,96434
95904,96468
95884,96419
95884,96477
95883,96434
95879,96444
95941,96459
95928,96481
95959,96449
95922,96451
95916,96484
95948,96469
95987,96499
95968,96474
95972,96467
95967,96503
96022,96484
96073,96523
96022,96498
96002,96493
96079,96527
96056,96534
96126,96538
96088,96531
96119,96551
96135,96544
96179,96608
96147,96559
96168,96616
96182,96577
96211,96575
96258,96615
96295,96601
96263,96637
96275,96588
96298,96645
96368,96668
96409,96639
96340,96661
96345,96637
96426,96648
96455,96696
96445,96701
96461,96680
96451,96710
96483,96743
96557,96728
96579,96774
96573,96744
96511,96739
96595,96751
96632,96788
96686,96783
96655,96775
96644,96804
96700,96806
96740,96811
96734,96801
96743,96858
96713,96796
96797,96867
96847,96876
96845,96872
96801,96871
96810,96827
96850,96911
96880,96885
96880,96908
96889,96873
96891,96875
96861,96898
96939,96927
96933,96944
96932,96892
96904,96873
96913,96914
96997,96939
96944,96966
96955,96937
96949,96915
96995,96944
97044,96967
97001,96944
97025,96943
97003,96922
97061,96962
97077,96978
97096,96972
97071,96981
97049,96947
97114,96987
97116,97004
97137,97010
97151,96995
97105,96972
97144,97019
97156,97026
97166,97028
97193,97039
97136,96983
97206,97036
97194,97026
97223,97034
97159,97020
97191,97034
97242,97043
97284,97056
97216,97018
97282,97058
97180,97029
97292,97052
97303,97057
97255,97070
97300,97085
97270,97036
97302,97060
97345,97095
97323,97101
97347,97077
97288,97051
97368,97113
97345,97105
97406,97106
97381,97104
97394,97100
97443,97134
97446,97093
97419,97151
97437,97138
97427,97107
97490,97159
97538,97168
97498,97141
97490,97186
97480,97131
97565,97149
97624,97220
97548,97220
97569,97199
97567,97180
97660,97199
97652,97234
97610,97174
97603,97216
97552,97185
97586,97186
97504,97160
97417,97065
97306,97061
97237,97006
97212,96964
97108,96977
96991,96862
96869,96815
96788,96783
96683,96753
96649,96717
96504,96633
96398,96619
96343,96565
96264,96517
96187,96522
96065,96480
95969,96391
95856,96336
95862,96359
95752,96323
95692,96242
95609,96234
95513,96193
95487,96174
95459,96171
95342,96158
95312,96121
95262,96071
95272,96126
95244,96064
95202,96092
95170,96031
95112,96033
95194,96041
95186,96075
95139,96053
95155,96024
95134,96076
95189,96058
95154,96058
95178,96047
95138,96060
95129,96019
95179,96114
95185,96089
95180,96088
95158,96066
95174,96058
95244,96103
95207,96096
95215,96092
95158,96072
95208,96085
95202,96081
95230,96107
95200,96128
95204,96081
95226,96088
95240,96110
95246,96104
95272,96124
95218,96098
95273,96119
95308,96145
95323,96152
95293,96163
95310,96103
95369,96172
95402,96155
95404,96161
95417,96206
95389,96130
95428,96199
95457,96181
95509,96242
95439,96200
95395,96172
95476,96239
95530,96244
95500,96265
95507,96219
95487,96213
95501,96210
95562,96244
95522,96244
95535,96276
95474,96219
95540,96259
95542,96246
95550,96276
95571,96260
95490,96257
95542,96230
95575,96232
95561,96258
95549,96271
95520,96203
95597,96293
95597,96248
95577,96277
95599,96259
95538,96241
95630,96275
95605,96278
95657,96283
95639,96257
95641,96258
95635,96296
95713,96337
95735,96340
95700,96327
95695,96303
95739,96344
95803,96353
95804,96384
95781,96325
95793,96329
95817,96397
95872,96399
95842,96404
95883,96392
95801,96386
95892,96389
95911,96404
95916,96408
95938,96433
95894,96395
95972,96414
95977,96473
95994,96465
95980,96427
95938,96414
96068,96482
96040,96488
96057,96468
96099,96491
96071,96464
96136,96499
96181,96535
96136,96538
96186,96521
96188,96527
96218,96570
96226,96551
96255,96546
96233,96535
96250,96543
96316,96598
96299,96605
96351,96595
96311,96571
96311,96575
96358,96602
96393,96659
96370,96610
96384,96626
96354,96598
96406,96635
96406,96628
96412,96618
96443,96632
96402,96664
96454,96607
96497,96701
96493,96633
96461,96661
96470,96643
96542,96699
96529,96669
96551,96677
96516,96665
96534,96671
96562,96721
96561,96701
96601,96686
96553,96715
96555,96679
96612,96728
96615,96737
96626,96701
96590,96686
96628,96705
96648,96746
96674,96745
96674,96753
96664,96736
96666,96723
96720,96758
96717,96775
96725,96772
96727,96758
96671,96741
96744,96781
96755,96779
96768,96786
96781,96779
96730,96769
96800,96822
96799,96809
96824,96802
96802,96778
96783,96787
96836,96823
96840,96832
96848,96832
96827,96812
96805,96812
96900,96842
96901,96852
96891,96832
96893,96813
96871,96828
96953,96881
96928,96880
96929,96887
96930,96840
96913,96863
97004,96895
97037,96911
96985,96898
96976,96869
97014,96875
97054,96909
97055,96907
97044,96915
97018,96899
97044,96907
97078,96909
97104,96941
97090,96929
97070,96925
97112,96936
97132,96949
97152,96948
97135,96939
97127,96961
97159,96975
97177,96986
97211,96993
97194,96968
97183,96962
97226,96968
97239,97003
97268,96998
97267,97003
97244,96987
97277,97003
97280,97020
97338,97037
97306,97013
97278,96982
97284,97004
97276,96999
97231,96979
97162,96936
97066,96872
96994,96848
96962,96848
96871,96785
96756,96745
96610,96652
96547,96611
96489,96600
96402,96546
96247,96498
96148,96433
96087,96391
95994,96394
95865,96306
95780,96254
95632,96162
95599,96173
95498,96121
95442,96109
95319,96083
95210,96021
95190,95991
95156,95978
95061,95929
94978,95920
94917,95875
94888,95848
94868,95864
94824,95838
94784,95797
94702,95758
94762,95806
94715,95800
94715,95802
94683,95795
94696,95781
94662,95830
94713,95820
94691,95816
94698,95806
94680,95800
94718,95844
94742,95806
94739,95826
94733,95872
94698,95777
94799,95846
94784,95863
94774,95855
94784,95879
94733,95805
94803,95854
94862,95872
94799,95834
94819,95829
94815,95844
94819,95911
94876,95879
94872,95893
94858,95888
94799,95874
94893,95896
94911,95962
94934,95923
94915,95949
94924,95918
94968,95939
95056,96020
95025,95967
95045,95945
95043,95987
95103,96029
95118,95987
95092,96007
95079,96003
95084,95967
95114,96028
95158,96042
95166,96023
95172,96049
95105,95984
95217,96052
95185,96036
95199,96042
95206,96078
95172,96007
95220,96040
95206,96070
95232,96046
95232,96050
95176,96038
95254,96045
95232,96079
95255,96084
95264,96055
95209,96021
95295,96092
95295,96083
95288,96096
95271,96078
95246,96059
95315,96081
95352,96121
95300,96080
95312,96090
95318,96089
95375,96129
95377,96121
95385,96146
95370,96122
95368,96114
95457,96161
95498,96177
95458,96178
95470,96159
95478,96140
95544,96215
95592,96232
95553,96211
95571,96207
95573,96219
95643,96224
95662,96269
95681,96270
95643,96259
95671,96245
95729,96290
95794,96321
95766,96307
95790,96296
95781,96300
95825,96338
95864,96362
95850,96339
95894,96349
95922,96340
95927,96381
95970,96420
95994,96406
95993,96392
95983,96409
96075,96450
96105,96445
96077,96456
96082,96443
96094,96456
96191,96491
96201,96495
96172,96501
96155,96465
96164,96472
96217,96520
96242,96532
96236,96523
96228,96518
96249,96520
96312,96540
96328,96554
96278,96545
96287,96536
96287,96553
96370,96570
96356,96558
96376,96583
96361,96559
96359,96568
96428,96597
96430,96602
96414,96591
96393,96585
96419,96590
96485,96657
96480,96636
96482,96622
96466,96588
96497,96625
96537,96647
96534,96656
96504,96648
96503,96626
96535,96638
96553,96645
96554,96665
96560,96662
96554,96642
96598,96676
96599,96683
96649,96708
96649,96690
96586,96668
96654,96718
96672,96712
96688,96700
96706,96716
96662,96688
96700,96728
96744,96737
96732,96755
96750,96756
96682,96704
96758,96746
96756,96783
96796,96768
96761,96753
96765,96723
96786,96757
96854,96803
96822,96784
96813,96786
96774,96748
96845,96798
96880,96795
96873,96808
96882,96811
96835,96798
96896,96802
96911,96816
96932,96825
96916,96821
96909,96782
96959,96811
96990,96866
96979,96874
96999,96878
96964,96825
97034,96896
97034,96889
97050,96887
97051,96873
97063,96848
97087,96897
97087,96891
97116,96908
97145,96918
97084,96875
97182,96914
97161,96971
97157,96942
97178,96951
97180,96911
97181,96971
97193,96930
97147,96886
97097,96884
96961,96826
96946,96789
96929,96820
96807,96748
96733,96675
96550,96614
96542,96606
96482,96554
96354,96495
96225,96466
96102,96381
96052,96390
95957,96308
95845,96260
95741,96249
95591,96145
95596,96133
95458,96130
95331,96061
95306,96052
95170,95940
95155,95981
95069,95918
95005,95908
94898,95847
94857,95832
94827,95812
94820,95834
94741,95806
94706,95769
94662,95745
94697,95804
94692,95749
94664,95782
94620,95746
94610,95714
94641,95744
94669,95814
94656,95769
94657,95775
94628,95741
94719,95798
94711,95824
94726,95805
94721,95818
94687,95801
94763,95802
94754,95867
94754,95850
94745,95810
94796,95848
94796,95879
94845,95858
94835,95865
94840,95860
94795,95876
94876,95850
94890,95896
94893,95889
94886,95895
94902,95898
94994,95948
94990,95906
95014,95929
95021,95947
95036,95952
95115,95990
95108,95980
95119,95991
95132,95988
95156,96007
95196,96014
95235,96054
95230,96038
95230,96020
95243,96038
95274,96054
95276,96082
95305,96075
95318,96052
95262,96052
95340,96078
95345,96083
95343,96105
95332,96056
95284,96044
95362,96093
95399,96099
95365,96083
95334,96079
95325,96074
95409,96121
95432,96121
95397,96119
95377,96077
95389,96099
95447,96122
95459,96127
95410,96116
95380,96101
95422,96114
95483,96144
95450,96141
95486,96142
95437,96114
95456,96132
95511,96156
95528,96190
95517,96157
95520,96160
95558,96172
95591,96216
95605,96200
95585,96206
95606,96205
95674,96226
95663,96236
95670,96262
95692,96244
95698,96250
95704,96249
95771,96310
95809,96302
95774,96301
95783,96271
95798,96307
95874,96322
95871,96330
95885,96335
95866,96321
95892,96342
95969,96380
95965,96379
95986,96378
95955,96365
95986,96395
96049,96428
96049,96409
96050,96411
96011,96402
96081,96429
96124,96444
96112,96454
96148,96460
96106,96433
96172,96491
96208,96490
96183,96483
96220,96493
96202,96465
96259,96530
96302,96547
96286,96520
96278,96547
96268,96504
96348,96569
96359,96580
96349,96559
96366,96571
96337,96543
96419,96590
96432,96594
96401,96587
96441,96596
96396,96580
96471,96589
96468,96615
96465,96606
96499,96621
96454,96573
96506,96628
96536,96650
96511,96629
96541,96631
96530,96593
96568,96684
96604,96668
96558,96661
96583,96667
96543,96610
96603,96694
96670,96693
96626,96682
96629,96698
96583,96640
96671,96704
96702,96710
96713,96701
96680,96721
96659,96686
96746,96728
96751,96747
96733,96724
96763,96737
96724,96727
96795,96752
96816,96767
96775,96772
96776,96751
96762,96726
96846,96775
96868,96802
96833,96792
96844,96805
96859,96758
96883,96820
96913,96784
96915,96808
96901,96811
96900,96805
96940,96832
96967,96858
96965,96838
96989,96834
96920,96792
97011,96872
97029,96873
97009,96853
97031,96864
96988,96824
97081,96897
97119,96905
97052,96883
97082,96884
97068,96885
97140,96902
97158,96919
97131,96912
97147,96916
97142,96897
97184,96925
97215,96944
97178,96929
97177,96970
97192,96930
97222,96968
97259,96987
97261,96953
97252,96969
97244,96946
97283,96987
97349,97015
97324,97006
97275,96979
97292,96967
97358,97021
97395,97035
97383,97019
97380,97012
97378,97007
97437,97052
97440,97074
97424,97038
97381,97006
97360,96996
97373,97016
97282,96970
97224,96919
97124,96866
97044,96819
96961,96800
96862,96749
96779,96716
96639,96639
96515,96568
96482,96568
96381,96502
96242,96444
96112,96358
96014,96324
95976,96301
95886,96268
95722,96210
95625,96146
95547,96082
95480,96091
95406,96069
95313,96018
95217,95976
95152,95944
95072,95932
95070,95915
94980,95865
94898,95836
94870,95819
94845,95807
94824,95823
94778,95778
94691,95735
94726,95780
94721,95765
94703,95772
94685,95745
94662,95739
94676,95740
94709,95774
94700,95782
94705,95761
94695,95745
94679,95762
94749,95813
94748,95788
94739,95800
94738,95796
94767,95793
94824,95837
94816,95841
94809,95842
94835,95803
94845,95849
94902,95838
94915,95863
94938,95866
94847,95841
94940,95887
94921,95896
95009,95890
94971,95906
94977,95881
94990,95890
95061,95920
95034,95966
95021,95929
95040,95916
95093,95968
95128,95974
95164,95996
95156,96002
95128,95962
95179,95978
95250,96037
95208,95995
95222,96018
95174,95983
95242,96018
95237,96046
95271,96012
95248,96005
95228,96007
95264,95997
95304,96043
95281,96060
95255,96025
95289,96054
95291,96043
95311,96061
95341,96083
95318,96038
95265,96025
95299,96061
95332,96067
95313,96040
95322,96063
95267,95987
95329,96055
95328,96069
95334,96079
95337,96062
95276,96015
95324,96051
95344,96087
95354,96081
95323,96051
95297,96076
95376,96081
95403,96100
95357,96072
95392,96081
95316,96076
95384,96100
95447,96119
95426,96084
95446,96140
95389,96067
95472,96139
95515,96142
95466,96141
95509,96137
95454,96150
95535,96186
95559,96184
95534,96182
95562,96192
95569,96175
95626,96211
95665,96218
95651,96238
95635,96208
95645,96208
95672,96236
95743,96294
95729,96277
95722,96231
95761,96279
95795,96298
95815,96319
95832,96263
95861,96319
95790,96249
95860,96333
95925,96348
95911,96342
95905,96299
95905,96352
95980,96384
95980,96376
96015,96397
95989,96350
95987,96387
96049,96403
96073,96437
96044,96417
96087,96412
96074,96379
96117,96423
96152,96469
96155,96447
96145,96467
96150,96420
96216,96502
96213,96519
96252,96449
96227,96488
96194,96437
96229,96493
96286,96524
96248,96495
96254,96518
96226,96455
96285,96517
96280,96524
96284,96529
96258,96516
96274,96483
96281,96554
96353,96552
96295,96566
96293,96495
96301,96548
96352,96546
96356,96551
96333,96561
96340,96489
96319,96564
96365,96568
96412,96567
96379,96591
96333,96512
96386,96570
96447,96585
96430,96576
96415,96609
96385,96553
96441,96585
96478,96611
96464,96595
96479,96611
96442,96568
96432,96595
96507,96628
96490,96634
96492,96610
96495,96639
96520,96576
96558,96672
96553,96636
96578,96648
96565,96649
96526,96606
96613,96673
96634,96702
96596,96659
96601,96636
96637,96692
96636,96697
96703,96724
96680,96720
96683,96665
96673,96710
96711,96739
96743,96737
96724,96720
96701,96713
96758,96725
96801,96769
96797,96742
96840,96762
96757,96766
96823,96739
96854,96798
96874,96791
96899,96777
96863,96786
96895,96774
96942,96848
96925,96826
96961,96828
96940,96805
96965,96814
97038,96871
97047,96877
97022,96864
97030,96835
97122,96884
97123,96921
97148,96901
97107,96916
97100,96887
97163,96916
97189,96935
97163,96879
97159,96891
97027,96861
97033,96833
96988,96812
96893,96756
96819,96723
96667,96662
96641,96605
96569,96584
96456,96554
96365,96462
96217,96446
96184,96378
96092,96362
95954,96337
95886,96249
95774,96185
95681,96151
95653,96180
95528,96135
95445,96039
95343,96019
95338,95995
95246,95994
95198,95979
95094,95893
95062,95823
95034,95864
95004,95851
94922,95851
94903,95791
94835,95793
94851,95759
94872,95804
94866,95786
94812,95807
94754,95718
94816,95810
94825,95805
94855,95815
94858,95772
94814,95817
94899,95817
94935,95849
94920,95849
94917,95841
94897,95836
94986,95875
95006,95896
94986,95898
95039,95883
95013,95881
95036,95875
95113,95943
95124,95918
95135,95960
95055,95911
95145,95971
95189,95976
95165,95944
95205,95972
95119,95968
95240,96006
95261,96029
95282,96013
95257,96017
95253,95969
95301,96051
95390,96077
95359,96054
95375,96072
95402,96059
95468,96072
95478,96106
95450,96126
95495,96100
95459,96130
95550,96155
95557,96150
95579,96156
95555,96149
95531,96119
95587,96171
95639,96165
95596,96167
95609,96119
95606,96183
95645,96190
95675,96184
95613,96165
95659,96138
95603,96187
95701,96198
95669,96237
95688,96203
95664,96190
95678,96177
95730,96209
95742,96223
95721,96202
95708,96228
95707,96179
95728,96219
95764,96246
95736,96203
95742,96182
95766,96254
95812,96219
95798,96273
95773,96243
95801,96218
95782,96260
95883,96290
95882,96292
95840,96262
95913,96285
95849,96300
95965,96322
95966,96334
95991,96352
95955,96321
95968,96299
96022,96336
96047,96374
96066,96376
96072,96354
96034,96367
96103,96398
96146,96415
96155,96430
96127,96419
96175,96408
96207,96439
96239,96459
96243,96454
96211,96411
96271,96464
96312,96494
96358,96512
96347,96510
96320,96478
96386,96520
96405,96537
96465,96547
96439,96540
96435,96539
96463,96551
96510,96604
96511,96596
96530,96578
96475,96589
96528,96598
96567,96590
96590,96647
96571,96607
96591,96577
96569,96644
96617,96662
96664,96675
96643,96644
96656,96623
96654,96680
96713,96683
96740,96673
96703,96650
96703,96636
96699,96705
96748,96697
96790,96720
96770,96691
96729,96673
96803,96720
96825,96727
96803,96713
96827,96723
96797,96724
96824,96705
96847,96753
96874,96767
96828,96717
96825,96698
96847,96766
96904,96788
96900,96769
96918,96770
96883,96756
96945,96732
96993,96813
96974,96796
96944,96796
96935,96732
96962,96816
97014,96817
97029,96829
97009,96793
96991,96773
97030,96862
97071,96850
97083,96836
97099,96850
97067,96828
97087,96837
97128,96897
97143,96861
97110,96846
97112,96813
97148,96889
97168,96872
97184,96912
97144,96883
97167,96823
97162,96924
97190,96931
97208,96893
97218,96908
97149,96844
97277,96950
97271,96944
97300,96927
97285,96935
97275,96886
97281,96957
97357,96950
97318,96963
97366,96972
97324,96963
97366,96973
97431,96992
97415,96998
97412,96994
97421,96968
97454,97010
97482,97026
97497,97030
97479,97017
97462,97005
97494,97036
97501,97030
97458,96993
97350,96956
97304,96869
97237,96916
97180,96883
97112,96806
96948,96799
96835,96658
96783,96681
96714,96639
96589,96558
96460,96505
96361,96430
96333,96483
96208,96414
96145,96347
96022,96280
95935,96257
95890,96186
95843,96192
95727,96151
95612,96107
95545,96027
95504,96089
95466,96044
95428,96009
95297,95974
95266,95891
95260,95956
95243,95943
95158,95898
95158,95865
95095,95887
95132,95879
95136,95870
95074,95876
95087,95865
95044,95822
95062,95918
95100,95905
95110,95890
95049,95898
95069,95834
95108,95939
95144,95915
95170,95918
95135,95922
95132,95894
95206,95951
95200,95972
95206,95976
95206,95933
95201,95969
95237,95960
95283,95999
95262,95967
95261,95951
95228,95975
95326,96017
95314,96004
95322,96014
95318,95989
95317,95979
95372,96042
95386,96061
95383,96069
95403,96018
95418,96080
95449,96050
95514,96111
95495,96092
95484,96101
95504,96067
95529,96144
95567,96147
95601,96127
95541,96116
95583,96129
95614,96118
95613,96145
95586,96143
95583,96109
95594,96154
95645,96184
95611,96156
95630,96139
95551,96140
95589,96095
95636,96152
95635,96173
95624,96143
95596,96112
95599,96152
95650,96145
95632,96143
95596,96158
95561,96105
95644,96143
95622,96134
95647,96154
95627,96140
95596,96162
95602,96096
95612,96166
95660,96159
95627,96173
95645,96105
95641,96169
95681,96211
95706,96184
95679,96194
95639,96147
95697,96209
95736,96207
95730,96204
95741,96218
95694,96175
95803,96233
95796,96239
95816,96249
95804,96220
95839,96213
95853,96286
95882,96289
95894,96275
95942,96274
95913,96305
95949,96277
96023,96335
96039,96336
95996,96337
96004,96293
96025,96381
96122,96390
96084,96361
96127,96399
96065,96372
96183,96426
96191,96410
96206,96438
96196,96438
96143,96401
96193,96445
96284,96474
96271,96440
96237,96447
96240,96419
96294,96488
96334,96480
96329,96507
96360,96507
96302,96462
96371,96481
96396,96507
96412,96525
96412,96487
96397,96506
96406,96505
96442,96557
96471,96532
96455,96541
96438,96506
96476,96545
96541,96571
96536,96566
96534,96580
96479,96539
96551,96578
96601,96614
96608,96594
96587,96581
96544,96564
96631,96628
96634,96640
96599,96606
96634,96631
96577,96594
96659,96630
96680,96655
96630,96621
96666,96652
96644,96615
96666,96628
96712,96680
96719,96645
96686,96662
96678,96647
96747,96655
96765,96703
96744,96706
96752,96678
96719,96665
96800,96723
96788,96703
96832,96702
96788,96679
96795,96643
96819,96692
96871,96717
96860,96747
96845,96689
96821,96669
96872,96734
96904,96740
96855,96750
96910,96729
96868,96710
