11111,11111
0,0
82288,81864
113648,104702
113709,104733
113743,104698
113761,104746
113842,104737
113854,104772
113910,104822
113914,104805
113980,104834
113969,104817
114015,104833
114045,104869
114057,104848
114068,104887
114080,104829
114085,104875
114068,104857
114115,104862
114124,104895
114075,104866
114057,104854
114035,104860
114039,104813
114038,104823
113980,104789
113910,104810
113910,104765
113905,104770
113855,104766
113838,104743
113824,104699
113800,104724
113807,104688
113768,104728
113758,104681
113778,104688
113745,104679
113789,104682
113783,104726
113796,104679
113800,104727
113833,104684
113863,104716
113832,104735
113882,104729
113893,104787
113938,104724
113977,104784
113975,104809
114007,104832
114011,104818
114097,104814
114122,104854
114116,104843
114126,104863
114119,104906
114218,104872
114230,104917
114236,104881
114251,104924
114262,104961
114334,104935
114354,104936
114344,104948
114400,104998
114347,104993
114449,104987
114424,105006
114480,105023
114412,105011
114456,104999
114532,105036
114493,105024
114509,105085
114527,105060
114514,105042
114591,105069
114591,105083
114578,105080
114584,105056
114607,105117
114612,105054
114654,105100
114636,105103
114630,105139
114646,105141
114587,105104
114631,105141
114595,105101
114594,105148
114631,105114
114640,105127
114669,105144
114667,105153
114694,105166
114698,105187
114741,105138
114749,105171
114701,105154
114730,105196
114710,105208
114756,105177
114799,105201
114757,105212
114740,105180
114811,105236
114799,105225
114810,105243
114797,105194
114812,105211
114815,105202
114880,105245
114815,105236
114837,105250
114839,105239
114848,105255
114859,105214
114908,105234
114853,105249
114867,105233
114893,105288
114937,105264
114899,105247
114105,104820
112090,103926
112100,103907
112930,104299
112911,104296
112940,104302
113829,104741
113792,104734
113834,104765
113839,104761
113781,104694
113744,104690
113740,104659
113712,104702
113714,104669
113718,104672
113686,104658
113730,104679
113699,104681
113714,104673
113753,104723
113754,104675
113785,104703
113798,104697
113831,104718
113816,104721
113873,104769
113851,104754
113952,104769
113953,104775
113990,104810
113965,104832
114010,104800
114049,104856
114049,104843
114125,104860
114163,104859
114124,104922
114194,104875
114230,104918
114227,104924
114255,104940
114273,104899
114260,104970
114284,104946
114343,104954
114326,105003
114346,104960
114379,104974
114361,104977
114381,104954
114365,104990
114432,105003
114442,104987
114413,104991
114430,105016
114463,104998
114469,105018
114433,105005
114492,105018
114464,105054
114507,105020
114492,105009
114478,105035
114530,104998
114542,105042
114546,105053
114558,105070
114604,105059
114567,105092
114587,105041
114605,105103
114633,105057
114619,105072
114658,105096
114662,105104
114641,105113
114683,105103
114687,105082
114689,105109
114676,105146
114715,105117
114770,105138
114750,105153
114763,105160
114786,105188
114760,105162
114797,105150
114781,105196
114812,105183
114809,105216
114821,105166
114846,105208
114828,105185
114854,105221
114851,105220
114837,105199
114855,105226
114907,105228
114858,105208
114884,105251
114880,105228
114916,105197
114875,105224
114912,105250
114947,105214
114938,105275
114952,105246
114929,105245
114985,105268
114994,105264
114964,105279
114949,105248
115018,105274
115009,105307
115017,105271
114991,105254
115035,105289
114999,105267
115027,105282
115023,105286
115039,105285
115047,105302
115070,105295
115080,105332
115077,105326
115098,105311
115082,105310
115124,105323
115132,105361
115105,105321
115131,105338
115137,105340
115110,105371
115083,105325
115100,105325
115027,105316
115022,105281
114929,105225
114874,105224
114749,105184
114573,105063
114366,104949
114109,104848
113872,104752
113678,104646
113294,104479
113121,104348
112886,104262
112735,104191
112563,104139
112422,104025
112368,104029
112236,103982
112163,103941
112202,103955
112094,103929
112108,103902
112132,103948
112081,103915
112108,103952
112142,103963
112092,103935
112159,103957
112123,103950
112165,103968
112186,103991
112240,103984
112248,103975
112280,104010
112274,104012
112334,104024
112388,104094
112384,104088
112418,104112
112474,104092
112485,104153
112538,104142
112566,104156
112556,104142
112647,104181
112605,104190
112668,104189
112707,104212
112721,104226
112739,104239
112798,104247
112788,104306
112830,104255
112818,104308
112868,104321
112904,104276
112960,104342
112937,104320
113036,104363
113024,104359
113057,104417
113080,104401
113127,104395
113138,104407
113242,104460
113249,104463
113269,104474
113358,104513
113381,104567
113404,104544
113503,104601
113522,104601
113565,104635
113608,104634
113620,104677
113695,104657
113694,104718
113733,104688
113733,104725
113735,104729
113782,104704
113795,104755
113779,104710
113798,104746
113785,104749
113800,104738
113767,104706
113804,104770
113726,104708
113731,104719
113711,104710
113732,104706
113684,104682
113679,104715
113644,104649
113622,104671
113636,104674
113623,104641
113625,104648
113541,104639
113614,104650
113589,104621
113601,104643
113576,104608
113600,104665
113591,104631
113619,104663
113595,104671
113636,104655
113666,104704
113660,104643
113724,104723
113709,104681
113725,104739
113782,104704
113788,104730
113808,104774
113809,104739
113898,104785
113869,104814
113927,104824
113959,104817
113967,104867
113980,104841
114042,104890
114055,104902
114104,104874
114113,104921
114107,104937
114204,104941
114183,104953
114195,104954
114259,104976
114253,104989
114282,104972
114296,104984
114316,105023
114348,104989
114360,105015
114371,105038
114379,105034
114448,105011
114428,105057
114450,105042
114482,105045
114511,105068
114480,105059
114549,105107
114527,105128
114564,105104
114562,105119
114562,105099
114592,105142
114578,105127
114628,105133
114640,105138
114596,105147
114664,105134
114647,105174
114681,105138
114684,105153
114718,105165
114686,105195
114725,105200
114696,105144
114760,105187
114732,105202
114744,105211
114784,105215
114774,105168
114792,105198
114780,105218
114834,105233
114822,105227
114837,105235
114806,105223
114869,105226
114839,105257
114873,105250
114869,105277
114852,105269
114890,105252
114926,105291
114892,105282
114912,105275
114903,105281
114935,105286
114936,105303
114955,105273
114947,105337
114969,105265
115002,105307
114973,105333
114979,105273
115027,105364
114994,105321
115036,105318
115017,105330
115062,105350
115110,105366
115086,105367
115064,105322
115111,105375
115091,105359
115076,105351
115113,105373
115094,105346
115128,105345
115135,105377
115117,105326
115158,105362
115131,105384
115113,105366
115171,105326
115158,105390
115208,105385
115178,105390
115169,105402
115201,105379
115197,105398
115214,105378
115244,105405
115254,105400
115235,105421
115267,105410
115238,105413
115242,105423
115244,105413
115220,105415
115225,105421
115192,105390
115195,105371
115140,105335
115079,105298
114986,105270
114855,105221
114672,105108
114423,105006
114171,104904
113984,104791
113774,104697
113650,104631
113466,104569
113365,104515
113213,104410
113013,104335
112858,104263
112722,104199
112559,104117
112483,104063
112426,104061
112347,104023
112336,104023
112276,103999
112281,104022
112297,103989
112256,103996
112287,104018
112324,104009
112329,104018
112299,104031
112373,104056
112371,104047
112427,104100
112428,104082
112496,104110
112525,104139
112524,104161
112598,104160
112605,104161
112660,104193
112689,104215
112734,104201
112807,104259
112804,104237
112871,104293
112903,104304
112973,104350
112956,104323
113003,104397
113053,104380
113095,104384
113127,104448
113115,104415
113153,104467
113173,104444
113241,104474
113257,104517
113304,104476
113303,104512
113353,104539
113367,104509
113386,104559
113437,104562
113442,104546
113451,104582
113510,104623
113527,104626
113571,104640
113629,104682
113653,104687
113677,104699
113729,104693
113798,104752
113814,104760
113864,104773
113909,104779
113950,104834
113936,104801
113974,104843
114009,104862
114020,104874
114091,104896
114041,104847
114086,104888
114107,104872
114108,104874
114123,104923
114080,104863
114129,104903
114112,104879
114075,104865
114098,104865
114063,104904
114049,104838
114016,104834
113978,104839
113979,104804
113968,104833
113984,104831
113975,104801
113937,104813
113939,104791
113957,104815
113920,104783
113943,104816
113932,104794
113961,104787
113986,104822
113975,104852
113986,104844
113984,104820
114023,104853
114017,104822
114090,104882
114069,104902
114105,104911
114093,104905
114118,104894
114170,104897
114227,104968
114225,104917
114277,104941
114294,104957
114335,104973
114345,105025
114359,104970
114422,105026
114404,105043
114434,105045
114459,105048
114461,105053
114464,105076
114532,105046
114542,105067
114543,105099
114560,105095
114607,105129
114561,105104
114628,105134
114635,105120
114660,105149
114683,105193
114698,105145
114701,105198
114686,105150
114758,105187
114715,105189
114747,105227
114755,105198
114790,105210
114785,105211
114781,105199
114787,105235
114799,105237
114863,105245
114827,105223
114860,105235
114863,105232
114882,105247
114883,105269
114867,105254
114942,105272
114921,105303
114967,105269
114944,105322
114951,105282
114956,105275
114975,105334
115006,105297
114986,105313
115008,105340
115027,105305
115005,105361
115028,105299
115068,105348
115066,105361
115059,105334
115075,105311
115086,105353
115062,105359
115105,105367
115085,105385
115083,105383
115093,105359
115131,105388
115149,105362
115151,105405
115141,105384
115142,105374
115174,105408
115151,105385
115178,105392
115169,105400
115165,105397
115215,105419
115195,105392
115229,105410
115224,105439
115233,105432
115258,105433
115242,105409
115249,105458
115254,105426
115260,105478
115262,105423
115283,105441
115306,105475
115318,105473
115295,105435
115327,105517
115320,105454
115353,105470
115307,105511
115315,105492
115361,105497
115323,105524
115347,105492
115336,105512
115363,105508
115404,105536
115349,105496
115349,105495
115364,105519
115343,105510
115316,105481
115264,105463
115203,105410
115112,105406
115002,105289
114816,105245
114541,105119
114358,105017
114111,104877
113922,104804
113754,104725
113601,104638
113375,104555
113194,104490
112980,104366
112851,104271
112635,104241
112525,104164
112469,104101
112355,104116
112317,104018
112290,104061
112210,104012
112208,104044
112166,104023
112145,104007
112162,104005
112164,104035
112154,104005
112149,104033
112165,104023
112131,104041
112156,104069
112202,104043
112203,104068
112276,104095
112274,104078
112275,104079
112320,104110
112328,104134
112344,104118
112383,104120
112417,104151
112404,104163
112459,104140
112451,104230
112497,104186
112526,104201
112539,104200
112563,104217
112638,104254
112600,104261
112648,104248
112646,104282
112699,104286
112685,104288
112719,104296
112728,104340
112773,104332
112760,104328
112834,104310
112834,104359
112838,104392
112883,104351
112896,104403
112936,104397
112970,104447
112997,104419
113022,104487
113065,104478
113155,104528
113176,104522
113235,104559
113236,104549
113322,104576
113298,104634
113341,104607
113406,104644
113431,104671
113464,104671
113480,104679
113508,104682
113507,104688
113549,104687
113494,104688
113514,104733
113486,104702
113538,104673
113483,104685
113486,104682
113442,104681
113391,104662
113401,104613
113383,104655
113350,104593
113308,104597
113325,104610
113234,104567
113258,104562
113170,104543
113204,104501
113184,104532
113149,104518
113183,104507
113133,104496
113184,104510
113156,104502
113159,104494
113121,104502
113168,104489
113165,104558
113162,104516
113243,104539
113190,104521
113265,104554
113225,104556
113289,104557
113309,104619
113339,104611
113322,104637
113362,104640
113388,104618
113461,104675
113441,104657
113450,104703
113496,104684
113522,104707
113561,104737
113588,104753
113659,104744
113643,104782
113651,104762
113747,104804
113730,104819
113750,104840
113792,104817
113821,104838
113849,104902
113891,104892
113903,104889
113902,104878
113957,104881
113996,104904
114003,104914
114065,104948
114072,104936
114102,104992
114090,104954
114093,105000
114147,105005
114170,105039
114187,104988
114247,105068
114224,105007
114259,105067
114247,105055
114314,105053
114337,105072
114355,105108
114325,105111
114367,105131
114388,105115
114425,105114
114425,105136
114419,105115
114442,105158
114481,105154
114451,105153
114505,105174
114497,105186
114526,105150
114550,105198
114535,105163
114563,105194
114592,105196
114601,105176
114623,105254
114593,105173
114633,105192
114662,105211
114628,105237
114644,105205
114656,105257
114659,105240
114705,105234
114696,105228
114704,105231
114702,105229
114765,105242
114706,105296
114777,105263
114778,105265
114794,105284
114793,105265
114827,105297
114806,105285
114802,105283
114857,105294
114840,105285
114864,105343
114883,105313
114877,105340
114866,105324
114858,105360
114907,105348
114902,105342
114922,105340
114903,105327
114933,105337
114944,105357
114971,105364
114969,105367
114989,105375
114933,105361
114986,105375
115009,105357
114992,105369
115003,105376
114994,105363
114998,105379
115028,105375
115043,105407
115028,105384
115043,105371
115047,105389
115015,105383
115050,105375
115035,105399
115031,105370
115067,105370
114978,105372
114992,105346
114941,105329
114846,105280
114782,105219
114578,105167
114373,105044
114179,104974
113884,104821
113717,104714
113482,104615
113302,104540
113084,104416
112840,104330
112632,104189
112431,104122
112340,104072
112214,104020
112092,104000
112020,103933
111922,103936
111876,103916
111805,103864
111778,103822
111748,103860
111717,103816
111663,103816
111656,103815
111624,103795
111578,103785
111610,103784
111588,103764
111575,103777
111598,103788
111610,103793
111603,103783
111595,103798
111635,103796
111637,103793
111643,103815
111669,103799
111655,103793
111684,103815
111717,103829
111694,103827
111745,103841
111756,103858
111750,103872
111793,103853
111798,103857
111835,103878
111814,103886
111878,103913
111864,103896
111929,103923
111927,103947
111914,103952
111985,103944
111972,103954
111995,103954
112036,103987
112021,103978
112066,103985
112102,103981
112090,103983
112144,104040
112121,104006
112162,104046
112213,104054
112218,104093
112262,104064
112334,104090
112324,104081
112369,104115
112433,104158
112458,104173
112515,104177
112539,104214
112547,104208
112626,104232
112647,104241
112670,104260
112707,104274
112742,104302
112726,104255
112758,104306
112736,104310
112799,104329
112737,104336
112769,104279
112767,104301
112729,104300
112740,104319
112690,104267
112745,104292
112699,104264
112650,104239
112660,104244
112624,104225
112568,104234
112527,104195
112568,104216
112527,104176
112503,104154
112507,104208
112493,104181
112490,104162
112499,104189
112491,104199
112481,104154
112520,104163
112515,104196
112562,104201
112543,104199
112610,104199
112590,104217
112651,104226
112610,104211
112680,104236
112685,104290
112716,104290
112781,104317
112783,104317
112820,104302
112869,104379
112905,104376
112956,104369
112988,104366
113040,104402
113047,104398
113083,104441
113162,104451
113160,104488
113157,104477
113243,104524
113261,104531
113296,104548
113290,104590
113330,104545
113392,104631
113406,104613
113446,104619
113489,104629
113544,104683
113531,104618
113584,104697
113607,104732
113595,104702
113634,104700
113646,104752
113690,104741
113721,104739
113725,104773
113774,104812
113757,104756
113820,104765
113828,104802
113844,104825
113865,104804
113919,104858
113936,104861
113959,104877
113949,104877
114015,104894
114006,104866
114046,104921
114034,104929
114085,104891
114102,104944
114116,104960
114123,104943
114179,104952
114147,104976
114176,104950
114179,104999
114215,104969
114229,104993
114246,105006
114304,105004
114237,104974
114291,105013
114275,104997
114343,105014
114337,105052
114344,105020
114374,105043
114392,105086
114379,105078
114409,105040
114410,105088
114420,105106
114472,105057
114467,105098
114466,105131
114479,105078
114532,105110
114506,105141
114516,105134
114540,105106
114558,105120
114587,105123
114532,105152
114590,105152
114617,105121
114584,105192
114590,105155
114632,105168
114620,105181
114616,105166
114635,105213
114620,105176
114659,105198
114673,105218
114700,105183
114660,105193
114733,105191
114676,105243
114683,105227
114741,105211
114741,105236
114707,105227
114772,105225
114753,105241
114752,105233
114790,105261
114819,105248
114783,105215
114827,105269
114803,105273
114805,105242
114791,105263
114792,105224
114765,105207
114770,105257
114665,105178
114573,105133
114482,105095
114297,104984
114082,104894
113851,104789
113665,104663
113434,104574
113241,104493
113072,104419
112897,104317
112699,104236
112475,104112
112333,104053
112157,103982
112042,103944
112009,103921
111933,103873
111848,103874
111803,103849
111766,103833
111771,103806
111698,103806
111709,103782
111678,103806
111720,103791
111691,103813
111704,103818
111676,103807
111723,103804
111725,103822
111768,103834
111769,103833
111787,103889
111799,103844
111876,103894
111891,103898
111943,103892
111986,103942
111965,103955
112017,103960
112075,103983
112087,103990
112154,104015
112150,104022
112228,104027
112229,104088
112227,104033
112302,104100
112313,104069
112308,104096
112370,104095
112346,104113
112404,104126
112396,104158
112454,104189
112484,104175
112465,104172
112541,104202
112520,104216
112566,104231
112593,104240
112606,104226
112673,104248
112664,104288
112721,104326
112748,104300
112831,104322
112828,104339
112884,104399
112902,104365
112997,104418
112991,104425
113019,104417
113074,104479
113098,104473
113100,104483
113140,104545
113133,104509
113181,104470
113167,104492
113165,104514
113145,104483
113194,104491
113119,104489
113105,104490
113107,104492
113113,104477
113045,104473
113016,104401
112966,104426
112958,104394
112933,104387
112889,104381
112843,104335
112827,104352
112795,104306
112742,104273
112745,104292
112738,104270
112660,104288
112641,104249
112669,104259
112660,104254
112656,104264
112633,104242
112640,104223
112628,104269
112659,104241
112691,104270
112663,104269
112715,104269
112666,104312
112695,104275
112744,104301
112749,104310
112770,104332
112769,104328
112845,104344
112822,104378
112872,104346
112870,104360
112943,104402
112932,104412
112939,104421
112957,104404
113003,104433
112988,104417
113064,104435
113047,104500
113049,104469
113138,104462
113125,104504
113169,104517
113182,104500
113213,104546
113164,104532
113251,104568
113235,104541
113264,104573
113255,104556
113297,104584
113332,104585
113312,104572
113326,104589
113345,104582
113362,104599
113331,104595
113409,104611
113380,104668
113385,104631
113433,104667
113450,104680
113428,104640
113464,104662
113442,104683
113490,104664
113487,104672
113510,104689
113520,104703
113524,104705
113481,104675
113521,104715
113505,104708
113542,104686
113503,104711
113563,104727
113521,104748
113572,104723
113562,104729
113544,104720
113596,104741
113577,104727
113590,104724
113596,104768
113578,104735
113641,104780
113577,104753
113602,104730
113594,104784
113631,104741
113624,104762
113653,104763
113636,104804
113661,104781
113660,104799
113651,104777
113681,104798
113680,104785
113680,104829
113692,104793
113702,104785
113702,104804
113726,104790
113722,104811
113766,104820
113726,104845
113754,104813
113753,104819
113738,104819
113729,104802
113683,104810
113658,104751
113581,104735
113475,104663
113341,104626
113208,104524
113005,104480
112858,104389
112626,104254
112426,104158
112184,104075
112010,103968
111811,103891
111644,103820
111511,103772
111398,103708
111276,103658
111159,103617
111097,103601
110991,103535
110901,103525
110850,103468
110734,103454
110704,103418
110637,103396
110598,103385
110557,103357
110501,103351
110491,103323
110459,103332
110410,103288
110410,103286
110370,103286
110345,103284
110345,103271
110370,103269
110297,103256
110291,103217
110315,103255
110311,103232
110310,103221
110323,103236
110287,103228
110281,103251
110282,103204
110346,103239
110319,103227
110328,103238
110308,103251
110306,103228
110338,103224
110333,103239
110326,103206
110340,103255
110315,103231
110369,103225
110358,103230
110352,103240
110319,103248
110349,103206
110366,103252
110377,103235
110373,103215
110391,103242
110402,103224
110358,103227
110404,103269
110406,103247
110450,103264
110434,103281
110499,103277
110523,103284
110494,103301
110579,103297
110562,103336
110602,103303
110628,103345
110675,103332
110663,103365
110715,103338
110704,103401
110716,103370
110755,103401
110728,103363
110780,103379
110743,103392
110749,103400
110779,103393
110709,103376
110750,103401
110724,103378
110701,103356
110684,103342
110656,103306
110674,103319
110613,103322
110564,103298
110614,103290
110524,103300
110505,103236
110538,103307
110498,103262
110481,103240
110501,103259
110456,103260
110444,103271
110426,103249
110432,103213
110451,103244
110420,103239
110475,103223
110482,103244
110451,103252
110456,103210
110462,103235
110502,103237
110471,103265
110508,103267
110529,103241
110559,103289
110542,103237
110572,103298
110572,103288
110576,103284
110611,103299
110599,103297
110672,103329
110632,103345
110679,103330
110678,103328
110731,103351
110730,103362
110723,103322
110771,103393
110776,103343
110766,103386
110773,103385
110880,103394
110824,103400
110844,103418
110869,103421
110880,103415
110912,103424
110952,103397
110960,103440
110942,103426
111012,103475
110999,103443
111019,103448
111068,103471
111052,103470
111086,103509
111095,103506
111156,103525
111158,103526
111136,103516
111189,103518
111194,103558
111224,103535
111244,103564
111265,103559
111290,103600
111288,103568
111364,103631
111351,103613
111392,103606
111419,103651
111395,103655
111464,103650
111478,103679
111465,103681
111473,103688
111507,103686
111552,103722
111542,103748
111588,103707
111594,103755
111596,103772
111631,103769
111605,103722
111658,103783
111654,103769
111688,103816
111672,103797
111715,103778
111710,103812
111748,103785
111809,103847
111808,103835
111844,103837
111814,103855
111855,103851
111836,103859
111878,103858
111942,103906
111959,103915
111954,103896
111951,103917
111998,103900
112017,103939
112035,103932
112023,103947
112084,103972
112130,103995
112094,103969
112135,103991
112147,103991
112193,104018
112203,104018
112172,104012
112253,104049
112216,104059
112266,104068
112290,104084
112309,104069
112293,104097
112345,104077
112315,104114
112299,104046
112308,104084
112280,104019
112161,104012
112073,103985
111948,103897
111806,103842
111636,103744
111462,103676
111249,103545
111021,103455
110798,103319
110618,103265
110455,103165
110285,103092
110175,103052
110023,102998
109928,102979
109820,102899
109753,102879
109640,102871
109574,102776
109494,102786
109436,102730
109365,102743
109302,102689
109252,102699
109232,102650
109198,102662
109154,102601
109114,102605
109126,102635
109086,102573
109059,102590
109037,102589
109016,102545
109012,102588
109044,102554
108998,102561
109004,102578
108994,102548
109004,102593
108996,102572
109015,102565
109011,102557
109051,102578
109012,102603
109047,102591
109065,102603
109060,102596
109069,102575
109072,102640
109083,102567
109101,102610
109128,102602
109123,102626
109118,102594
109160,102620
109114,102659
109148,102617
109148,102625
109141,102655
109161,102610
109181,102657
109154,102600
109237,102672
109205,102650
109223,102654
109220,102664
109272,102678
109241,102677
109297,102712
109360,102705
109344,102716
109387,102714
109377,102766
109420,102731
109430,102747
109485,102757
109488,102796
109532,102818
109523,102782
109583,102836
109547,102845
109592,102838
109565,102832
109606,102861
109578,102814
109659,102842
109610,102839
109560,102832
109632,102853
109574,102813
109603,102812
109550,102812
109579,102788
109513,102808
109516,102820
109542,102817
109506,102774
109515,102755
109475,102798
109452,102778
109484,102751
109451,102783
109410,102747
109445,102754
109414,102763
109421,102749
109445,102753
109411,102743
109459,102773
109400,102766
109448,102748
109439,102760
109491,102776
109493,102759
109525,102803
109486,102790
109548,102811
109576,102835
109561,102822
109588,102834
109575,102857
109632,102841
109703,102873
109700,102892
109729,102885
109729,102884
109741,102909
109763,102913
109830,102953
109830,102942
109870,102962
109885,102957
109937,103021
109942,102970
109974,103029
109983,103012
110061,103014
110056,103071
110094,103044
110088,103070
110138,103062
110203,103106
110191,103100
110237,103138
110225,103132
110284,103167
110266,103139
110307,103200
110329,103164
110369,103186
110345,103203
110434,103240
110435,103238
110475,103206
110481,103246
110480,103255
110549,103266
110572,103303
110568,103266
110620,103303
110617,103299
110663,103342
110682,103357
110720,103348
110740,103399
110772,103382
110799,103440
110811,103379
110845,103429
110852,103427
110900,103455
110919,103453
110950,103456
110974,103480
111029,103489
111014,103504
111076,103518
111066,103519
111109,103549
111142,103581
111135,103554
111239,103605
111224,103599
111234,103623
111258,103616
111332,103642
111292,103648
111319,103621
111365,103680
111386,103667
111421,103646
111504,103702
111465,103733
111526,103695
111526,103728
111587,103751
111550,103730
111570,103741
111656,103811
111612,103790
111660,103782
111658,103785
111734,103834
111761,103822
111770,103865
111768,103825
111826,103888
111818,103868
111884,103881
111896,103927
111878,103880
111954,103923
111950,103950
112016,103930
111993,103973
112007,103963
112028,103981
112062,103967
112055,103998
112117,104004
112109,103994
112126,104008
112148,104036
112185,104048
112203,104059
112182,104046
112191,104048
112241,104079
112237,104062
112215,104044
112199,104039
112133,104006
112061,103966
111975,103902
111811,103851
111649,103773
111456,103669
111325,103592
111074,103488
110861,103385
110624,103282
110363,103169
110236,103074
110027,103014
109901,102941
109813,102921
109702,102862
109606,102784
109530,102769
109483,102745
109375,102705
109371,102711
109262,102708
109255,102646
109211,102645
109162,102635
109118,102640
109156,102610
109078,102593
109105,102630
109134,102615
109084,102631
109082,102581
109058,102621
109111,102625
109108,102621
109115,102632
109161,102608
109143,102638
109210,102656
109196,102665
109210,102651
109240,102652
109243,102684
109272,102692
109319,102690
109315,102736
109304,102679
109374,102713
109405,102723
109365,102734
109402,102739
109441,102774
109428,102758
109459,102777
109524,102808
109466,102801
109519,102770
109496,102777
109564,102810
109562,102806
109600,102850
109560,102826
109615,102847
109644,102855
109647,102860
109688,102879
109673,102855
109737,102920
109759,102901
109774,102916
109844,102932
109843,102973
109871,102989
109920,102978
109973,102981
110032,103016
110034,103029
110110,103043
110094,103058
110135,103072
110143,103113
110183,103070
110168,103100
110226,103123
110238,103101
110225,103112
110207,103091
110209,103122
110235,103092
110211,103111
110193,103087
110190,103105
110199,103071
110149,103055
110110,103064
110087,103062
110107,103002
110057,103013
110074,103013
110037,102994
110032,102991
110004,103021
109995,103003
109978,102999
109978,102987
109992,102972
109997,103019
110016,102984
110008,103000
110022,103015
110002,103014
110072,102993
110066,103024
110059,103041
110127,103044
110129,103076
110127,103037
110191,103100
110170,103131
110230,103123
110224,103133
110302,103129
110274,103152
110300,103131
110399,103211
110387,103195
110449,103190
110428,103220
110473,103206
110502,103267
110511,103243
110558,103271
110568,103304
110646,103291
110650,103329
110649,103317
110691,103365
110707,103370
110737,103396
110768,103392
110776,103376
110863,103413
110831,103398
110855,103433
110896,103429
110900,103424
110928,103490
110930,103459
110977,103466
110977,103455
111011,103499
111039,103506
111042,103561
111053,103494
111101,103547
111097,103547
111133,103555
111108,103551
111153,103549
111155,103567
111213,103573
111198,103604
111209,103597
111195,103600
111259,103625
111273,103644
111271,103601
111262,103629
111307,103654
111319,103609
111338,103640
111316,103643
111358,103673
111339,103633
111383,103674
111329,103678
111404,103706
111398,103674
111440,103695
111459,103730
111415,103727
111445,103710
111471,103755
111445,103705
111511,103758
111526,103742
111494,103772
111538,103774
111533,103762
111546,103799
111555,103758
111609,103808
111590,103809
111626,103779
111636,103831
111616,103794
111670,103811
111646,103803
111718,103857
111685,103858
111708,103828
111743,103883
111772,103857
111769,103884
111791,103898
111782,103850
111795,103921
111752,103871
111788,103878
111723,103851
111681,103816
111609,103808
111497,103730
111346,103654
111204,103568
111041,103504
110792,103410
110613,103280
110382,103210
110188,103078
110052,103064
109880,102953
109744,102927
109614,102896
109510,102804
109447,102761
109325,102752
109233,102714
109181,102698
109096,102638
109058,102618
108981,102568
108945,102581
108898,102566
108844,102564
108820,102494
108774,102541
108745,102488
108759,102502
108729,102518
108753,102499
108715,102497
108664,102514
108710,102465
108719,102499
108691,102488
108733,102528
108707,102497
108724,102495
108758,102499
108773,102543
108757,102479
108790,102524
108789,102545
108835,102513
108843,102572
108840,102528
108854,102577
108878,102596
108877,102608
108850,102555
108926,102603
108893,102579
108936,102569
108913,102591
108896,102590
108913,102611
108932,102576
108988,102605
108992,102595
108980,102598
109003,102629
109011,102644
109015,102610
109051,102646
109038,102658
109081,102667
109119,102653
109116,102700
109156,102670
109206,102731
109239,102718
109236,102750
109289,102772
109246,102764
109302,102751
109354,102764
109319,102793
109384,102788
109383,102804
109393,102781
109372,102821
109353,102787
109399,102822
109371,102801
109346,102771
109382,102794
109347,102815
109350,102779
109347,102766
109340,102772
109266,102757
109269,102714
109258,102758
109230,102723
109226,102741
109254,102726
109203,102728
109193,102707
109178,102726
109173,102694
109163,102701
109185,102725
109171,102691
109182,102723
109132,102684
109168,102705
109201,102711
109155,102718
109164,102729
109219,102743
109200,102737
109239,102733
109244,102779
109260,102756
109294,102780
109319,102742
109346,102764
109348,102779
109374,102817
109415,102818
109397,102836
109434,102816
109468,102852
109499,102843
109496,102858
109511,102896
109556,102889
109577,102890
109582,102918
109609,102926
109662,102925
109663,102952
109711,102967
109717,102984
109714,102921
109750,102965
109787,102995
109782,102993
109845,103000
109807,103040
109870,103011
109882,103021
109913,103035
109921,103033
109924,103089
109965,103051
109970,103095
109991,103071
109985,103105
109997,103083
110030,103107
110061,103103
110082,103143
110069,103134
110097,103125
110110,103169
110085,103138
110178,103166
110135,103169
110175,103168
110178,103167
110256,103193
110246,103166
110252,103212
110249,103212
110307,103213
110310,103236
110341,103256
110340,103243
110381,103236
110369,103285
110382,103258
110439,103281
110425,103278
110452,103274
110461,103272
110520,103310
110528,103307
110523,103328
110503,103306
110579,103357
110616,103360
110570,103321
110607,103353
110605,103360
110612,103373
110641,103374
110635,103377
110654,103375
110668,103353
110674,103386
110728,103385
110703,103398
110733,103392
110753,103416
110758,103427
110781,103424
110819,103435
110786,103490
110820,103416
110840,103486
110836,103442
110844,103461
110913,103483
110878,103484
110934,103470
110935,103513
110943,103517
110942,103499
110969,103511
110959,103502
111022,103545
111014,103506
110999,103544
110995,103535
110935,103510
110909,103469
110837,103440
110755,103401
110599,103311
110462,103243
110298,103138
110101,103075
109907,102979
109686,102884
109550,102823
109378,102747
109195,102698
109083,102615
108967,102573
108865,102529
108748,102491
108638,102435
108554,102404
108431,102354
108388,102338
108298,102281
108203,102253
108101,102198
108090,102200
107998,102170
107962,102122
107905,102136
107895,102121
107843,102075
107810,102091
107794,102056
107760,102083
107729,102063
107769,102058
107735,102061
107744,102031
107739,102053
107747,102034
107739,102051
107766,102057
107734,102040
107748,102054
107763,102040
107749,102061
107803,102051
107826,102081
107811,102041
107809,102055
107832,102084
107823,102061
107853,102082
107855,102060
107876,102089
107848,102075
107890,102081
107897,102123
107904,102065
107924,102114
107943,102136
107896,102123
107942,102112
107950,102080
107972,102110
107955,102132
108014,102132
107970,102117
108030,102157
108002,102137
108074,102180
108034,102176
108089,102148
108097,102178
108155,102202
108181,102213
108192,102235
108255,102232
108252,102232
108271,102258
108329,102272
108303,102275
108335,102281
108362,102288
108352,102310
108425,102287
108421,102340
108424,102282
108393,102337
108434,102325
108432,102315
108428,102327
108386,102280
108439,102308
108403,102331
108430,102307
108388,102306
108387,102274
108412,102293
108364,102293
108358,102266
108336,102283
108344,102299
108303,102242
108370,102237
108297,102280
108328,102272
108369,102236
108372,102265
108333,102232
108349,102286
108336,102266
108385,102282
108368,102284
108441,102307
108455,102319
108439,102326
108492,102297
108493,102354
108495,102340
108549,102335
108587,102359
108584,102392
108652,102353
108637,102406
108694,102412
108692,102411
108720,102457
108751,102427
108828,102473
108812,102473
108843,102481
108887,102467
108926,102530
108913,102492
108976,102539
108997,102536
108995,102554
109073,102594
109097,102585
109093,102601
109159,102605
109149,102629
109177,102619
109243,102656
109255,102695
109241,102668
109356,102704
109344,102683
109402,102706
109406,102738
109402,102739
109494,102732
109482,102780
109501,102777
109553,102792
109546,102798
109585,102813
109651,102817
109654,102851
109685,102835
109737,102855
109702,102863
109790,102886
109820,102906
109786,102887
109832,102907
109852,102954
109896,102940
109910,102938
109986,102975
109983,103006
109972,102976
110025,103002
110036,102998
110098,103018
110112,103056
110105,103016
110163,103088
110210,103072
110232,103094
110246,103130
110281,103087
110303,103160
110314,103108
110362,103195
110377,103166
110432,103159
110483,103210
110466,103168
110512,103198
110552,103227
110568,103218
110613,103275
110590,103266
110643,103293
110694,103297
110667,103315
110709,103361
110749,103312
110760,103341
110797,103336
110820,103402
110829,103413
110855,103413
110895,103388
110973,103440
110930,103423
110973,103413
111029,103460
111053,103472
111070,103506
111111,103513
111094,103516
111124,103530
111163,103536
111176,103528
111226,103580
111191,103566
111259,103571
111273,103578
111312,103611
111326,103604
111352,103624
111322,103595
111407,103671
111402,103662
111399,103660
111455,103654
111421,103693
111492,103651
111523,103728
111483,103688
111561,103703
111564,103723
111558,103715
111604,103705
111566,103736
111613,103735
111646,103753
111630,103746
111577,103719
111648,103738
111548,103716
111503,103665
111376,103603
111244,103557
111064,103440
110851,103371
110631,103224
110425,103133
110148,103004
109925,102889
109701,102820
109461,102658
109288,102614
109131,102519
109022,102499
108934,102448
108791,102423
108716,102361
108669,102376
108619,102339
108535,102288
108502,102283
108418,102257
108440,102248
108376,102227
108348,102218
108389,102241
108338,102209
108343,102223
108327,102205
108327,102202
108325,102203
108353,102234
108391,102231
108351,102245
108401,102212
108427,102279
108470,102239
108471,102282
108526,102272
108555,102341
108550,102290
108603,102337
108605,102325
108635,102355
108686,102370
108720,102403
108709,102413
108754,102388
108767,102382
108825,102420
108841,102410
108869,102494
108853,102433
108893,102464
108887,102459
108917,102483
108974,102474
108937,102522
109008,102503
108990,102536
109004,102561
109027,102543
109047,102522
109070,102576
109071,102555
109133,102581
109138,102585
109213,102588
109230,102609
109247,102622
109298,102640
109323,102664
109372,102684
109383,102701
109445,102712
109413,102700
109495,102714
109481,102763
109528,102723
109523,102763
109541,102749
109588,102768
109520,102772
109546,102766
109512,102741
109494,102758
109497,102708
109482,102750
109438,102715
109424,102731
109416,102700
109386,102693
109322,102680
109304,102669
109290,102623
109264,102648
109202,102624
109191,102581
109221,102595
109155,102619
109160,102578
109145,102594
109145,102581
109135,102581
109110,102545
109153,102604
109121,102576
109137,102592
109153,102617
109157,102608
109175,102602
109189,102603
109203,102635
109258,102652
109245,102652
109233,102639
109296,102645
109289,102711
109327,102675
109346,102716
109372,102694
109418,102717
109411,102684
109480,102748
109440,102751
109492,102744
109555,102778
109554,102797
109605,102792
109632,102856
109620,102775
109690,102843
109673,102861
109699,102875
109714,102827
109738,102908
109732,102875
109818,102916
109836,102904
109837,102925
109825,102934
109890,102939
109886,102958
109920,102944
109933,102960
109930,102981
109997,102994
110015,102989
109993,103017
110019,103000
110004,102976
110047,103013
110048,103005
110119,103055
110067,103050
110101,103055
110116,103081
110133,103028
110162,103087
110137,103106
110184,103069
110200,103092
110198,103097
110210,103131
110228,103077
110230,103141
110248,103116
110263,103155
110281,103151
110303,103160
110281,103172
110314,103168
110325,103125
110361,103166
110358,103195
110398,103183
110399,103189
110402,103218
110399,103195
110456,103187
110441,103219
110487,103231
110490,103248
110483,103248
110533,103238
110531,103278
110534,103251
110573,103283
110544,103280
110592,103250
110587,103304
110604,103310
110600,103291
110649,103291
110658,103304
110679,103338
110703,103333
110695,103318
110710,103340
110724,103336
110753,103370
110772,103358
110757,103367
110796,103379
110801,103387
110804,103382
110851,103409
110842,103400
110829,103397
110825,103398
110860,103377
110828,103402
110790,103381
110699,103343
110622,103289
110540,103239
110349,103161
110211,103077
110032,102985
109817,102890
109607,102773
109424,102679
109232,102606
109050,102516
108940,102501
108796,102420
108670,102381
108575,102329
108472,102322
108325,102251
108240,102211
108161,102173
108057,102145
107984,102121
107941,102054
107854,102041
107835,102019
107770,102012
107704,101978
107680,101953
107633,101930
107567,101934
107602,101925
107582,101885
107517,101905
107520,101900
107518,101877
107546,101896
107513,101930
107514,101865
107500,101878
107503,101881
107549,101891
107535,101919
107526,101852
107531,101896
107570,101880
107581,101888
107566,101941
107587,101877
107607,101904
107618,101910
107601,101938
107603,101920
107604,101929
107629,101920
107646,101920
107622,101918
107648,101933
107629,101925
107659,101940
107646,101900
107664,101954
107636,101917
107660,101955
107662,101923
107699,101936
107668,101927
107726,101947
107692,101965
107719,101947
107761,101983
107782,101939
107815,101990
107799,101984
107836,101971
107877,102011
107865,102000
107907,102027
107919,101996
108004,102032
107963,102079
108007,102048
108026,102071
108004,102058
108014,102081
108013,102049
108058,102075
108019,102085
108032,102044
108021,102051
107990,102062
107996,102009
108033,102066
107974,102028
107928,102037
107954,102016
107947,102038
107921,102009
107951,101989
107928,102020
107909,101996
107864,101976
107921,101991
107858,101951
107867,101964
107851,101965
107858,101987
107857,101960
107860,101956
107847,101954
107858,101990
107893,101964
107875,101992
107942,101943
107925,101989
107924,102003
107928,101985
107972,101990
107979,102014
107968,102002
108025,102040
108034,102032
108082,102051
108079,102062
108107,102065
108140,102073
108156,102096
108223,102108
108212,102085
108281,102138
108266,102143
108338,102134
108334,102146
108368,102179
108373,102185
108410,102202
108440,102209
108468,102219
108521,102226
108516,102260
108511,102226
108570,102277
108573,102287
108587,102306
108607,102256
108651,102322
108633,102287
108688,102345
108735,102328
108721,102320
108740,102324
108789,102345
108786,102389
108800,102352
108837,102372
108846,102402
108835,102383
108875,102418
108911,102412
108909,102399
108956,102433
108953,102435
108938,102464
109000,102453
109011,102510
109028,102458
109067,102470
109063,102505
109105,102493
109101,102553
109095,102496
109164,102521
109149,102511
109160,102537
109212,102533
109192,102602
109242,102563
109252,102605
109272,102573
109290,102586
109305,102624
109328,102600
109343,102649
109381,102634
109381,102654
109453,102666
109442,102701
109427,102666
109530,102707
109483,102703
109512,102717
109551,102707
109593,102766
109594,102737
109630,102756
109636,102764
109639,102801
109714,102803
109692,102773
109733,102822
109709,102841
109752,102796
109765,102850
109804,102867
109785,102860
109825,102833
109828,102890
109824,102882
109865,102870
109841,102875
109901,102884
109921,102915
109908,102867
109933,102932
109913,102892
109962,102930
109962,102939
109941,102941
110006,102945
110022,102928
110012,102961
110021,102959
110048,102964
110010,102937
110089,102940
110073,102962
110083,102990
110116,102996
110075,103012
110117,102957
110158,103019
110137,102992
110166,103016
110162,103020
110165,102996
110132,102992
110108,102995
110068,102961
109966,102855
109859,102832
109762,102758
109600,102704
109374,102551
109199,102492
108996,102401
108825,102309
108637,102247
108459,102149
108367,102108
108188,102049
108107,102020
107977,101953
107833,101913
107755,101845
107640,101845
107564,101791
107467,101745
107406,101671
107273,101656
107227,101653
107189,101584
107162,101585
107069,101573
107072,101560
106984,101538
106929,101508
106936,101471
106936,101513
106903,101463
106886,101496
106866,101479
106884,101470
106894,101475
106900,101486
106906,101506
106898,101479
106949,101501
106910,101518
106952,101510
106964,101540
106964,101525
106961,101503
107023,101557
107025,101539
107023,101575
107032,101558
107067,101546
107067,101573
107078,101597
107068,101557
107124,101599
107120,101601
107143,101593
107129,101598
107160,101576
107172,101647
107167,101609
107207,101661
107230,101639
107209,101631
107275,101644
107282,101681
107310,101637
107341,101679
107337,101700
107354,101698
107388,101687
107424,101747
107471,101736
107496,101761
107522,101771
107568,101777
107567,101745
107623,101841
107620,101826
107650,101841
107675,101848
107725,101873
107690,101850
107775,101844
107742,101887
107753,101894
107778,101878
107766,101868
107793,101855
107793,101901
107795,101880
107768,101859
107779,101876
107808,101868
107770,101841
107755,101848
107729,101836
107740,101862
107730,101824
107725,101802
107728,101822
107666,101826
107715,101813
107707,101830
107703,101817
107712,101836
107682,101802
107720,101829
107714,101831
107754,101824
107732,101841
107766,101823
107783,101840
107780,101880
107823,101860
107809,101884
107868,101866
107915,101899
107869,101884
107975,101924
107968,101955
108001,101949
108033,101945
108021,101967
108090,101996
108166,101996
108133,102026
108174,102017
108217,102053
108281,102040
108315,102098
108295,102064
108408,102098
108425,102161
108422,102129
108468,102137
108480,102177
108542,102156
108611,102237
108635,102213
108656,102226
108682,102270
108705,102263
108777,102297
108794,102273
108840,102315
108864,102340
108906,102346
108894,102364
108959,102366
109011,102390
108988,102445
109041,102387
109069,102410
109135,102463
109133,102460
109194,102460
109219,102500
109252,102484
109292,102540
109267,102532
109345,102552
109335,102542
109423,102571
109433,102595
109424,102602
109508,102601
109519,102666
109547,102618
109575,102628
109595,102663
109633,102677
109667,102716
109757,102740
109715,102717
109769,102762
109791,102720
109829,102760
109837,102782
109849,102820
109906,102781
109956,102858
109980,102842
110021,102858
110032,102880
110068,102871
110102,102893
110087,102911
110144,102937
110205,102934
110186,102936
110227,102959
110271,102970
110294,102998
110350,103018
110362,103028
110366,103023
110448,103066
110444,103043
110471,103101
110507,103098
110512,103109
110554,103136
110597,103150
110587,103160
110624,103169
110654,103190
110658,103189
110711,103196
110719,103212
110726,103231
110770,103251
110770,103250
110776,103269
110762,103254
110806,103292
110784,103224
110809,103236
110830,103267
110816,103274
110805,103230
110824,103290
110814,103280
110807,103264
110865,103256
110830,103231
110834,103291
110864,103258
110902,103246
110859,103265
110889,103240
110883,103301
110905,103281
110948,103252
110946,103304
110937,103254
110987,103322
110971,103280
111001,103282
110984,103314
110941,103267
110954,103291
110873,103221
110788,103198
110707,103104
110619,103100
110415,102972
110197,102871
110016,102774
109755,102675
109521,102589
109302,102425
109062,102318
108810,102200
108670,102124
108473,102097
108371,102014
108215,101974
108131,101955
108055,101864
107993,101890
107906,101802
107839,101835
107791,101820
107754,101757
107725,101779
107701,101711
107685,101739
107629,101746
107636,101702
107658,101723
107639,101732
107672,101735
107649,101740
107696,101738
107677,101794
107702,101757
107776,101786
107783,101797
107833,101832
107848,101787
107884,101860
107920,101858
107950,101854
107982,101891
107988,101903
108036,101949
108064,101909
108103,101957
108088,101943
108182,101977
108164,101980
108221,102014
108196,102006
108233,101992
108264,102070
108295,102036
108287,102039
108308,102048
108322,102090
108340,102087
108378,102094
108397,102090
108390,102123
108424,102098
108470,102132
108492,102161
108498,102154
108539,102154
108601,102204
108604,102157
108665,102226
108717,102226
108731,102239
108804,102274
108838,102287
108871,102307
108924,102289
108971,102340
108996,102361
108987,102356
109043,102374
109071,102410
109073,102380
109115,102410
109104,102402
109138,102426
109099,102441
109101,102374
109102,102403
109066,102395
109037,102352
108997,102365
108988,102345
108954,102350
108918,102288
108888,102310
108870,102280
108791,102242
108813,102244
108746,102261
108739,102220
108734,102207
108713,102227
108666,102197
108701,102228
108707,102228
108668,102229
108697,102203
108686,102245
108697,102216
108737,102265
108671,102256
108752,102241
108742,102263
108789,102285
108802,102276
108814,102307
108845,102284
108897,102342
108919,102359
108950,102344
108939,102382
109009,102348
109025,102442
109046,102397
109100,102424
109112,102442
109129,102450
109157,102452
109188,102514
109237,102512
109283,102525
109238,102524
109289,102520
109332,102582
109323,102556
109398,102558
109409,102605
109432,102595
109440,102580
109510,102601
109461,102653
109515,102621
109523,102647
109536,102676
109554,102653
109604,102677
109583,102668
109649,102686
109643,102704
109642,102698
109691,102729
109722,102708
109745,102768
109749,102757
109773,102755
109801,102799
109808,102798
109881,102789
109861,102842
109884,102793
109929,102874
109943,102817
109955,102858
110023,102867
109993,102905
109990,102859
110047,102907
110049,102893
110103,102870
110122,102924
110078,102937
110173,102921
110125,102950
110190,102977
110155,102946
110222,102969
110197,102987
110234,102974
110247,103003
110245,103013
110298,102988
110285,103023
110267,103056
110327,103015
110360,103041
110375,103062
110362,103054
110348,103034
110432,103093
110413,103067
110458,103092
110442,103091
110504,103115
110477,103112
110512,103110
110514,103150
110533,103134
110524,103142
110543,103167
110527,103145
110594,103117
110529,103148
110525,103123
110474,103112
110429,103065
110323,103038
110210,102975
110036,102912
109888,102802
109672,102680
109485,102616
109271,102498
109039,102408
108863,102319
108699,102261
108544,102182
108416,102126
108291,102075
108174,102025
108096,101997
107978,101958
107904,101905
107849,101886
107741,101835
107676,101813
107606,101804
107574,101767
107516,101750
107493,101751
107414,101744
107420,101727
107391,101717
107333,101694
107363,101680
107315,101693
107346,101657
107312,101669
107342,101689
107297,101649
107375,101676
107301,101714
107353,101700
107333,101714
107354,101688
107365,101688
107424,101739
107433,101707
107400,101726
107453,101746
107453,101730
107490,101759
107487,101763
107493,101754
107484,101750
107500,101783
107524,101795
107524,101767
107574,101757
107579,101790
107581,101838
107580,101759
107578,101802
107634,101794
107606,101806
107664,101820
107602,101852
107616,101841
107674,101835
107707,101853
107703,101872
107723,101842
107777,101880
107735,101898
107786,101910
107814,101936
107846,101909
107885,101942
107914,101971
107912,101951
107963,101975
108015,101990
107992,101997
108020,102026
108047,101998
108095,102020
108088,102038
108097,102021
108070,102059
108106,102006
108113,102043
108062,101998
108067,102048
108070,102038
108083,102028
108059,102046
108001,101970
108044,101995
107995,102000
107973,101974
107957,101944
107943,101993
107947,101963
107913,101962
107890,101986
107910,101943
107855,101916
107906,101965
107882,101955
107871,101912
107870,101934
107855,101928
107899,101942
107891,101980
107906,101937
107939,101955
107914,101972
107926,101987
107999,101999
107950,101985
107968,101976
108017,102035
108018,102011
108039,102021
108054,102056
108062,102034
108148,102066
108121,102080
108097,102080
108177,102103
108195,102096
108218,102094
108234,102135
108258,102157
108276,102136
108287,102139
108328,102162
108343,102169
108386,102204
108401,102185
108436,102184
108454,102215
108450,102205
108498,102234
108486,102214
108557,102248
108548,102295
108551,102261
108593,102278
108609,102272
108663,102302
108638,102310
108687,102323
108717,102332
108709,102322
108732,102321
108767,102343
108743,102358
108795,102376
108796,102348
108860,102378
108852,102400
108836,102380
108913,102437
108886,102385
108936,102426
108979,102455
108967,102443
108996,102451
109004,102480
109023,102466
109058,102500
109096,102529
109119,102509
109103,102522
109136,102539
109126,102527
109175,102576
109218,102564
109203,102572
109225,102570
109257,102594
109279,102606
109306,102622
109338,102609
109349,102622
109338,102634
109403,102644
109415,102642
109435,102645
109435,102648
109418,102652
109479,102676
109492,102677
109517,102684
109511,102671
109538,102715
109564,102725
109557,102726
109595,102730
109636,102733
109629,102743
109663,102752
109641,102758
109693,102791
109728,102771
109714,102778
109718,102775
109766,102804
109773,102827
109799,102812
109785,102811
109818,102825
109833,102850
109856,102851
109845,102841
109814,102840
109809,102799
109748,102848
109713,102778
109683,102769
109526,102670
109427,102610
109228,102546
109051,102452
108875,102327
108672,102276
108469,102155
108320,102106
108161,102046
107992,101973
107910,101925
107781,101888
107654,101814
107553,101783
107401,101723
107326,101701
107255,101663
107144,101606
107064,101553
106964,101518
106936,101530
106868,101478
106809,101448
106756,101437
106729,101439
106694,101382
106645,101399
106631,101394
106607,101346
106585,101359
106592,101343
106541,101354
106554,101349
106535,101349
106555,101332
106577,101347
106568,101347
106557,101371
106603,101362
106567,101344
106622,101397
106616,101369
106588,101351
106664,101352
106617,101373
106627,101378
106649,101382
106648,101390
106649,101344
106722,101388
106672,101367
106688,101394
106722,101374
106736,101403
106719,101379
106757,101405
106752,101396
106792,101417
106791,101445
106758,101392
106786,101436
106827,101439
106779,101449
106826,101460
106883,101438
106866,101442
106890,101471
106965,101491
106931,101543
107010,101503
107020,101513
107058,101547
107072,101556
107138,101607
107124,101567
107161,101585
107180,101631
107210,101608
107253,101619
107239,101650
107300,101648
107299,101660
107306,101638
107343,101692
107312,101644
107302,101657
107354,101692
107309,101680
107351,101679
107318,101649
107352,101664
107316,101674
107299,101632
107350,101667
107291,101669
107289,101662
107310,101645
107295,101669
107297,101658
107310,101627
107299,101658
107286,101658
107296,101670
107305,101660
107327,101670
107320,101672
107335,101671
107370,101681
107365,101677
107380,101682
107425,101728
107426,101710
107445,101699
107500,101736
107526,101760
107505,101749
107572,101769
107597,101775
107619,101801
107661,101811
107691,101822
107739,101839
107729,101854
107797,101867
107821,101882
107838,101904
107868,101904
107929,101927
107953,101951
107983,101968
108006,101976
108051,101976
108092,102017
108138,102012
108168,102035
108199,102039
108205,102073
108285,102083
108306,102077
108316,102085
108380,102095
108378,102125
108447,102167
108479,102156
108480,102179
108538,102209
108543,102218
108603,102227
108615,102222
108663,102243
108641,102252
108721,102268
108771,102286
108777,102300
108823,102313
108875,102314
108880,102363
108922,102334
108916,102369
108987,102403
109026,102413
109026,102415
109062,102446
109102,102432
109136,102472
109206,102487
109241,102510
109234,102501
109264,102513
109290,102527
109322,102549
109350,102572
109401,102578
109421,102577
109446,102599
109496,102601
109524,102654
109543,102632
109583,102666
109599,102679
109657,102710
109698,102709
109695,102703
109749,102728
109774,102760
109816,102790
109830,102782
109865,102797
109909,102814
109929,102828
109959,102833
109989,102856
110007,102827
110057,102880
110059,102842
110090,102909
110126,102899
110154,102918
110160,102932
110191,102951
110198,102959
110272,102976
110272,102992
110273,102997
110342,103030
110333,103011
110365,103014
110372,103048
110442,103068
110427,103067
110463,103068
110467,103085
110522,103102
110519,103112
110546,103108
110588,103148
110594,103140
110624,103138
110647,103169
110656,103163
110656,103152
110633,103159
110610,103122
110574,103132
110520,103046
110367,103027
110244,102940
110092,102849
109939,102763
109722,102675
109519,102593
109283,102457
109076,102344
108824,102271
108636,102158
108451,102039
108280,101958
108127,101949
108004,101857
107924,101860
107854,101799
107795,101781
107677,101735
107643,101701
107583,101719
107553,101688
107527,101673
107484,101673
107486,101649
107431,101608
107428,101623
107447,101655
107425,101660
107426,101611
107432,101628
107461,101652
107480,101674
107468,101670
107525,101652
107539,101696
107571,101699
107645,101737
107632,101730
107679,101746
107698,101737
107740,101773
107755,101780
107794,101785
107854,101844
107819,101779
107882,101854
107917,101863
107928,101848
107980,101889
107964,101870
108009,101884
108015,101911
108046,101897
108052,101892
108066,101933
108129,101963
108137,101924
108177,101950
108201,101985
108214,101998
108277,102001
108254,102016
108318,102045
108335,102016
108371,102085
108403,102083
108452,102077
108527,102116
108540,102160
108597,102144
108617,102178
108709,102201
108741,102233
108751,102229
108834,102274
108853,102280
108867,102280
108890,102278
108960,102363
108982,102304
108969,102328
108975,102360
108997,102320
108999,102356
108994,102351
108964,102319
108987,102337
108958,102330
108969,102320
108945,102293
108904,102302
108890,102286
108855,102274
108839,102262
108811,102237
108801,102232
108755,102222
108753,102215
108726,102174
108751,102214
108717,102171
108712,102219
108737,102200
108707,102190
108722,102209
108715,102211
108780,102205
108749,102214
108787,102231
108852,102217
108840,102257
108881,102266
108889,102301
108915,102297
108933,102308
108994,102343
109031,102350
109047,102359
109099,102378
109103,102385
109157,102411
109185,102417
109228,102453
109269,102476
109286,102496
109344,102478
109364,102508
109387,102541
109429,102533
109429,102557
109481,102569
109547,102581
109564,102616
109582,102635
109645,102628
109622,102648
109654,102664
109704,102673
109719,102683
109759,102697
109780,102706
109763,102729
109827,102725
109854,102745
109841,102770
109901,102767
109878,102781
109915,102788
109947,102782
109978,102828
110001,102823
110012,102813
110021,102837
110029,102813
110063,102875
110115,102866
110067,102863
110105,102885
110106,102885
110139,102888
110150,102888
110180,102917
110170,102919
110181,102927
110207,102926
110222,102946
110219,102931
110234,102955
110237,102963
110283,102953
110282,102956
110289,102971
110272,102977
110270,102983
110308,103000
110337,102992
110328,102996
110319,103006
110367,103021
110360,103026
110352,103015
110371,103016
110408,103018
110399,103017
110429,103056
110432,103026
110425,103036
110448,103047
110458,103067
110494,103048
110474,103078
110502,103077
110485,103075
110491,103075
110473,103047
110480,103053
110428,103025
110369,103002
110292,102960
110139,102894
110019,102821
109861,102730
109679,102636
109467,102548
109272,102442
109052,102335
108840,102255
108643,102173
108488,102082
108319,102030
108235,101989
108076,101924
108038,101891
107917,101853
107839,101844
107736,101796
107691,101750
107611,101770
107560,101720
107512,101679
107474,101701
107396,101650
107416,101611
107323,101661
107340,101629
107332,101624
107273,101595
107294,101595
107250,101620
107261,101592
107262,101589
107299,101577
107278,101616
107249,101584
107305,101589
107252,101603
107308,101638
107330,101617
107327,101611
107324,101602
107370,101638
107375,101614
107376,101663
107352,101617
107410,101624
107384,101678
107387,101651
107383,101623
107442,101647
107419,101670
107439,101618
107429,101630
107433,101666
107421,101628
107431,101639
107464,101638
107444,101637
107434,101635
107494,101637
107446,101636
107469,101626
107471,101659
107511,101680
107465,101633
107517,101652
107561,101666
107573,101691
107635,101741
107628,101696
107652,101736
107657,101747
107676,101738
107706,101773
107747,101796
107722,101778
107765,101771
107774,101758
107729,101782
107738,101716
107732,101740
107741,101717
107717,101741
107676,101680
107710,101718
107723,101675
107686,101685
107700,101703
107704,101690
107678,101667
107660,101694
107658,101666
107676,101668
107642,101662
107645,101676
107616,101671
107593,101661
107595,101650
107593,101640
107585,101628
107539,101605
107485,101575
107442,101514
107396,101482
107335,101452
107320,101417
107276,101382
107252,101353
107187,101319
107206,101319
107209,101310
107241,101321
107264,101342
107290,101348
107329,101383
107331,101405
107422,101418
107447,101433
107527,101471
107560,101488
107592,101527
107665,101549
107658,101539
107701,101585
107695,101573
107740,101573
107728,101568
107747,101584
107755,101560
107767,101572
107768,101576
107756,101587
107779,101567
107736,101576
107751,101555
107719,101552
107764,101564
107745,101566
107776,101567
107796,101570
107820,101609
107864,101610
107860,101638
107920,101650
107917,101659
107963,101678
107979,101671
108028,101721
108057,101730
108092,101762
108141,101766
108139,101796
108206,101794
108217,101811
108296,101863
108303,101858
108367,101881
108373,101903
108398,101920
108453,101926
108444,101934
108492,101959
108490,101960
108505,101948
108521,101981
108563,101994
108592,101996
108583,101994
108592,101978
108585,102000
108615,102011
108639,102027
108643,102007
108645,102021
108671,102047
108704,102043
108727,102078
108702,102071
108772,102102
108749,102101
108803,102114
108778,102115
108825,102106
108813,102139
108871,102190
108888,102170
108877,102181
108929,102176
108939,102179
108960,102207
108950,102184
108975,102217
108992,102191
109019,102225
109043,102219
109035,102246
109077,102265
109060,102242
109145,102284
109140,102265
109107,102270
109141,102288
109075,102241
109046,102254
108973,102216
108886,102141
108773,102081
108641,101983
108486,101935
108326,101825
108084,101721
107922,101631
107703,101556
107563,101508
107432,101388
107291,101362
107146,101258
107035,101230
106884,101188
106759,101141
106672,101106
106599,101043
106469,100977
106385,100954
106281,100906
106241,100861
106176,100837
106107,100801
106003,100798
105950,100748
105945,100709
105861,100711
105836,100717
105822,100700
105764,100637
105748,100637
105761,100620
105741,100619
105712,100622
105692,100594
105747,100624
105703,100603
105745,100619
105739,100638
105713,100574
105707,100620
105736,100588
105711,100624
105703,100644
105699,100589
105745,100616
105744,100585
105732,100614
105734,100631
105734,100578
105751,100603
105752,100579
105759,100613
105780,100647
105750,100624
105776,100592
105748,100602
105801,100614
105771,100609
105795,100606
105792,100583
105772,100631
105802,100611
105814,100641
105797,100651
105822,100614
105833,100660
105874,100675
105910,100678
105884,100665
105911,100684
105951,100663
105995,100707
106024,100723
106007,100734
106073,100755
106084,100713
106089,100786
106145,100760
106154,100802
106148,100766
106189,100792
106194,100794
106232,100796
106243,100846
106252,100812
106261,100836
106262,100867
106287,100831
106287,100844
106290,100863
106318,100862
106302,100870
106266,100843
106315,100852
106289,100884
106265,100853
106315,100845
106264,100896
106259,100831
106305,100855
106313,100890
106301,100848
106316,100911
106290,100887
106341,100882
106332,100898
106366,100882
106391,100877
106392,100935
106383,100885
106456,100939
106418,100937
106478,100992
106481,100976
106558,100969
106553,100991
106576,101020
106634,101029
106644,101066
106642,101034
106697,101075
106736,101079
106744,101102
106794,101142
106825,101111
106823,101135
106883,101183
106923,101186
106951,101192
106935,101189
106994,101206
107029,101228
107025,101250
107096,101273
107140,101297
107146,101277
107163,101314
107165,101289
107233,101321
107242,101345
107277,101390
107301,101374
107325,101393
107371,101397
107414,101440
107441,101441
107425,101404
107533,101455
107538,101493
107547,101463
107602,101500
107615,101524
107662,101545
107692,101597
107739,101553
107748,101591
107759,101603
107821,101607
107861,101638
107859,101658
107874,101659
107934,101699
107941,101677
107987,101686
108001,101713
108053,101753
108087,101727
108135,101767
108133,101820
108159,101764
108208,101796
108185,101792
108249,101856
108245,101835
108314,101854
108332,101866
108393,101885
108346,101890
108420,101866
108414,101929
108441,101932
108495,101930
108528,101975
108543,101981
108582,101942
108604,102006
108604,102035
108621,102002
108677,102061
108675,102013
108721,102050
108717,102040
108780,102064
108781,102076
108792,102058
108851,102094
108838,102134
108910,102120
108890,102162
108919,102119
108946,102173
108932,102192
108985,102146
109016,102206
109004,102165
109041,102191
109101,102223
109106,102241
109138,102263
109118,102220
109164,102259
109159,102301
109178,102258
109226,102290
109200,102247
109209,102285
109225,102285
109242,102287
109221,102254
109152,102282
109080,102220
108999,102197
108857,102068
108700,102001
108526,101978
108305,101830
108124,101708
107930,101640
107716,101542
107563,101464
107421,101389
107266,101337
107140,101273
107051,101233
106981,101206
106881,101168
106748,101109
106708,101103
106655,101067
106605,101035
106532,100994
106485,101003
106451,100980
106425,100965
106378,100953
106365,100933
106349,100934
106362,100949
106325,100934
106363,100930
106353,100925
106357,100944
106359,100959
106397,100929
106380,100952
106416,100964
106432,100971
106466,100958
106454,101013
106529,101000
106504,101035
106553,101013
106591,100999
106607,101053
106611,101015
106635,101048
106635,101090
106656,101077
106728,101075
106719,101087
106742,101097
106750,101104
106745,101118
106784,101086
106750,101158
106801,101144
106828,101127
106828,101157
106884,101183
106887,101143
106899,101187
106904,101172
106943,101176
106948,101218
106978,101187
107003,101220
107050,101246
107074,101267
107113,101251
107146,101292
107219,101321
107238,101345
107261,101341
107323,101359
107359,101358
107436,101402
107404,101417
107476,101407
107478,101464
107532,101437
107550,101472
107574,101480
107542,101471
107586,101456
107560,101480
107599,101479
107574,101468
107567,101470
107547,101496
107558,101443
107491,101438
107484,101443
107492,101411
107507,101443
107456,101397
107422,101407
107425,101394
107385,101375
107400,101383
107380,101374
107373,101381
107356,101402
107342,101347
107407,101380
107360,101370
107390,101393
107404,101384
107440,101414
107396,101376
107419,101401
107457,101400
107490,101429
107523,101430
107523,101456
107603,101483
107586,101474
107583,101469
107673,101518
107662,101522
107676,101553
107757,101579
107795,101550
107806,101588
107848,101575
107874,101584
107902,101614
107926,101623
108008,101666
107968,101708
107996,101689
108084,101726
108115,101729
108133,101752
108131,101732
108161,101747
108230,101749
108208,101806
108278,101811
108254,101779
108290,101839
108321,101835
108339,101831
108403,101849
108390,101908
108456,101876
108433,101888
108478,101946
108480,101911
108543,101942
108538,101901
108565,101952
108591,101984
108573,101966
108589,101928
108594,101971
108622,101970
108594,101983
108655,101970
108658,102025
108660,102006
108709,102013
108711,102019
108698,102018
108747,102045
108759,102040
108744,102057
108771,102053
108775,102040
108767,102046
108793,102042
108797,102103
108794,102053
108810,102077
108834,102063
108830,102094
108803,102081
108875,102090
108860,102071
108845,102130
108850,102120
108908,102086
108865,102145
108917,102120
108915,102129
108935,102150
108942,102135
108959,102138
108963,102161
108963,102134
108960,102128
109016,102174
108991,102157
109048,102158
109025,102219
109037,102188
109049,102205
109017,102172
109007,102200
108951,102125
108891,102117
108843,102072
108710,102038
108547,101905
108444,101879
108261,101790
108042,101685
107908,101617
107698,101532
107561,101487
107399,101390
107297,101358
107150,101308
107055,101239
106922,101191
106841,101142
106740,101148
106679,101065
106597,101049
106508,101037
106407,101006
106359,100929
106300,100926
106265,100882
106191,100841
106180,100860
106148,100857
106117,100814
106042,100834
106047,100796
106050,100762
106007,100823
106013,100743
106017,100790
106018,100750
106032,100766
105990,100752
106045,100779
106042,100777
106044,100791
106008,100770
106070,100783
106041,100790
106077,100791
106043,100777
106083,100769
106084,100796
106091,100769
106086,100786
106106,100788
106083,100790
106121,100784
106100,100762
106138,100811
106098,100759
106146,100790
106124,100794
106130,100768
106097,100785
106140,100784
106159,100773
106128,100786
106156,100794
106165,100754
106195,100806
106194,100813
106219,100778
106227,100826
106297,100832
106269,100833
106334,100839
106339,100896
106389,100884
106395,100895
106393,100878
106428,100867
106480,100953
106470,100892
106469,100896
106468,100951
106476,100902
106514,100936
106506,100904
106502,100916
106461,100913
106479,100904
106423,100867
106452,100903
106463,100891
106391,100821
106407,100839
106383,100822
106359,100826
106322,100823
106353,100794
106320,100805
106273,100802
106275,100775
106276,100791
106247,100731
106302,100769
106274,100775
106242,100775
106271,100752
106274,100800
106247,100777
106290,100749
106284,100776
106309,100806
106325,100774
106327,100781
106357,100779
106354,100806
106353,100805
106410,100812
106448,100832
106425,100854
106444,100853
106501,100867
106488,100829
106534,100841
106568,100902
106565,100899
106594,100872
106644,100911
106588,100909
106648,100919
106673,100908
106688,100935
106716,100964
106726,100984
106762,100944
106807,100961
106781,100983
106831,101014
106849,101006
106836,101012
106901,101031
106907,101024
106965,101047
106917,101077
106967,101047
106983,101069
106987,101073
107043,101090
107062,101092
107026,101075
107073,101112
107094,101113
107088,101096
107160,101111
107148,101161
107135,101129
107188,101140
107228,101169
107190,101166
107252,101149
107282,101185
107263,101197
107308,101192
107317,101200
107346,101219
107353,101202
107356,101225
107394,101229
107404,101241
107430,101262
107453,101272
107442,101243
107482,101290
107482,101284
107494,101284
107533,101269
107544,101345
107584,101293
107577,101336
107586,101342
107618,101329
107668,101373
107663,101370
107670,101383
107718,101389
107731,101440
107733,101370
107737,101422
107817,101424
107806,101447
107847,101460
107843,101447
107855,101446
107874,101459
107901,101496
107917,101489
107937,101515
107944,101490
107970,101500
107967,101505
108012,101532
108018,101525
108037,101540
108057,101536
108042,101551
108090,101552
108105,101542
108087,101560
108075,101555
108070,101529
108069,101534
108009,101509
