11111,11111
0,0
82486,82472
136671,110017
141819,109999
141775,109961
141756,109984
141719,109972
141747,109961
141726,109930
141760,109957
141720,109920
141789,109968
141775,109986
141755,109943
141795,109983
141822,109952
141828,109958
141871,110017
141877,109958
141914,110008
141917,110031
141980,110006
141995,110038
141988,110012
142056,110043
142055,110072
142091,110076
142109,110072
142154,110071
142164,110120
142165,110080
142191,110103
142256,110111
142266,110142
142319,110144
142389,110203
142346,110179
142419,110201
142474,110197
142522,110229
142532,110205
142609,110239
142603,110286
142610,110268
142662,110274
142636,110251
142645,110254
142701,110279
142661,110283
142681,110295
142696,110306
142698,110279
142660,110304
142647,110246
142639,110231
142654,110233
142593,110196
142555,110211
142571,110194
142515,110216
142457,110144
142462,110169
142403,110120
142399,110152
142329,110108
142353,110093
142351,110108
142315,110072
142285,110084
142345,110089
142282,110110
142259,110078
142331,110090
142310,110103
142321,110088
142366,110099
142323,110106
142359,110096
142345,110114
142346,110062
142349,110082
142373,110091
142426,110144
142379,110117
142415,110098
142473,110120
142502,110126
142485,110143
142556,110161
142584,110195
142564,110172
142622,110207
142667,110192
142685,110213
142718,110224
142739,110255
142787,110257
142769,110275
142839,110302
142880,110301
142873,110261
142920,110308
142938,110323
142986,110314
142992,110337
143015,110384
143070,110351
143143,110364
143169,110407
143143,110391
143225,110404
143219,110422
143240,110419
143338,110442
143327,110484
143323,110426
143393,110459
143409,110511
143433,110459
143490,110510
143501,110506
143522,110540
143545,110516
143554,110529
143594,110537
141479,109671
141359,109591
141411,109600
141913,109839
141939,109813
141901,109809
141934,109811
141752,109686
141728,109714
141713,109710
141716,109702
141737,109717
141936,109748
141878,109754
141924,109760
141915,109746
141916,109781
141954,109775
141941,109798
141936,109789
142018,109826
142017,109787
142022,109830
142034,109770
142047,109803
142060,109849
142090,109820
142070,109825
142121,109804
142083,109796
142142,109836
142125,109836
142123,109835
142064,109826
142087,109817
142166,109837
142168,109854
142122,109838
142155,109806
142182,109839
142165,109875
142192,109873
142225,109834
142267,109874
142301,109871
142285,109912
142323,109918
142363,109922
142327,109899
142380,109935
142401,109969
142402,109943
142433,109920
142471,109903
142482,109958
142506,109937
142473,109980
142498,109973
142532,109956
142613,109998
142559,109986
142592,110008
142594,110023
142595,109959
142623,109979
142564,110030
142539,109968
142528,109960
142427,109886
142395,109888
142253,109853
142128,109775
142015,109727
141882,109677
141812,109650
141653,109570
141562,109543
141455,109501
141366,109447
141299,109445
141182,109417
141151,109365
141103,109340
141021,109326
140923,109312
140923,109282
140825,109275
140806,109241
140758,109193
140777,109230
140688,109183
140707,109208
140675,109219
140643,109180
140687,109186
140651,109222
140627,109188
140700,109197
140698,109209
140655,109188
140717,109225
140686,109231
140673,109193
140698,109213
140729,109220
140713,109243
140740,109237
140743,109234
140767,109200
140775,109246
140854,109277
140852,109263
140845,109262
140875,109263
140919,109320
140940,109320
140946,109322
140986,109318
140978,109326
141010,109318
141051,109349
141100,109359
141093,109348
141117,109370
141150,109400
141199,109406
141175,109410
141225,109388
141254,109407
141288,109409
141234,109441
141277,109455
141295,109414
141275,109407
141319,109414
141306,109435
141313,109427
141335,109429
141309,109435
141300,109410
141278,109428
141330,109444
141274,109394
141322,109414
141287,109441
141286,109392
141331,109446
141300,109376
141300,109398
141287,109431
141298,109404
141264,109396
141255,109380
141256,109353
141290,109414
141271,109379
141266,109390
141261,109371
141247,109404
141310,109373
141295,109403
141330,109421
141326,109389
141349,109422
141399,109396
141402,109419
141469,109468
141408,109451
141425,109430
141459,109440
141450,109477
141522,109462
141471,109463
141494,109449
141552,109498
141499,109458
141559,109493
141559,109481
141613,109518
141576,109484
141602,109507
141663,109521
141636,109498
141695,109517
141716,109534
141728,109553
141747,109556
141762,109543
141767,109577
141832,109606
141848,109608
141834,109561
141911,109636
141912,109628
141969,109621
142008,109645
141966,109669
141995,109615
142044,109690
142064,109644
142067,109636
142069,109687
142030,109664
142016,109630
142091,109666
142104,109687
142059,109679
142088,109699
142086,109681
142115,109652
142154,109694
142176,109713
142173,109679
142147,109701
142197,109731
142174,109734
142207,109694
142202,109663
142225,109712
142196,109697
142220,109712
142208,109726
142211,109702
142203,109703
142289,109740
142251,109741
142254,109693
142272,109706
142230,109711
142232,109682
142171,109666
142081,109605
142027,109568
141864,109566
141747,109460
141650,109466
141526,109415
141370,109336
141295,109270
141233,109261
141149,109235
141072,109210
141021,109196
140930,109139
140926,109134
140875,109136
140838,109080
140815,109076
140780,109087
140736,109093
140732,109057
140682,109054
140648,109024
140637,109021
140628,109052
140595,109038
140627,108994
140616,109024
140639,109033
140605,109006
140669,109027
140617,109009
140679,109023
140671,109069
140676,109049
140720,109048
140744,109089
140716,109062
140782,109079
140803,109114
140822,109107
140875,109100
140875,109100
140922,109144
140899,109143
140963,109131
140955,109157
140964,109182
141024,109192
141063,109201
141138,109198
141135,109217
141217,109233
141249,109294
141313,109296
141319,109295
141383,109280
141451,109355
141479,109325
141479,109352
141487,109352
141495,109338
141512,109356
141485,109364
141537,109350
141481,109347
141524,109323
141531,109350
141506,109362
141522,109331
141508,109353
141531,109343
141497,109342
141534,109326
141507,109335
141482,109336
141441,109317
141442,109305
141451,109288
141454,109306
141416,109300
141374,109252
141395,109273
141358,109298
141342,109257
141389,109275
141351,109240
141330,109238
141348,109245
141383,109257
141365,109284
141356,109275
141371,109253
141411,109300
141432,109267
141419,109303
141406,109273
141460,109314
141411,109280
141497,109301
141505,109326
141499,109282
141519,109332
141568,109309
141559,109344
141560,109331
141581,109289
141603,109354
141602,109369
141651,109343
141681,109385
141655,109355
141710,109393
141744,109389
141775,109442
141759,109377
141825,109425
141831,109440
141870,109448
141871,109457
141906,109427
141956,109433
141957,109497
141980,109449
142016,109493
142030,109494
142014,109503
142014,109497
142085,109497
142084,109521
142104,109530
142098,109544
142105,109532
142154,109546
142188,109589
142185,109536
142210,109533
142234,109563
142288,109589
142254,109534
142330,109605
142327,109578
142342,109595
142341,109643
142345,109604
142430,109640
142432,109611
142435,109624
142449,109638
142435,109647
142469,109648
142474,109659
142438,109652
142454,109656
142529,109641
142492,109667
142527,109661
142555,109661
142550,109678
142608,109727
142637,109687
142616,109693
142701,109750
142696,109714
142713,109738
142744,109745
142743,109735
142749,109746
142752,109742
142724,109722
142623,109695
142569,109624
142493,109613
142408,109564
142224,109500
142072,109448
141923,109345
141808,109317
141649,109301
141505,109224
141446,109131
141307,109126
141223,109102
141136,109071
141048,109041
141006,108979
140947,108954
140874,108977
140823,108935
140783,108962
140759,108869
140725,108893
140682,108901
140643,108856
140679,108857
140643,108871
140595,108841
140620,108861
140599,108838
140605,108871
140575,108820
140616,108862
140627,108865
140619,108873
140630,108896
140642,108839
140667,108869
140661,108868
140722,108897
140715,108932
140710,108873
140741,108927
140776,108914
140798,108913
140825,108954
140820,108907
140847,108944
140885,108943
140897,109001
140931,108950
140970,109017
140966,108996
141045,109009
141065,109009
141132,109070
141171,109054
141176,109093
141251,109093
141257,109130
141243,109109
141336,109125
141343,109147
141367,109146
141356,109189
141352,109127
141404,109174
141416,109158
141350,109132
141419,109139
141391,109156
141361,109113
141395,109140
141367,109133
141376,109124
141373,109121
141339,109094
141332,109123
141332,109116
141325,109119
141287,109085
141288,109108
141289,109113
141261,109084
141271,109094
141274,109068
141238,109065
141237,109067
141246,109068
141226,109063
141230,109055
141214,109047
141229,109067
141272,109090
141270,109077
141258,109071
141296,109070
141301,109090
141309,109065
141358,109107
141382,109107
141350,109140
141427,109133
141439,109125
141501,109152
141446,109160
141515,109141
141567,109192
141529,109162
141558,109207
141620,109222
141606,109203
141658,109209
141719,109272
141744,109264
141758,109250
141786,109251
141869,109308
141818,109283
141914,109316
141929,109338
141935,109285
141952,109348
141976,109319
142037,109348
142009,109338
142042,109360
142073,109382
142089,109385
142126,109393
142102,109370
142133,109386
142195,109388
142179,109428
142241,109422
142251,109473
142241,109436
142297,109441
142347,109488
142378,109499
142379,109456
142412,109469
142441,109491
142527,109551
142484,109550
142488,109567
142542,109545
142487,109554
142550,109536
142587,109565
142537,109549
142555,109572
142586,109537
142626,109566
142600,109564
142588,109574
142631,109564
142613,109585
142629,109565
142636,109565
142634,109553
142687,109565
142641,109629
142665,109591
142664,109566
142649,109578
142626,109573
142668,109572
142650,109559
142666,109565
142665,109602
142626,109557
142673,109571
142622,109547
142613,109559
142537,109488
142430,109473
142374,109432
142266,109396
142119,109359
141962,109220
141792,109170
141690,109153
141515,109083
141399,109014
141305,108999
141160,108946
141077,108924
141015,108904
140938,108871
140902,108817
140893,108824
140813,108822
140752,108800
140750,108782
140669,108745
140659,108719
140700,108768
140616,108736
140640,108741
140593,108714
140574,108721
140598,108704
140628,108728
140565,108743
140588,108730
140583,108703
140601,108741
140578,108737
140643,108727
140603,108761
140632,108726
140700,108770
140659,108760
140661,108733
140717,108759
140696,108769
140713,108787
140733,108769
140789,108776
140791,108811
140789,108827
140842,108823
140880,108832
140851,108823
140921,108827
140948,108847
140978,108873
140995,108884
141074,108922
141090,108923
141068,108924
141166,108927
141165,108953
141185,108944
141223,108941
141233,108972
141219,108952
141247,108965
141311,108999
141279,108955
141291,108994
141297,109000
141294,108961
141341,108999
141269,108972
141309,108995
141301,108971
141311,108975
141266,108986
141223,108934
141244,108980
141215,108927
141194,108951
141167,108933
141094,108892
141083,108857
141134,108902
141080,108894
141087,108882
141078,108876
141013,108875
141062,108868
141097,108900
141056,108843
141076,108868
141087,108916
141082,108876
141117,108874
141100,108907
141120,108852
141142,108914
141117,108880
141138,108888
141106,108907
141115,108877
141127,108915
141180,108898
141177,108914
141154,108929
141175,108936
141235,108924
141301,108970
141256,108954
141307,108979
141301,108974
141334,108957
141376,109019
141388,108969
141399,109003
141423,109009
141422,109006
141499,109025
141493,109061
141463,109015
141490,109027
141555,109022
141566,109056
141561,109085
141576,109027
141593,109072
141655,109092
141619,109108
141622,109085
141691,109084
141724,109104
141707,109097
141749,109137
141755,109111
141737,109129
141754,109108
141793,109144
141774,109148
141789,109139
141811,109135
141841,109168
141835,109130
141890,109184
141888,109195
141878,109167
141936,109207
141926,109199
142000,109218
142008,109236
141988,109200
141990,109213
142004,109189
142026,109195
141986,109188
141971,109211
141958,109193
142009,109230
142016,109195
141993,109218
141976,109181
141974,109176
141971,109182
141957,109200
141963,109164
141944,109173
141821,109134
141791,109078
141692,109072
141576,109000
141471,108978
141333,108937
141262,108855
141136,108857
141063,108824
140947,108779
140924,108726
140831,108730
140772,108699
140695,108687
140701,108650
140617,108661
140567,108601
140512,108580
140487,108595
140429,108539
140367,108534
140368,108511
140338,108519
140298,108527
140248,108465
140245,108491
140244,108493
140227,108487
140174,108470
140195,108439
140200,108505
140164,108474
140143,108471
140176,108470
140203,108479
140170,108476
140208,108499
140245,108479
140225,108501
140249,108483
140291,108491
140264,108533
140289,108520
140323,108512
140336,108525
140417,108567
140402,108569
140426,108557
140505,108569
140492,108606
140542,108602
140600,108608
140625,108662
140632,108630
140678,108637
140704,108669
140708,108687
140732,108674
140785,108663
140793,108687
140800,108746
140839,108723
140849,108727
140868,108728
140844,108736
140901,108729
140875,108722
140891,108730
140930,108730
140892,108703
140939,108742
140911,108758
140889,108725
140887,108715
140883,108702
140899,108737
140830,108701
140865,108678
140856,108711
140843,108714
140833,108691
140844,108727
140820,108690
140833,108661
140826,108700
140797,108670
140817,108704
140808,108667
140788,108680
140817,108663
140777,108692
140814,108685
140803,108651
140862,108673
140787,108675
140837,108705
140849,108700
140833,108696
140863,108693
140832,108696
140890,108727
140903,108690
140907,108687
140886,108695
140947,108716
140921,108731
140987,108752
140999,108729
140934,108714
141019,108756
141026,108737
141073,108767
141043,108754
141070,108753
141107,108782
141115,108787
141141,108795
141099,108799
141139,108767
141158,108790
141142,108824
141194,108829
141206,108806
141236,108853
141247,108825
141248,108822
141313,108850
141343,108850
141320,108850
141367,108860
141405,108889
141401,108897
141396,108883
141456,108889
141490,108903
141497,108920
141538,108907
141496,108935
141545,108925
141542,108957
141585,108938
141591,108942
141612,108947
141579,108963
141622,108941
141599,108979
141624,108971
141678,108984
141651,108961
141682,108988
141758,109020
141720,109001
141765,109017
141775,109003
141797,109013
141851,109064
141879,109050
141871,109058
141885,109034
141929,109077
141869,109042
141849,109060
141895,109060
141827,109051
141790,108998
141712,108997
141597,108911
141534,108905
141366,108806
141289,108798
141145,108726
141087,108695
140942,108684
140836,108575
140806,108597
140684,108529
140654,108521
140608,108474
140525,108465
140466,108473
140426,108436
140353,108435
140286,108400
140243,108353
140243,108363
140173,108397
140153,108345
140107,108338
140038,108314
140056,108308
140072,108336
140037,108331
140001,108282
140006,108284
139999,108270
140011,108292
139975,108316
139963,108244
140003,108266
139962,108283
139985,108306
139987,108287
140039,108290
140034,108318
140023,108282
140095,108359
140097,108336
140105,108318
140141,108328
140165,108368
140188,108367
140235,108373
140214,108369
140298,108398
140271,108398
140349,108400
140385,108448
140366,108414
140409,108430
140472,108453
140441,108467
140503,108476
140536,108503
140574,108515
140565,108526
140635,108526
140667,108544
140640,108545
140678,108549
140675,108553
140674,108567
140703,108552
140726,108587
140680,108546
140714,108533
140701,108578
140718,108572
140676,108540
140692,108523
140711,108548
140677,108555
140668,108501
140667,108525
140682,108524
140627,108551
140623,108499
140644,108488
140619,108518
140583,108487
140631,108503
140634,108488
140634,108522
140602,108451
140658,108509
140635,108535
140614,108498
140657,108481
140655,108517
140676,108531
140636,108550
140676,108495
140664,108518
140678,108502
140738,108517
140731,108515
140722,108533
140780,108558
140756,108546
140765,108529
140876,108589
140864,108585
140855,108617
140900,108589
140940,108598
140962,108642
140968,108629
140967,108633
141021,108636
141020,108642
141064,108667
141046,108663
141085,108649
141097,108647
141138,108674
141166,108681
141205,108707
141179,108735
141223,108681
141218,108704
141288,108734
141307,108765
141309,108724
141364,108769
141373,108775
141383,108776
141411,108765
141439,108796
141419,108771
141488,108793
141485,108827
141500,108817
141499,108815
141531,108805
141588,108833
141549,108871
141607,108841
141612,108848
141676,108863
141674,108856
141716,108917
141683,108904
141745,108885
141752,108864
141786,108916
141778,108935
141819,108916
141804,108933
141790,108925
141818,108924
141867,108965
141834,108946
141882,108924
141886,108968
141887,108955
141900,109002
141916,108977
141898,108946
141906,108912
141907,108938
141826,108935
141744,108881
141624,108798
141536,108753
141395,108729
141215,108651
141129,108611
140990,108543
140878,108508
140769,108489
140673,108419
140617,108385
140553,108388
140498,108357
140428,108341
140422,108349
140378,108333
140309,108295
140268,108269
140276,108271
140240,108266
140199,108268
140146,108208
140164,108221
140118,108229
140117,108225
140110,108237
140082,108187
140119,108209
140076,108251
140072,108213
140117,108243
140108,108204
140121,108214
140147,108257
140144,108230
140186,108241
140167,108273
140193,108263
140233,108269
140282,108297
140304,108302
140277,108293
140303,108286
140363,108294
140365,108338
140367,108348
140419,108322
140461,108358
140475,108363
140536,108384
140546,108431
140582,108381
140645,108442
140673,108471
140735,108465
140732,108461
140758,108440
140764,108487
140827,108504
140839,108482
140851,108504
140844,108481
140903,108491
140865,108534
140873,108517
140915,108499
140880,108531
140854,108487
140901,108514
140857,108523
140836,108484
140844,108490
140838,108486
140839,108464
140829,108483
140774,108496
140765,108425
140749,108451
140725,108441
140700,108434
140682,108410
140709,108436
140681,108434
140657,108413
140644,108429
140634,108375
140725,108408
140669,108441
140668,108386
140629,108393
140697,108402
140655,108392
140722,108402
140683,108451
140687,108398
140707,108411
140708,108412
140728,108467
140744,108406
140823,108450
140774,108476
140798,108436
140846,108476
140853,108470
140894,108495
140982,108508
140968,108495
140987,108496
141049,108537
141032,108557
141095,108546
141090,108575
141104,108559
141152,108548
141186,108584
141175,108600
141209,108573
141238,108627
141228,108606
141300,108617
141279,108634
141287,108618
141319,108631
141355,108676
141375,108689
141376,108673
141386,108633
141436,108684
141453,108695
141484,108680
141493,108688
141469,108693
141531,108740
141557,108740
141602,108743
141557,108708
141629,108758
141651,108775
141625,108738
141665,108763
141709,108783
141715,108809
141739,108781
141724,108819
141774,108827
141767,108815
141758,108786
141810,108806
141836,108837
141836,108820
141834,108813
141831,108824
141826,108802
141851,108824
141825,108817
141807,108808
141819,108825
141771,108785
141752,108762
141671,108739
141533,108674
141436,108617
141280,108598
141160,108519
141096,108492
140921,108448
140823,108388
140711,108352
140644,108339
140562,108296
140500,108215
140441,108237
140374,108214
140374,108226
140274,108185
140232,108143
140228,108136
140186,108168
140166,108111
140131,108126
140113,108079
140087,108090
140115,108098
140054,108109
140050,108112
140032,108073
140026,108087
140034,108097
140035,108100
140045,108106
140053,108082
140047,108090
140076,108112
140108,108102
140099,108120
140124,108108
140117,108107
140173,108130
140171,108132
140202,108152
140252,108153
140251,108169
140271,108202
140314,108192
140302,108201
140369,108221
140418,108206
140391,108231
140466,108231
140507,108272
140516,108307
140575,108294
140575,108309
140669,108344
140683,108328
140722,108370
140736,108401
140755,108351
140785,108377
140820,108355
140808,108360
140878,108400
140832,108419
140826,108412
140815,108367
140822,108396
140771,108366
140822,108351
140792,108355
140795,108362
140783,108354
140746,108351
140763,108373
140726,108354
140695,108349
140711,108301
140711,108318
140711,108295
140689,108284
140650,108309
140647,108266
140638,108303
140614,108305
140600,108277
140596,108251
140568,108278
140621,108264
140601,108289
140602,108303
140595,108253
140616,108294
140604,108260
140610,108328
140620,108283
140672,108270
140625,108289
140670,108280
140630,108300
140651,108276
140671,108303
140684,108304
140654,108317
140682,108273
140682,108291
140700,108287
140744,108299
140725,108346
140755,108303
140749,108326
140810,108347
140773,108356
140774,108350
140875,108363
140846,108379
140829,108371
140872,108353
140924,108394
140901,108401
140943,108374
140932,108407
140969,108388
140977,108408
140989,108408
141001,108401
141050,108441
141017,108412
141076,108434
141079,108448
141092,108444
141122,108440
141119,108472
141135,108443
141130,108505
141158,108478
141209,108469
141182,108501
141189,108493
141224,108486
141260,108493
141261,108492
141303,108495
141290,108543
141327,108509
141333,108550
141361,108540
141397,108551
141405,108561
141473,108578
141412,108573
141437,108531
141435,108546
141454,108566
141367,108545
141305,108479
141244,108487
141117,108432
141070,108384
140908,108365
140810,108271
140735,108259
140608,108213
140542,108167
140437,108146
140408,108119
140320,108062
140252,108058
140211,108079
140156,108009
140068,107999
140016,107978
139971,107961
139942,107947
139913,107925
139895,107933
139793,107886
139804,107899
139759,107907
139752,107865
139763,107864
139685,107887
139683,107889
139676,107847
139687,107864
139710,107886
139644,107829
139665,107882
139701,107863
139682,107864
139695,107854
139714,107898
139706,107904
139759,107903
139784,107876
139768,107905
139788,107879
139830,107914
139808,107951
139818,107931
139861,107929
139874,107933
139886,107989
139919,107929
139981,107990
139974,107981
139971,107981
140055,108011
140078,108028
140121,108012
140143,108045
140141,108033
140216,108084
140244,108113
140222,108091
140246,108050
140291,108115
140329,108083
140276,108110
140337,108125
140297,108119
140291,108065
140317,108112
140323,108076
140272,108072
140303,108073
140292,108065
140278,108043
140243,108094
140267,108064
140236,108064
140193,108030
140201,108024
140222,108048
140173,108025
140161,108017
140152,108017
140144,107973
140151,108028
140102,108001
140129,107976
140093,108000
140104,107996
140115,108024
140082,107992
140140,107955
140066,108001
140130,108000
140130,107988
140127,108013
140144,107978
140164,108001
140158,108036
140154,107986
140189,108027
140169,108026
140148,108000
140176,108008
140220,108045
140213,108021
140229,107990
140286,108056
140259,108085
140263,108046
140311,108065
140328,108036
140311,108084
140323,108087
140382,108087
140380,108119
140383,108077
140396,108085
140375,108121
140385,108110
140418,108133
140405,108091
140418,108092
140464,108136
140462,108163
140441,108131
140494,108125
140496,108156
140517,108157
140582,108171
140581,108175
140564,108171
140600,108145
140645,108166
140637,108207
140629,108198
140665,108219
140653,108188
140689,108189
140718,108220
140696,108210
140683,108212
140725,108216
140726,108229
140737,108205
140736,108225
140748,108222
140797,108226
140814,108235
140820,108258
140827,108274
140799,108217
140808,108264
140796,108257
140802,108218
140770,108218
140646,108170
140575,108137
140523,108121
140426,108116
140318,108029
140220,107941
140185,107963
140079,107976
140002,107892
139940,107860
139854,107803
139810,107797
139761,107813
139704,107771
139631,107761
139579,107708
139495,107692
139496,107694
139397,107700
139298,107605
139275,107586
139242,107593
139213,107609
139165,107619
139109,107579
139095,107536
139069,107538
139047,107546
139015,107520
139011,107488
138957,107526
138970,107486
138987,107531
138974,107500
138962,107524
139020,107512
139011,107546
138971,107510
138968,107515
139022,107512
139024,107522
139026,107541
139051,107536
139046,107554
139068,107540
139066,107535
139139,107539
139116,107612
139118,107568
139195,107560
139198,107572
139272,107628
139302,107652
139282,107659
139338,107618
139402,107678
139397,107697
139468,107656
139474,107724
139456,107686
139485,107696
139502,107733
139535,107735
139541,107707
139472,107715
139494,107705
139525,107715
139535,107703
139563,107720
139518,107731
139553,107689
139577,107730
139548,107712
139527,107709
139513,107724
139509,107682
139482,107692
139485,107691
139465,107701
139444,107636
139424,107651
139450,107655
139407,107650
139431,107614
139411,107653
139390,107642
139388,107658
139385,107660
139385,107667
139388,107638
139407,107636
139440,107648
139442,107683
139428,107658
139404,107648
139450,107621
139452,107657
139451,107650
139481,107633
139477,107653
139462,107676
139456,107653
139500,107653
139485,107683
139481,107630
139503,107630
139540,107686
139489,107656
139536,107667
139547,107675
139553,107673
139525,107717
139537,107665
139547,107706
139586,107706
139574,107714
139587,107713
139609,107688
139646,107712
139597,107743
139584,107691
139642,107701
139641,107722
139666,107716
139642,107719
139671,107750
139633,107729
139682,107744
139701,107756
139743,107768
139718,107778
139770,107741
139781,107812
139783,107766
139752,107753
139802,107789
139836,107786
139804,107773
139838,107793
139868,107782
139835,107793
139887,107812
139918,107804
139878,107795
139925,107817
139952,107837
139928,107821
139966,107816
139989,107818
139978,107811
140005,107862
140037,107858
140031,107859
140010,107844
140016,107808
139970,107825
139933,107832
139924,107809
139797,107756
139774,107729
139688,107697
139651,107709
139574,107631
139478,107591
139411,107581
139333,107563
139234,107524
139148,107503
139026,107434
138964,107409
138865,107380
138806,107347
138729,107307
138693,107293
138535,107266
138474,107231
138420,107247
138365,107171
138290,107137
138238,107164
138191,107133
138171,107135
138112,107127
138068,107086
138099,107089
138053,107099
138058,107081
138049,107088
138005,107051
137996,107054
137995,107059
137952,107055
137971,107053
138002,107039
137974,107028
138001,107054
138004,107049
138037,107048
138055,107072
138037,107041
138102,107079
138098,107098
138102,107083
138191,107103
138189,107122
138220,107137
138228,107145
138297,107155
138334,107175
138337,107160
138379,107194
138409,107228
138400,107229
138468,107182
138447,107230
138506,107233
138555,107255
138572,107228
138545,107253
138600,107279
138617,107286
138641,107264
138632,107299
138616,107236
138590,107270
138639,107268
138584,107256
138609,107244
138565,107248
138614,107229
138585,107241
138562,107251
138514,107229
138533,107188
138524,107212
138507,107230
138503,107212
138523,107206
138466,107188
138488,107212
138483,107218
138473,107213
138481,107161
138516,107189
138462,107185
138473,107186
138501,107208
138488,107199
138464,107182
138461,107193
138458,107196
138489,107186
138483,107175
138479,107188
138487,107226
138498,107181
138543,107218
138538,107236
138571,107205
138588,107216
138613,107238
138604,107265
138572,107203
138640,107231
138653,107260
138651,107249
138679,107251
138696,107279
138661,107234
138749,107263
138715,107300
138761,107303
138769,107286
138801,107282
138836,107309
138864,107336
138857,107326
138914,107339
138888,107311
138922,107347
138952,107378
138936,107346
138968,107356
138977,107343
139009,107371
139027,107399
139035,107378
139072,107366
139041,107411
139049,107426
139140,107432
139161,107427
139163,107459
139196,107416
139207,107460
139224,107431
139229,107494
139269,107470
139261,107447
139284,107472
139344,107501
139310,107471
139363,107517
139303,107487
139333,107469
139396,107528
139362,107521
139401,107507
139358,107497
139423,107528
139391,107539
139431,107502
139424,107503
139431,107515
139389,107522
139368,107518
139365,107485
139330,107471
139248,107440
139198,107402
139147,107384
139034,107372
138931,107314
138895,107293
138794,107245
138750,107232
138646,107236
138505,107142
138496,107124
138387,107124
138278,107081
138209,107053
138095,106982
138065,106940
137994,106955
137878,106879
137829,106885
137740,106854
137667,106839
137635,106796
137580,106784
137507,106793
137427,106724
137429,106716
137436,106751
137359,106706
137350,106695
137379,106719
137300,106663
137320,106699
137295,106680
137286,106661
137302,106656
137276,106706
137323,106691
137353,106682
137321,106702
137332,106666
137362,106705
137390,106724
137386,106697
137455,106723
137478,106741
137517,106732
137519,106782
137578,106791
137628,106801
137677,106798
137717,106852
137739,106883
137758,106844
137805,106899
137811,106897
137832,106889
137905,106888
137863,106954
137880,106906
137939,106912
137951,106928
137933,106934
137981,106957
137960,106930
137986,106884
138008,106945
138014,106936
137991,106955
138003,106937
138027,106937
138014,106922
138005,106935
138009,106943
138035,106924
137973,106898
137994,106892
138005,106926
137965,106912
137957,106892
137946,106889
137943,106921
137903,106886
137968,106915
137957,106919
137922,106881
137939,106918
137948,106899
137978,106916
137949,106927
137934,106879
137948,106902
137988,106903
137957,106918
137967,106882
137962,106903
137987,106892
138022,106889
138031,106934
137989,106934
138018,106882
138067,106959
138052,106962
138101,106972
138061,106962
138132,106972
138148,107001
138124,106992
138181,106993
138211,107000
138212,106991
138247,107030
138241,107022
138335,107046
138299,107017
138351,107058
138379,107054
138357,107089
138392,107042
138432,107079
138447,107072
138450,107102
138477,107086
138448,107113
138462,107083
138498,107074
138524,107119
138551,107118
138552,107150
138528,107127
138584,107122
138601,107167
138600,107126
138591,107167
138624,107150
138637,107133
138679,107164
138680,107208
138735,107163
138729,107201
138742,107163
138794,107219
138745,107232
138768,107194
138808,107193
138766,107198
138763,107192
138790,107201
138734,107177
138798,107186
138755,107190
138763,107201
138778,107215
138746,107186
138771,107151
138718,107174
138691,107170
138593,107133
138568,107093
138475,107074
138423,107010
138375,107022
138288,106992
138188,106916
138091,106911
137956,106850
137932,106835
137832,106844
137689,106772
137621,106706
137543,106683
137464,106669
137372,106659
137284,106601
137224,106563
137154,106542
137077,106512
137084,106531
136958,106497
136948,106438
136906,106438
136891,106453
136820,106431
136842,106438
136755,106436
136762,106386
136738,106416
136722,106399
136702,106388
136753,106389
136723,106418
136757,106400
136765,106394
136795,106402
136765,106421
136800,106395
136829,106432
136883,106440
136887,106432
136905,106469
136886,106459
136965,106446
137006,106513
137011,106482
137019,106479
137100,106495
137147,106566
137144,106547
137189,106556
137218,106598
137266,106605
137296,106613
137372,106616
137390,106651
137377,106624
137434,106657
137484,106666
137486,106647
137499,106688
137460,106645
137506,106669
137522,106672
137542,106703
137509,106679
137481,106648
137524,106655
137496,106653
137515,106677
137521,106682
137499,106650
137561,106681
137545,106697
137513,106657
137561,106691
137508,106684
137552,106703
137519,106687
137566,106693
137565,106691
137522,106646
137519,106672
137553,106688
137562,106678
137522,106656
137527,106666
137577,106661
137526,106668
137536,106693
137571,106675
137547,106684
137598,106693
137621,106694
137620,106692
137631,106719
137637,106693
137636,106713
137701,106737
137705,106749
137684,106729
137696,106720
137762,106732
137738,106749
137756,106760
137769,106734
137753,106735
137779,106759
137793,106739
137821,106785
137823,106795
137853,106794
137865,106795
137915,106834
137922,106816
137936,106787
137970,106786
137953,106825
138032,106841
138022,106841
138048,106853
138074,106853
138054,106892
138085,106889
138113,106865
138111,106867
138126,106870
138170,106922
138138,106900
138207,106901
138188,106938
138188,106893
138240,106921
138285,106985
138299,106954
138269,106960
138300,106940
138370,106978
138338,106985
138341,106966
138406,106982
138407,106973
138438,106986
138410,106991
138438,107032
138459,106970
138443,107014
138475,106998
138508,107048
138523,107013
138503,107001
138537,107053
138505,107053
138500,107025
138489,107037
138403,107001
138345,106927
138351,106928
138255,106942
138174,106898
138106,106834
138056,106834
137951,106797
137898,106740
137781,106721
137638,106674
137589,106626
137477,106601
137459,106575
137342,106554
137248,106481
137178,106479
137049,106471
136979,106388
136920,106354
136828,106338
136742,106303
136725,106316
136631,106256
136603,106274
136513,106245
136468,106203
136474,106214
136417,106172
136382,106168
136348,106155
136367,106195
136298,106186
136327,106158
136351,106172
136311,106164
136320,106166
136327,106156
136384,106199
136352,106181
136380,106186
136388,106177
136444,106179
136424,106232
136403,106197
136471,106220
136494,106210
136513,106252
136517,106221
136520,106230
136575,106251
136594,106240
136643,106291
136662,106302
136665,106304
136717,106267
136765,106343
136772,106316
136781,106335
136835,106339
136848,106343
136841,106358
136898,106366
136862,106358
136862,106355
136894,106357
136900,106362
136945,106375
136930,106400
136921,106372
136907,106352
136945,106375
136969,106383
136951,106388
136950,106356
136945,106378
136946,106391
137019,106407
136959,106395
136968,106368
137004,106396
136972,106393
136989,106384
136942,106385
136976,106374
136968,106380
136947,106383
136951,106353
136955,106397
136974,106379
136957,106396
136949,106389
136990,106375
136996,106396
136999,106373
136958,106370
136988,106363
137022,106408
136971,106404
136990,106382
137015,106373
137018,106391
137051,106420
137016,106414
137031,106370
137047,106406
137082,106406
137097,106435
137120,106406
137131,106428
137121,106420
137177,106458
137199,106447
137183,106460
137231,106437
137228,106513
137216,106490
137296,106488
137304,106499
137318,106469
137323,106532
137352,106513
137393,106535
137423,106505
137400,106547
137437,106521
137467,106553
137478,106604
137511,106558
137500,106577
137530,106580
137578,106603
137575,106646
137575,106580
137632,106602
137634,106597
137672,106628
137675,106656
137663,106637
137671,106661
137723,106635
137747,106659
137735,106697
137758,106685
137753,106649
137812,106675
137791,106700
137791,106672
137815,106685
137798,106668
137806,106668
137855,106687
137851,106726
137814,106677
137872,106683
137863,106717
137850,106724
137843,106665
137803,106667
137736,106631
137727,106625
137691,106624
137654,106595
137560,106572
137475,106509
137389,106474
137332,106484
137260,106433
137150,106418
137042,106319
136957,106345
136919,106310
136804,106290
136673,106219
136631,106176
136514,106178
136489,106130
136394,106070
136336,106084
136251,106068
136164,106064
136117,106000
136106,106005
136040,105979
135990,105936
135970,105986
135953,105990
135914,105914
135892,105919
135908,105930
135888,105892
135902,105931
135875,105898
135896,105920
135902,105923
135937,105929
135914,105952
135969,105956
135948,105970
135946,105946
136016,105952
136043,105989
136048,105987
136062,106001
136061,105950
136087,105989
136112,106019
136130,106042
136110,105996
136184,106011
136175,106047
136222,106080
136271,106089
136263,106060
136323,106089
136365,106104
136384,106146
136369,106102
136425,106116
136443,106148
136488,106157
136475,106184
136498,106134
136522,106165
136523,106150
136541,106165
136570,106184
136535,106175
136512,106140
136575,106189
136558,106181
136547,106190
136563,106175
136557,106128
136527,106171
136546,106148
136546,106167
136544,106182
136517,106139
136561,106168
136552,106188
136540,106149
136568,106180
136543,106132
136583,106158
136589,106185
136565,106187
136602,106147
136595,106184
136589,106192
136597,106193
136590,106162
136606,106181
136623,106186
136610,106191
136638,106216
136637,106184
136684,106183
136651,106180
136667,106208
136716,106240
136724,106243
136778,106251
136749,106243
136762,106213
136842,106262
136845,106284
136830,106229
136877,106268
136862,106293
136850,106271
136918,106296
136939,106297
136877,106274
136967,106339
136941,106334
136999,106286
137003,106341
137010,106334
137006,106329
137055,106356
137049,106326
137105,106364
137074,106382
137138,106378
137143,106370
137180,106376
137178,106384
137214,106418
137203,106392
137274,106451
137265,106412
137283,106415
137328,106445
137292,106450
137336,106445
137375,106488
137371,106475
137359,106441
137408,106452
137428,106503
137419,106464
137427,106480
137460,106496
137445,106509
137503,106490
137513,106539
137498,106511
137521,106503
137603,106538
137587,106551
137614,106586
137588,106538
137612,106526
137648,106596
137640,106562
137664,106551
137610,106557
137544,106494
137552,106534
137511,106474
137429,106483
137353,106423
137330,106363
137265,106410
137190,106372
137076,106323
137039,106277
136983,106256
136912,106274
136804,106207
136760,106191
136688,106141
136599,106131
136530,106125
136506,106072
136433,106073
136341,106040
136324,106007
136264,106007
136236,105996
136172,105983
136121,105961
136132,105969
136120,105962
136077,105972
136044,105924
136038,105894
136078,105946
136025,105923
136058,105923
136064,105936
136083,105939
136041,105952
136097,105919
136088,105959
136141,105986
136130,105968
136173,105958
136218,105994
136211,106001
136254,106003
136283,106001
136306,106029
136319,106056
136386,106066
136363,106075
136411,106066
136427,106065
136472,106097
136498,106090
136536,106121
136577,106111
136600,106151
136640,106166
136664,106198
136716,106183
136684,106177
136747,106193
136768,106195
136780,106244
136785,106205
136829,106228
136800,106222
136842,106216
136856,106243
136833,106237
136867,106220
136806,106242
136812,106238
136821,106225
136827,106248
136807,106188
136865,106235
136856,106239
136862,106244
136801,106240
136827,106183
136794,106243
136842,106224
136790,106206
136832,106208
136825,106202
136817,106233
136825,106250
136834,106239
136811,106192
136853,106222
136838,106217
136848,106249
136863,106226
136858,106244
136852,106232
136891,106205
136904,106248
136909,106249
136914,106274
136873,106221
136951,106275
136940,106277
136947,106295
136998,106279
136988,106293
136996,106274
137004,106311
137025,106322
137032,106270
137036,106267
137041,106340
137093,106313
137097,106360
137091,106331
137098,106306
137120,106356
137176,106333
137146,106370
137157,106346
137197,106398
137201,106372
137194,106392
137241,106434
137233,106399
137261,106370
137250,106422
137300,106413
137293,106389
137358,106404
137316,106439
137372,106455
137332,106440
137400,106449
137419,106425
137399,106475
137461,106489
137447,106485
137482,106476
137441,106474
137522,106488
137536,106494
137516,106528
137548,106543
137569,106483
137565,106520
137575,106537
137598,106512
137597,106544
137571,106517
137583,106488
137630,106531
137603,106535
137601,106543
137605,106506
137629,106522
137620,106533
137637,106521
137583,106531
137599,106522
137618,106494
137574,106512
137518,106507
137502,106451
137449,106428
137373,106380
137330,106398
137283,106343
137234,106357
137124,106298
137077,106290
136987,106278
136913,106263
136890,106202
136813,106159
136728,106132
136674,106122
136544,106109
136511,106076
136432,106027
136416,105985
136357,106015
136313,106004
136270,105951
136236,105930
136215,105967
136185,105933
136187,105943
136147,105891
136141,105925
136155,105939
136172,105911
136121,105972
136125,105936
136153,105923
136164,105919
136163,105938
136224,105992
136201,105983
136205,105960
136215,105987
136253,105986
136311,106000
136279,106008
136318,105975
136394,106042
136381,106038
136404,106063
136395,106028
136430,106027
136482,106095
136515,106086
136568,106101
136561,106075
136617,106105
136614,106111
136657,106131
136667,106126
136694,106168
136716,106145
136759,106178
136778,106180
136782,106194
136824,106194
136855,106181
136830,106200
136865,106196
136889,106209
136858,106206
136882,106245
136894,106219
136913,106224
136877,106229
136886,106198
136910,106220
136893,106233
136876,106227
136886,106223
136874,106194
136889,106180
136891,106231
136883,106217
136925,106230
136906,106219
136891,106184
136939,106198
136935,106232
136915,106233
136933,106227
136917,106214
136951,106232
136964,106256
136939,106224
136954,106222
136986,106212
136989,106247
136975,106237
137022,106238
137027,106273
137064,106261
137039,106303
137047,106257
137131,106305
137082,106289
137141,106284
137132,106327
137171,106325
137174,106338
137209,106323
137214,106356
137268,106343
137280,106406
137277,106338
137308,106377
137350,106370
137403,106439
137388,106428
137395,106402
137456,106405
137471,106417
137533,106471
137474,106475
137517,106456
137580,106490
137519,106489
137585,106475
137633,106481
137604,106514
137628,106464
137662,106484
137700,106514
137692,106502
137679,106546
137697,106499
137771,106544
137748,106521
137796,106548
137740,106542
137777,106535
137814,106578
137804,106585
137813,106575
137868,106596
137857,106583
137874,106576
137896,106607
137908,106620
137891,106580
137936,106608
137952,106637
137944,106638
137982,106618
137994,106629
138033,106626
138016,106653
138027,106664
138073,106686
138067,106663
138021,106654
138013,106636
138029,106662
137989,106601
137960,106631
137897,106590
137884,106569
137821,106535
137741,106517
137696,106476
137614,106462
137547,106443
137488,106392
137441,106382
137346,106319
137333,106309
137225,106339
137172,106271
137156,106261
137089,106217
137030,106169
136948,106175
136953,106159
136850,106190
136794,106157
136755,106111
136765,106145
136742,106124
136691,106085
136715,106093
136676,106083
136702,106107
136674,106100
136632,106118
136626,106061
136687,106062
136707,106077
136720,106100
136713,106101
136707,106124
136685,106098
136767,106124
136768,106162
136768,106140
136804,106145
136774,106154
136832,106149
136872,106204
136849,106152
136897,106192
136913,106168
136923,106200
136924,106213
136971,106200
136991,106237
136979,106214
137057,106231
137126,106266
137081,106255
137138,106254
137175,106264
137179,106312
137224,106295
137239,106347
137263,106302
137273,106307
137250,106326
137299,106359
137327,106354
137319,106371
137292,106313
137340,106363
137331,106357
137336,106341
137285,106353
137329,106359
137316,106314
137371,106347
137337,106370
137370,106328
137318,106339
137308,106344
137369,106318
137317,106359
137289,106310
137337,106317
137359,106353
137334,106366
137330,106321
137320,106336
137343,106333
137363,106359
137372,106383
137357,106312
137383,106342
137350,106368
137400,106360
137384,106373
137382,106363
137430,106343
137452,106401
137468,106356
137522,106416
137481,106369
137501,106383
137559,106393
137567,106445
137592,106460
137565,106417
137616,106427
137624,106407
137665,106467
137698,106504
137667,106451
137734,106460
137752,106489
137786,106536
137744,106514
137805,106527
137791,106520
137849,106527
137844,106556
137873,106586
137908,106536
137912,106537
137906,106586
137942,106589
137983,106599
137983,106601
138019,106602
138068,106618
138076,106634
138080,106647
138128,106651
138107,106630
138125,106646
138189,106673
138195,106673
138210,106682
138248,106704
138245,106702
138252,106726
138315,106726
138297,106737
138297,106708
138325,106715
138347,106742
138397,106746
138382,106755
138440,106767
138436,106787
138482,106776
138468,106764
138473,106793
138525,106810
138502,106811
138563,106837
138602,106843
138562,106824
138591,106825
138625,106841
138615,106854
138642,106836
138646,106856
138640,106846
138644,106875
138705,106899
138707,106868
138683,106846
138657,106858
138654,106867
138627,106833
138526,106806
138489,106750
138401,106727
138302,106713
138254,106693
138164,106654
138092,106559
137981,106541
137967,106546
137888,106530
137794,106446
137725,106465
137661,106402
137629,106386
137573,106405
137492,106351
137445,106326
137427,106305
137347,106308
137328,106311
137299,106259
137236,106244
137209,106270
137226,106254
137224,106239
137216,106235
137180,106207
137213,106240
137179,106259
137211,106238
137226,106237
137201,106243
137248,106238
137223,106286
137237,106281
137240,106261
137268,106248
137312,106273
137319,106334
137363,106304
137325,106285
137392,106312
137376,106344
137426,106330
137439,106358
137432,106344
137454,106321
137510,106399
137507,106360
137516,106364
137549,106385
137567,106414
137638,106413
137634,106435
137646,106449
137724,106458
137733,106447
137758,106495
137782,106506
137780,106483
137829,106509
137866,106492
137841,106524
137854,106509
137919,106510
137889,106565
137898,106526
137886,106551
137914,106529
137978,106557
137920,106571
137922,106539
137927,106524
137951,106532
137916,106558
137865,106480
137906,106487
137894,106503
137877,106520
137880,106511
137895,106524
137844,106495
137890,106492
137883,106498
137885,106502
137840,106486
137842,106456
137911,106519
137889,106504
137908,106538
137913,106494
137904,106502
137921,106544
137956,106530
137977,106522
137987,106536
137976,106534
137979,106542
138013,106577
138058,106557
138026,106547
138052,106590
138124,106587
138132,106599
138142,106603
138147,106616
138178,106574
138259,106657
138225,106649
138301,106652
138301,106637
138347,106678
138317,106715
138355,106691
138411,106702
138383,106720
138421,106708
138446,106729
138478,106726
138521,106754
138560,106779
138525,106758
138620,106792
138622,106824
138622,106794
138655,106815
138647,106791
138687,106836
138693,106856
138744,106819
138696,106825
138701,106792
138781,106834
138800,106907
138773,106875
138813,106831
138830,106871
138834,106887
138885,106895
138936,106905
138958,106924
138965,106964
139010,106913
139043,106942
139052,106966
139062,106966
139094,106954
139133,107002
139111,107009
139155,106990
139179,106971
139144,106985
139170,107031
139160,107043
139188,106994
139196,107038
139188,107003
139227,107035
139193,107038
139138,106994
139093,106950
139068,106929
138941,106920
138870,106873
138749,106831
138661,106753
138579,106706
138501,106715
138376,106663
138354,106595
138253,106599
138165,106555
138153,106562
138076,106559
138051,106490
137970,106445
137926,106470
137883,106459
137888,106423
137839,106439
137757,106377
137781,106397
137765,106426
137706,106408
137727,106375
137679,106403
137700,106379
137693,106386
137721,106391
137713,106422
137734,106395
137750,106415
137761,106419
137798,106454
137832,106431
137809,106444
137796,106423
137887,106484
137886,106480
137884,106460
137931,106450
137910,106513
137968,106502
137981,106498
138000,106492
138042,106492
138021,106526
138132,106576
138140,106592
138159,106552
138200,106575
138244,106625
138303,106669
138323,106662
138391,106656
138390,106678
138428,106673
138447,106719
138488,106696
138465,106737
138476,106691
138530,106738
138533,106732
138530,106743
138525,106722
138577,106732
138567,106762
138609,106766
138595,106789
138593,106738
138588,106729
138624,106731
138615,106779
138587,106745
138548,106694
138551,106692
138550,106687
138545,106760
138485,106734
138458,106675
138476,106679
138453,106657
138457,106680
138459,106718
138419,106640
138408,106633
138429,106665
138438,106652
138455,106693
138423,106654
138445,106658
138447,106701
138435,106674
138489,106683
138489,106680
138516,106692
138476,106692
138483,106726
138512,106665
138545,106701
138547,106685
138562,106732
138560,106733
138585,106730
138586,106718
138617,106733
138656,106765
138693,106782
138664,106765
138677,106755
138723,106762
138749,106808
138779,106779
138832,106851
138795,106788
138859,106826
138856,106854
138885,106842
138877,106866
138886,106823
138935,106840
138969,106880
138990,106889
138977,106909
138980,106876
139048,106884
139077,106956
139110,106946
139152,106954
139144,106943
139190,106927
139230,107021
139235,106998
139256,107024
139300,106982
139282,107016
139300,107008
139361,107036
139313,107051
139347,107011
139328,107029
139349,107015
139374,106998
139355,107046
139365,106995
139410,107049
139378,107012
139399,107070
139391,107029
139398,107023
139444,107061
139438,107026
139411,107046
139361,107049
139269,106983
139220,106933
139138,106946
139024,106844
138927,106828
138813,106766
138707,106709
138644,106710
138544,106697
138468,106635
138387,106606
138301,106567
138255,106558
138219,106514
138129,106508
138086,106467
138038,106462
137968,106460
137932,106406
137894,106423
137864,106382
137831,106381
137828,106379
137772,106401
137762,106327
137749,106343
137729,106362
137732,106371
137726,106326
137693,106331
137662,106332
137694,106296
137703,106369
137711,106364
137678,106341
137723,106346
137737,106394
137787,106391
137771,106404
137773,106401
137821,106384
137839,106447
137835,106390
137864,106404
137901,106437
137912,106419
137934,106424
137930,106478
137945,106444
138032,106442
137997,106486
138015,106493
138064,106524
138079,106504
138136,106551
138124,106520
138193,106547
138233,106549
138238,106577
138308,106593
138334,106606
138326,106589
138375,106604
138431,106649
138416,106631
138451,106612
138461,106699
138487,106658
138471,106644
138477,106666
138445,106615
138452,106619
138464,106624
138422,106657
138410,106586
138367,106612
138346,106636
138354,106580
138348,106573
138311,106603
138318,106571
138280,106584
138297,106550
138283,106601
138251,106525
138262,106537
138251,106561
138223,106536
138259,106553
138213,106548
138249,106559
138269,106547
138240,106561
138271,106564
138258,106568
138261,106550
138309,106596
138307,106573
138326,106585
138294,106581
138340,106577
138391,106597
138356,106599
138421,106617
138411,106591
138444,106610
138475,106653
138498,106662
138498,106656
138530,106657
138520,106678
138613,106697
138589,106716
138641,106672
138646,106708
138638,106703
138680,106738
138723,106747
138746,106774
138785,106762
138787,106758
138859,106795
138830,106785
138904,106824
138893,106776
138923,106823
138987,106826
138987,106856
138987,106857
139010,106851
139000,106860
139074,106870
139087,106905
139074,106861
139106,106900
139144,106900
139121,106918
139160,106918
139167,106904
139181,106893
139173,106927
139219,106937
139229,106969
139234,106954
139225,106935
139274,106943
139296,106965
139319,106996
139325,106986
139304,106963
139310,106936
139328,106963
139317,106961
139261,106916
139219,106917
139120,106907
139084,106855
138976,106820
138850,106764
138778,106682
138708,106691
138601,106623
138507,106607
138412,106572
138378,106512
138247,106507
138224,106487
138115,106459
138006,106367
137978,106373
137879,106379
137836,106330
137761,106329
137680,106237
137656,106258
137596,106265
137531,106218
137506,106207
137478,106201
137400,106180
137427,106187
137390,106164
137385,106151
137317,106156
137301,106136
137330,106155
137322,106171
137305,106170
137332,106146
137285,106131
137354,106159
137360,106162
137319,106172
137380,106158
137340,106170
137405,106208
137409,106180
137451,106191
137473,106195
137470,106215
137545,106233
137537,106221
137566,106248
137604,106254
137598,106253
137634,106269
137683,106306
137686,106296
137695,106290
137740,106316
137776,106324
137807,106365
137868,106351
137834,106351
137922,106411
137955,106414
137944,106404
138024,106427
138041,106426
138074,106460
138112,106479
138169,106469
138096,106479
138177,106461
138169,106493
138200,106513
138167,106484
138192,106486
138173,106476
138148,106468
138154,106484
138181,106476
138103,106441
138120,106441
138147,106440
138116,106449
138081,106442
138087,106419
138092,106439
138087,106417
138091,106428
138101,106452
138095,106444
138056,106426
138074,106429
138086,106432
138068,106431
138093,106431
138064,106415
138085,106426
138058,106435
138114,106452
138105,106420
138084,106411
138139,106444
138162,106447
138138,106466
138198,106470
138181,106453
138191,106466
138238,106490
138253,106492
138229,106489
138272,106511
138315,106514
138304,106520
138335,106527
138331,106518
138340,106517
138369,106526
138403,106565
138401,106581
138453,106578
138449,106536
138487,106595
138496,106597
138518,106619
138519,106615
138540,106580
138546,106612
138589,106599
138553,106613
138625,106628
138603,106603
138627,106631
138665,106658
138698,106645
138713,106653
138744,106671
138774,106710
138825,106717
138814,106720
138859,106760
138853,106713
138907,106744
138860,106730
138913,106745
138920,106713
138905,106751
138937,106768
138947,106765
138947,106770
138942,106751
138934,106743
138968,106765
138955,106776
138977,106758
138983,106758
138997,106773
139009,106799
139027,106790
139033,106814
139046,106796
139084,106797
139037,106796
139068,106830
139032,106769
138925,106734
138866,106708
138772,106674
138690,106627
138594,106597
138502,106534
138422,106498
138332,106499
138254,106450
138187,106408
138075,106350
137999,106340
137967,106287
137878,106310
137769,106274
137729,106225
137643,106201
137576,106177
137539,106177
137467,106139
137419,106093
137334,106087
137315,106079
137276,106088
137192,106044
137207,106005
137162,106004
137145,106023
137095,105989
137091,105987
137072,105968
137068,105991
137089,105992
137090,105994
137091,105983
137090,105986
137079,105990
137147,106029
137126,106008
137157,106015
137122,106005
137149,106030
137230,106041
137180,106046
137214,106038
137245,106026
137214,106051
137296,106083
137302,106098
137344,106086
137364,106071
137365,106114
137408,106110
137473,106147
137480,106149
137505,106134
137519,106158
137574,106174
137605,106190
137597,106194
137649,106204
137638,106222
137690,106247
137688,106234
137712,106212
137697,106192
137755,106228
137746,106263
137752,106234
137767,106254
137772,106222
137747,106250
137792,106255
137811,106265
137773,106236
137795,106265
137803,106257
137792,106262
137770,106243
137829,106254
137799,106223
137842,106255
137805,106286
137790,106249
137810,106213
137799,106219
137805,106254
137763,106217
137802,106231
137772,106279
137772,106220
137765,106273
137799,106232
137819,106259
137781,106233
137758,106235
137819,106231
137825,106234
137837,106235
137841,106268
137857,106263
137911,106322
137904,106272
137917,106301
137938,106300
137924,106286
137969,106287
137972,106336
137987,106297
137994,106303
137984,106325
138045,106318
138035,106375
138048,106339
138083,106375
138119,106380
138128,106402
138193,106405
138198,106401
138227,106414
138231,106405
138259,106427
138296,106438
138286,106456
138291,106431
138324,106435
138367,106482
138378,106459
138383,106474
138404,106460
138471,106476
138462,106535
138487,106509
138506,106537
138522,106515
138598,106568
138619,106595
138603,106560
138681,106604
138728,106580
138744,106608
138731,106628
138746,106613
138751,106614
138746,106638
138777,106613
138773,106648
138829,106633
138828,106638
138829,106639
138834,106673
138867,106638
138869,106673
138890,106681
138940,106664
138929,106698
138969,106698
139014,106692
139027,106721
139006,106697
139056,106716
139068,106765
139047,106720
139083,106732
138989,106679
138960,106663
138952,106678
138841,106631
138729,106577
138656,106547
138556,106471
138431,106449
138338,106408
138245,106335
138164,106330
138092,106286
138003,106308
137935,106268
137845,106194
137778,106180
137683,106132
137603,106161
137496,106091
137436,106046
137394,106028
137322,106004
137253,105995
137244,105999
137155,105937
137140,105889
137103,105902
137032,105921
137022,105923
136989,105891
137006,105876
136943,105843
136967,105867
136942,105856
136933,105848
136885,105853
136882,105836
136899,105836
136906,105864
136870,105840
136898,105862
136893,105868
136921,105825
136937,105871
136916,105882
136945,105838
137010,105869
136989,105919
137010,105920
137010,105912
137067,105862
137131,105934
137132,105931
137158,105932
137150,105909
137228,105966
137211,105982
137217,105991
137242,105992
137263,105989
137290,105977
137356,106044
137348,106001
137392,106034
137374,106022
137379,105999
137414,106042
137425,106040
137434,106040
137420,106017
137428,106011
137452,106086
137444,106010
137440,106048
137413,106068
137401,106014
137455,106039
137403,106055
137423,106034
137443,106013
137432,106023
137433,106009
137370,106028
137420,106037
137390,105997
137384,105976
137402,106049
137382,105997
137354,106012
137400,106039
137347,106007
137361,105976
137368,106023
137365,106029
137374,106016
137390,106016
137379,105983
137400,106033
137401,106014
137402,106000
137434,106024
137438,106041
137479,106082
137475,106031
137505,106062
137480,106052
137544,106057
137536,106056
137550,106076
137530,106071
137587,106068
137576,106095
137612,106122
137610,106093
137581,106086
137609,106076
137691,106124
137689,106138
137736,106139
137686,106126
137763,106148
137805,106188
137839,106167
137858,106179
137899,106206
137904,106244
137916,106203
137955,106243
137996,106224
137977,106236
137998,106229
138081,106305
138082,106284
138067,106278
138104,106275
138114,106304
138164,106297
138180,106289
138187,106344
138223,106320
138271,106375
138308,106401
138359,106397
138359,106393
138424,106406
138416,106436
138443,106409
138505,106455
138495,106464
138557,106454
138620,106506
138600,106513
138617,106514
138694,106523
138690,106517
138669,106530
138695,106499
138659,106483
138615,106493
138556,106467
138488,106410
138420,106405
138332,106334
138198,106310
138109,106239
138062,106220
137967,106235
137898,106161
137828,106151
137759,106085
137697,106072
137649,106064
137574,106058
137546,106017
137454,105972
137440,105952
137441,106003
137370,105974
137330,105967
137295,105910
137353,105921
137320,105983
137292,105933
137313,105928
137295,105917
137292,105905
137347,105956
137324,105963
137316,105951
137307,105929
137357,105931
137364,105977
137367,105966
137388,105982
137406,105951
137443,106012
137486,105997
137498,106038
137513,106034
137515,106005
137575,106041
137601,106051
137627,106084
137668,106077
137728,106103
137761,106146
137787,106126
137873,106151
137871,106161
137946,106175
137967,106212
138016,106248
138064,106237
138085,106255
138156,106272
138185,106303
138212,106310
138271,106349
138278,106318
138281,106332
138309,106363
138361,106368
138357,106365
138364,106350
138387,106349
138369,106365
138355,106367
138366,106362
138340,106348
138315,106337
138329,106347
138300,106307
138285,106315
138282,106293
138220,106313
138283,106306
138236,106285
138201,106310
138221,106266
138255,106303
138195,106299
138225,106271
138261,106309
138228,106299
138247,106291
138252,106277
138296,106328
138279,106319
138265,106270
138298,106314
138251,106332
138270,106303
138304,106307
138297,106335
138303,106325
138381,106333
138357,106341
138368,106350
138358,106315
138372,106368
138409,106350
138416,106350
138417,106364
138459,106371
138495,106424
138505,106386
138532,106423
138593,106440
138530,106423
138554,106426
138652,106492
138645,106454
138642,106434
138657,106470
138672,106472
138695,106451
138687,106470
138719,106489
138699,106447
138768,106514
138742,106535
138758,106535
138782,106509
138832,106530
138847,106559
138860,106540
138877,106572
138877,106541
138952,106579
138962,106569
138986,106583
138998,106619
138982,106582
139025,106603
139021,106638
139049,106598
139061,106610
139107,106604
139062,106631
139128,106660
139146,106658
139155,106692
139146,106633
139182,106691
139219,106670
139229,106687
139234,106673
139263,106668
139243,106687
139287,106717
139238,106691
139199,106655
139178,106608
139073,106616
138971,106587
138902,106489
138797,106481
138633,106435
138546,106355
138485,106343
138386,106299
138298,106247
138174,106238
138131,106172
138107,106169
137992,106186
137968,106140
137905,106089
137827,106084
137745,106070
137745,106020
137658,106027
137605,105980
137559,105966
137482,105972
137446,105956
137457,105930
137396,105931
137401,105930
137375,105889
137425,105941
137380,105946
137397,105923
137369,105933
137369,105931
137396,105910
137425,105936
137384,105941
137390,105934
137453,105929
137491,105960
137483,105972
137468,105971
137481,105941
137536,105971
137537,105999
137544,106000
137606,105984
137621,106027
137667,106018
137703,106039
137709,106083
137709,106062
137792,106096
137816,106092
137882,106127
137890,106136
137890,106105
137955,106131
137961,106177
138009,106183
138060,106189
138032,106211
138098,106192
138085,106222
138107,106198
138188,106212
138148,106248
138176,106269
138201,106266
138201,106241
138199,106242
138238,106233
138244,106254
138265,106288
138248,106259
138278,106289
138210,106225
138230,106278
138224,106284
138198,106225
138220,106231
138176,106225
138200,106233
138196,106228
138213,106207
138197,106238
138173,106207
138208,106222
138230,106211
138218,106257
138200,106248
138225,106217
138217,106243
138196,106256
138226,106229
138234,106253
138284,106241
138286,106302
138325,106287
138289,106268
138333,106252
138339,106328
138360,106301
138372,106311
138396,106332
138386,106289
138426,106359
138444,106322
138471,106332
138507,106337
138470,106355
138519,106363
138492,106365
138543,106399
138538,106379
138562,106342
138560,106401
138602,106395
138644,106403
138677,106417
138714,106420
138720,106448
138777,106482
138759,106504
138800,106478
138865,106476
138849,106514
138878,106527
138927,106535
138971,106548
138955,106568
138995,106551
138978,106555
139042,106599
139041,106599
139040,106536
139087,106590
139088,106603
139132,106627
139102,106608
139124,106594
139168,106616
139192,106615
139206,106680
139193,106670
139242,106620
139271,106665
139253,106658
139301,106666
139297,106664
139257,106690
139252,106666
139253,106661
139211,106640
139157,106595
139125,106618
139046,106525
138918,106509
138827,106471
138716,106447
138576,106323
138450,106340
138435,106279
138321,106250
138238,106228
138144,106173
138077,106129
137984,106101
137916,106080
137809,106059
137739,105987
137680,105952
137547,105976
137511,105916
137435,105890
137345,105825
137298,105799
137231,105841
137158,105786
137122,105748
137112,105760
137064,105730
136987,105722
136969,105708
136977,105720
136887,105676
136898,105681
136936,105704
136902,105713
136884,105672
136889,105669
136929,105664
136882,105710
136893,105670
136936,105708
136873,105651
136927,105698
136958,105730
136939,105714
136959,105725
136988,105693
136994,105708
137050,105749
137016,105751
137023,105707
137068,105755
137110,105751
137083,105783
137146,105755
137205,105777
137160,105821
137252,105853
137228,105845
137304,105826
137371,105866
137341,105863
137374,105883
137460,105901
137423,105924
137425,105868
137484,105909
137509,105929
137497,105951
137501,105938
137478,105923
137521,105910
137503,105914
137489,105951
137487,105917
137524,105925
137535,105900
137529,105918
137534,105921
137500,105937
137470,105893
137520,105910
137489,105907
137493,105918
137496,105867
137486,105907
137458,105876
137489,105915
137466,105932
137441,105901
137487,105858
137441,105904
137459,105900
137494,105896
137514,105884
137485,105895
137458,105923
137500,105899
137518,105916
137531,105947
137534,105889
137547,105960
137570,105914
137594,105986
137606,105937
137622,105955
137686,105949
137664,105988
137683,106018
137691,105972
137718,105964
137717,105997
137782,106041
137827,106048
137821,106036
137788,105992
137862,106065
137873,106054
137922,106053
137887,106086
137957,106105
137970,106082
137983,106109
138029,106152
138055,106125
138009,106103
138080,106146
138099,106149
138080,106156
138130,106144
138117,106146
138170,106175
138167,106199
138188,106203
138227,106200
138246,106193
138237,106212
138282,106233
138305,106259
138330,106237
138349,106237
138361,106239
138424,106308
138437,106291
138433,106280
138448,106303
138505,106299
138479,106291
138500,106331
138479,106326
138534,106279
138552,106333
138589,106342
138604,106329
138589,106349
138572,106290
138575,106340
138615,106321
138584,106354
138478,106291
138409,106209
138375,106222
138276,106188
138154,106130
138076,106093
137925,106038
137859,106015
137832,106008
137714,105957
137619,105874
137533,105859
137446,105835
137403,105791
137262,105797
137187,105725
137124,105693
137043,105666
137025,105658
136920,105663
136887,105600
136804,105562
136809,105564
136752,105597
136684,105563
136630,105527
136598,105516
136590,105495
136636,105532
136564,105483
136557,105484
136523,105472
136558,105511
136558,105501
136555,105490
136551,105481
136571,105505
136542,105515
136611,105511
136630,105556
136623,105533
136661,105508
136668,105524
136740,105559
136735,105577
136710,105568
136780,105586
136829,105576
136826,105614
136832,105626
136860,105588
136915,105660
136916,105658
136937,105652
136955,105679
136989,105622
137028,105696
137036,105682
137130,105743
137127,105728
137144,105722
137165,105741
137219,105779
137227,105732
137274,105784
137283,105767
137311,105807
137283,105811
137331,105769
137333,105804
137353,105760
137351,105787
137359,105825
137345,105782
137326,105811
137358,105794
137327,105791
137347,105801
137315,105773
137313,105786
137326,105757
137348,105763
137302,105773
137339,105806
137306,105773
137306,105753
137323,105789
137322,105784
137293,105772
137341,105793
137277,105800
137316,105762
137384,105790
137325,105828
137334,105805
137348,105803
137357,105784
137440,105811
137417,105848
137436,105843
137432,105803
137468,105847
137524,105880
137465,105833
137488,105855
137506,105869
137530,105852
137593,105891
137572,105881
137632,105910
137586,105900
137667,105916
137695,105948
137704,105912
137728,105921
137748,105951
137758,105978
137788,105981
137852,106021
137893,106015
137917,106004
137903,106027
137949,106004
138009,106089
138009,106079
138033,106073
138027,106061
138101,106062
138091,106132
138089,106098
138141,106088
138150,106100
138173,106125
138221,106159
138215,106116
138251,106124
138288,106192
138297,106196
138310,106149
138349,106170
138343,106193
138360,106205
138378,106200
138406,106239
138391,106221
138436,106244
138444,106224
138521,106241
138519,106275
138502,106246
138590,106263
138589,106319
138587,106305
138649,106294
138636,106321
138587,106310
138612,106314
138626,106304
138569,106261
138476,106221
138431,106195
138296,106145
138231,106101
138104,106042
138027,105999
137878,105969
137838,105924
137775,105918
137657,105863
137585,105823
137480,105824
137419,105754
137390,105765
137311,105736
137211,105682
137178,105686
137099,105642
137034,105604
137034,105616
136948,105559
136925,105537
136877,105575
136816,105545
136802,105552
136788,105510
136797,105521
136743,105499
136770,105503
136727,105498
136747,105480
136740,105507
136750,105507
136758,105506
136796,105504
136809,105517
136783,105532
136843,105535
136858,105563
136884,105537
136908,105580
136898,105545
136935,105578
136967,105609
136988,105573
136960,105620
136993,105596
137106,105646
137078,105668
137125,105666
137139,105666
137173,105700
137213,105737
137284,105705
137315,105736
137317,105758
137408,105783
137408,105785
137409,105796
137455,105782
137461,105774
137493,105796
137502,105831
137490,105844
137461,105819
137507,105775
137492,105856
137506,105837
137508,105828
137494,105844
137472,105768
137549,105845
137531,105851
137542,105805
137531,105783
137472,105795
137485,105808
137501,105853
137494,105791
137504,105814
137449,105758
137452,105803
137449,105791
137450,105809
137409,105771
137435,105748
137415,105805
137423,105762
137461,105791
137440,105802
137421,105749
137426,105774
137472,105804
137474,105765
137483,105790
137447,105789
137526,105801
137549,105841
137516,105845
137543,105795
137508,105821
137563,105825
137625,105848
137617,105868
137618,105860
137605,105869
137645,105862
137709,105858
137676,105919
137689,105882
137705,105882
137726,105900
137750,105883
137821,105951
137772,105919
137832,105922
137856,105924
137885,105973
137866,105949
137917,105940
137945,106007
137977,106016
137928,105995
137973,106012
137998,106017
137995,106006
138012,106004
138014,106039
138065,106019
138037,106035
138070,106008
138136,106068
138128,106080
138113,106055
138152,106053
138208,106069
138220,106111
138209,106091
138280,106123
138262,106111
138326,106135
138329,106165
138368,106144
138409,106182
138358,106140
138374,106181
138389,106186
138365,106134
138330,106140
138312,106088
138271,106104
138236,106055
138091,106036
138040,105965
137967,105948
137858,105920
137791,105891
137736,105877
137627,105803
137558,105787
137470,105732
137443,105716
137373,105697
137258,105679
137188,105617
137177,105615
137102,105621
137050,105539
136991,105548
136932,105513
136825,105523
136825,105466
