11111,11111
0,0
82448,82430
136733,112350
141846,112372
141842,112361
141863,112360
141793,112336
141809,112314
141818,112308
141836,112324
141816,112302
141820,112313
141773,112329
141818,112288
141852,112327
141850,112291
141817,112278
141844,112349
141861,112293
141857,112311
141864,112310
141835,112306
141838,112265
141916,112328
141904,112345
141849,112298
141851,112289
141906,112292
141950,112326
141926,112359
141918,112293
141942,112306
141950,112308
141980,112334
142022,112324
141981,112377
141970,112303
142033,112337
142012,112364
142047,112349
142074,112354
142035,112359
142062,112325
142138,112345
142108,112362
142134,112344
142132,112334
142136,112383
142151,112339
142227,112379
142200,112364
142177,112331
142209,112359
142203,112383
142233,112370
142245,112388
142235,112373
142284,112383
142283,112411
142308,112373
142309,112398
142276,112364
142331,112392
142314,112391
142345,112404
142333,112422
142306,112379
142354,112400
142349,112402
142382,112406
142294,112402
142285,112339
142353,112410
142348,112362
142310,112378
142268,112340
142208,112328
142192,112328
142210,112292
142149,112283
142130,112272
142044,112216
142105,112234
142017,112225
141957,112172
141964,112176
141903,112131
141877,112145
141874,112145
141850,112141
141754,112092
141730,112065
141747,112119
141721,112081
141715,112092
141631,112060
141606,112042
141638,112040
141612,112080
141599,112014
141589,112064
141519,112014
141571,112048
141541,112064
141550,112042
141538,112021
141523,111998
141586,112069
141576,112034
141579,112012
141566,112046
141542,112042
141601,112045
141607,112080
141590,112058
141614,112026
141623,112061
141639,112054
141668,112092
141657,112081
141655,112052
141653,112065
141737,112105
141727,112094
141709,112095
141768,112046
141671,112010
141661,112004
141784,112030
141784,112011
141787,112004
141809,112035
141865,112030
141909,112026
141931,112056
141921,112027
141963,112035
141681,111924
141590,111851
141555,111871
141523,111818
141511,111822
141464,111789
141334,111769
141319,111734
141299,111755
141243,111758
141180,111711
141170,111699
141119,111703
141122,111677
141100,111663
141099,111662
141012,111651
141019,111630
140978,111677
140960,111641
140942,111628
140895,111561
140965,111615
140891,111630
140912,111610
140894,111574
140895,111568
140929,111583
140886,111609
140906,111611
140883,111580
140877,111582
140889,111601
140926,111581
140930,111588
140924,111600
140874,111550
140934,111587
140953,111576
140982,111582
140944,111619
140925,111571
140993,111607
141010,111619
141016,111620
141008,111593
141026,111591
141036,111642
141020,111604
141067,111625
141084,111612
141072,111622
141051,111642
141109,111615
141110,111647
141083,111637
141073,111621
141087,111598
141121,111637
141119,111640
141056,111621
141051,111606
141081,111603
141088,111644
141048,111613
141073,111588
141074,111607
141055,111581
141050,111576
141066,111594
141049,111575
141001,111603
140996,111566
141005,111562
140975,111549
140992,111533
140972,111540
140969,111575
140952,111533
140982,111547
140952,111524
140927,111514
140948,111561
140933,111507
140962,111538
140920,111510
140917,111548
140913,111552
140951,111531
140939,111526
140910,111505
140914,111517
140959,111495
141005,111572
140966,111541
140974,111547
140928,111521
140984,111546
141034,111544
141013,111549
141022,111549
140982,111538
141029,111535
141090,111575
141064,111558
141082,111555
141010,111551
141050,111534
141108,111570
141117,111546
141078,111559
141093,111564
141110,111558
141099,111590
141132,111557
141140,111536
141128,111560
141183,111575
141182,111584
141220,111561
141164,111551
141229,111589
141195,111584
141244,111611
141232,111577
141214,111571
141227,111585
141270,111589
141276,111612
141295,111601
141246,111566
141310,111591
141307,111636
141317,111605
141322,111600
141283,111574
141335,111590
141314,111643
141330,111620
141354,111622
141288,111612
141341,111591
141383,111614
141359,111642
141347,111602
141340,111597
141351,111628
141337,111630
141341,111613
141380,111595
141299,111602
141325,111580
141311,111584
141257,111563
141232,111572
141106,111508
141103,111496
141098,111484
141049,111477
140954,111447
140866,111378
140869,111385
140819,111409
140775,111363
140712,111315
140614,111312
140577,111277
140557,111318
140493,111275
140410,111248
140389,111213
140351,111212
140300,111198
140278,111181
140232,111164
140165,111144
140181,111162
140193,111131
140151,111147
140081,111115
140076,111089
140025,111110
140082,111108
140027,111100
140006,111040
140028,111093
139995,111064
140041,111058
140026,111073
139996,111091
139971,111049
140024,111051
140029,111071
140044,111085
140030,111065
140037,111063
140061,111100
140032,111058
140083,111082
140073,111079
140023,111051
140115,111074
140143,111106
140115,111095
140113,111079
140135,111099
140168,111108
140224,111110
140186,111107
140175,111093
140184,111101
140217,111102
140198,111129
140198,111093
140161,111117
140139,111081
140182,111106
140234,111122
140187,111099
140176,111080
140140,111091
140164,111106
140156,111051
140150,111041
140115,111059
140072,111039
140105,111050
140125,111065
140071,111057
140040,111002
140072,111018
140060,111051
140036,111009
140049,111021
139970,110984
139953,110974
139982,110987
139977,111011
139950,110973
139894,110990
139867,110970
139897,110965
139881,110933
139870,110965
139794,110915
139838,110927
139827,110923
139821,110964
139832,110943
139788,110924
139796,110941
139801,110945
139792,110941
139814,110922
139762,110921
139766,110896
139808,110905
139808,110931
139787,110919
139760,110893
139745,110913
139810,110889
139799,110954
139772,110896
139790,110913
139788,110923
139802,110921
139829,110929
139825,110940
139792,110879
139822,110910
139825,110962
139870,110934
139823,110919
139846,110954
139815,110920
139883,110984
139891,110936
139878,110951
139863,110909
139916,110945
139906,110982
139933,110962
139933,110965
139943,110960
139927,110970
139970,110949
139978,110999
140003,110950
139959,110951
139973,110989
140021,111000
140034,110993
139998,110976
139983,110927
140021,111012
140052,111018
140022,111000
140043,110960
140056,110977
140058,110998
140104,111014
140086,111000
140081,110987
140060,111006
140090,110979
140079,110994
140069,111002
140030,110965
140032,110933
140026,110971
139963,110918
139955,110948
139839,110889
139800,110866
139787,110878
139753,110866
139672,110832
139613,110805
139498,110755
139461,110751
139379,110738
139345,110722
139259,110677
139176,110649
139164,110640
139108,110611
139028,110584
138967,110562
138909,110545
138892,110539
138874,110561
138829,110518
138769,110477
138728,110469
138758,110489
138706,110506
138686,110485
138699,110467
138658,110470
138704,110467
138691,110464
138689,110455
138649,110503
138682,110463
138717,110504
138713,110468
138714,110467
138693,110487
138735,110460
138761,110497
138754,110477
138808,110487
138755,110499
138787,110475
138802,110529
138849,110506
138851,110533
138795,110488
138850,110521
138891,110551
138898,110520
138927,110524
138897,110553
138931,110558
138991,110572
139013,110585
138995,110566
138952,110554
139018,110565
139064,110585
139022,110584
139032,110592
139007,110558
139061,110587
139040,110589
139033,110560
139049,110584
138997,110561
139016,110558
139045,110602
139062,110582
139022,110574
139008,110562
138989,110572
139014,110585
139025,110591
138986,110547
138940,110557
138979,110559
138959,110564
138942,110546
138931,110512
138868,110527
138880,110534
138918,110537
138864,110491
138844,110473
138835,110484
138849,110510
138841,110513
138835,110497
138824,110466
138834,110484
138839,110505
138859,110517
138864,110524
138819,110461
138832,110483
138841,110523
138846,110493
138861,110509
138855,110530
138820,110474
138867,110509
138910,110530
138876,110498
138891,110495
138839,110516
138917,110509
138926,110510
138953,110537
138912,110556
138892,110486
138947,110533
138955,110541
138946,110525
138985,110539
138909,110517
138964,110530
139011,110557
139009,110537
139015,110578
138973,110519
139048,110549
139036,110584
139041,110569
139056,110543
139040,110573
139074,110570
139129,110587
139110,110604
139083,110584
139134,110608
139124,110609
139162,110620
139148,110605
139136,110592
139157,110616
139213,110617
139230,110632
139223,110623
139221,110625
139156,110606
139247,110642
139252,110631
139253,110631
139286,110666
139249,110637
139315,110684
139326,110698
139308,110649
139264,110690
139289,110673
139273,110682
139294,110684
139258,110651
139209,110659
139134,110620
139137,110596
139137,110624
139074,110577
138965,110537
138952,110532
138916,110524
138884,110477
138802,110467
138727,110429
138642,110416
138615,110418
138537,110362
138467,110357
138401,110313
138325,110334
138308,110284
138275,110305
138191,110248
138108,110240
138098,110220
138028,110203
138022,110184
137932,110176
137922,110119
137907,110165
137927,110166
137857,110149
137867,110134
137859,110147
137873,110143
137894,110148
137850,110150
137840,110117
137885,110131
137890,110135
137909,110167
137934,110150
137951,110180
137912,110175
137933,110169
138007,110191
138009,110157
138029,110203
137973,110168
138014,110199
138044,110222
138101,110229
138107,110209
138078,110216
138153,110261
138182,110284
138214,110283
138199,110278
138214,110270
138257,110309
138254,110291
138330,110302
138347,110312
138288,110314
138355,110348
138358,110351
138373,110319
138392,110338
138381,110295
138428,110338
138410,110366
138439,110312
138431,110335
138370,110336
138448,110335
138441,110372
138387,110334
138414,110316
138384,110341
138402,110330
138445,110358
138428,110323
138402,110339
138336,110302
138407,110336
138412,110329
138440,110340
138385,110340
138404,110331
138398,110361
138373,110317
138428,110344
138402,110325
138360,110320
138420,110346
138391,110332
138445,110337
138399,110340
138385,110308
138421,110339
138429,110341
138459,110369
138456,110324
138435,110362
138477,110375
138478,110377
138505,110397
138504,110365
138481,110371
138539,110375
138591,110410
138561,110403
138592,110393
138572,110422
138612,110414
138697,110440
138684,110421
138689,110423
138659,110435
138734,110459
138738,110484
138720,110444
138739,110464
138765,110488
138816,110526
138835,110523
138823,110498
138832,110479
138864,110498
138892,110524
138944,110529
138959,110556
138892,110550
138935,110550
138941,110563
139016,110579
138989,110563
139006,110560
138997,110580
139043,110571
139087,110613
139096,110607
139047,110563
139104,110603
139133,110623
139138,110600
139131,110618
139175,110607
139144,110613
139231,110663
139250,110630
139246,110656
139192,110636
139237,110627
139261,110638
139249,110667
139165,110625
139166,110594
139170,110589
139152,110596
139115,110591
139027,110584
138969,110507
138970,110535
138949,110511
138892,110495
138828,110478
138719,110423
138716,110456
138661,110452
138628,110365
138576,110400
138478,110360
138460,110382
138448,110375
138385,110336
138311,110339
138288,110285
138292,110299
138277,110335
138227,110289
138195,110298
138169,110278
138176,110296
138199,110269
138202,110296
138171,110273
138189,110270
138213,110259
138236,110300
138219,110259
138253,110293
138206,110277
138246,110303
138271,110293
138258,110329
138254,110284
138284,110297
138301,110336
138317,110307
138315,110354
138322,110299
138351,110315
138370,110359
138424,110320
138420,110357
138437,110356
138388,110331
138448,110372
138522,110388
138487,110387
138494,110382
138518,110358
138550,110383
138603,110430
138560,110410
138567,110385
138603,110397
138624,110419
138598,110417
138609,110393
138621,110408
138575,110428
138635,110441
138638,110430
138641,110409
138592,110414
138602,110378
138659,110413
138614,110408
138601,110394
138573,110407
138561,110367
138586,110393
138544,110400
138551,110365
138520,110389
138525,110383
138541,110395
138521,110352
138520,110388
138500,110362
138457,110341
138533,110395
138499,110375
138511,110346
138496,110361
138474,110356
138532,110375
138531,110390
138519,110355
138495,110342
138551,110362
138572,110366
138580,110383
138573,110376
138546,110359
138592,110400
138615,110421
138623,110373
138599,110430
138616,110382
138615,110402
138640,110391
138708,110444
138659,110440
138655,110400
138719,110442
138750,110458
138738,110435
138761,110430
138728,110429
138769,110431
138800,110474
138802,110459
138796,110445
138830,110469
138821,110490
138858,110492
138887,110533
138851,110501
138866,110461
138900,110508
138935,110503
138975,110520
138914,110499
138934,110470
138958,110531
138980,110522
139016,110518
138979,110510
138939,110543
138992,110532
139042,110521
139033,110541
139028,110525
139033,110514
139069,110568
139083,110586
139105,110536
139089,110548
139075,110521
139080,110561
139110,110574
139136,110572
139115,110595
139095,110554
139120,110589
139152,110582
139105,110555
139065,110537
139015,110550
139026,110518
139012,110533
138957,110470
138904,110471
138777,110438
138800,110424
138753,110447
138680,110400
138610,110367
138541,110359
138537,110358
138443,110314
138414,110308
138319,110270
138311,110262
138271,110272
138268,110258
138248,110234
138180,110211
138164,110205
138139,110203
138170,110200
138156,110200
138077,110173
138080,110166
138125,110174
138116,110190
138114,110187
138098,110178
138071,110177
138139,110183
138106,110172
138136,110215
138129,110175
138109,110170
138173,110201
138172,110219
138173,110184
138169,110211
138157,110187
138235,110216
138243,110249
138259,110231
138245,110220
138263,110212
138311,110250
138332,110276
138320,110240
138338,110261
138328,110236
138395,110287
138385,110326
138428,110292
138384,110304
138437,110291
138479,110337
138479,110314
138488,110335
138433,110304
138497,110323
138516,110358
138523,110319
138493,110339
138505,110306
138543,110321
138552,110364
138581,110368
138546,110308
138560,110323
138529,110317
138581,110330
138571,110336
138546,110331
138517,110321
138538,110359
138537,110345
138540,110316
138541,110347
138471,110319
138529,110324
138587,110339
138543,110353
138517,110340
138470,110267
138511,110343
138525,110320
138573,110362
138553,110323
138496,110334
138541,110333
138581,110346
138560,110360
138568,110322
138556,110332
138572,110370
138613,110394
138637,110371
138637,110346
138623,110369
138626,110373
138679,110368
138705,110381
138698,110360
138697,110374
138694,110382
138748,110401
138779,110398
138751,110412
138754,110370
138793,110445
138797,110422
138828,110439
138857,110456
138834,110442
138897,110440
138910,110430
138932,110495
138904,110470
138914,110431
138972,110486
139003,110506
139014,110464
138986,110468
138978,110502
139011,110493
139046,110507
139068,110538
139048,110514
139042,110490
139108,110539
139130,110553
139128,110519
139136,110548
139114,110522
139176,110555
139174,110584
139190,110545
139164,110559
139167,110562
139235,110586
139243,110583
139210,110577
139212,110547
139206,110548
139257,110574
139327,110596
139295,110623
139255,110596
139284,110557
139330,110640
139346,110627
139344,110630
139322,110590
139332,110594
139365,110656
139380,110620
139407,110650
139352,110625
139388,110626
139394,110665
139371,110614
139333,110614
139277,110562
139293,110571
139272,110585
139259,110552
139149,110540
139117,110510
139069,110467
139052,110508
139027,110458
138946,110449
138852,110405
138844,110424
138844,110416
138835,110409
138739,110379
138703,110322
138668,110346
138663,110360
138645,110322
138612,110352
138541,110297
138604,110311
138586,110341
138593,110286
138547,110269
138535,110268
138520,110289
138554,110307
138561,110276
138550,110278
138553,110294
138568,110308
138599,110324
138627,110298
138633,110322
138615,110327
138590,110292
138605,110328
138677,110325
138642,110339
138631,110311
138683,110325
138713,110340
138724,110342
138717,110344
138683,110352
138720,110331
138748,110349
138776,110377
138735,110355
138726,110338
138814,110368
138835,110405
138821,110372
138807,110420
138790,110366
138833,110404
138856,110402
138861,110398
138865,110416
138863,110397
138921,110425
138904,110440
138910,110409
138936,110441
138906,110411
138923,110433
138953,110425
138951,110439
138903,110403
138930,110401
138958,110406
138961,110440
138960,110438
138929,110397
138896,110394
138952,110401
138986,110407
138970,110428
138960,110434
138941,110395
138974,110390
138987,110415
138996,110430
138976,110393
138921,110422
138959,110418
138987,110420
138992,110443
138980,110387
138951,110419
139039,110411
139042,110435
138999,110451
139021,110429
138985,110426
139075,110431
139068,110457
139060,110433
139079,110439
139065,110449
139126,110474
139142,110492
139134,110479
139119,110469
139123,110472
139175,110463
139234,110473
139232,110497
139197,110495
139218,110476
139270,110531
139290,110531
139282,110482
139268,110511
139300,110506
139328,110543
139353,110525
139357,110530
139360,110524
139354,110531
139406,110539
139410,110537
139427,110582
139415,110557
139414,110577
139446,110582
139474,110583
139438,110605
139417,110595
139477,110584
139527,110589
139541,110635
139537,110599
139503,110595
139529,110629
139583,110632
139591,110630
139597,110634
139587,110638
139558,110619
139634,110638
139666,110666
139648,110661
139612,110643
139639,110671
139703,110659
139739,110689
139706,110652
139687,110657
139733,110674
139763,110696
139787,110710
139764,110672
139752,110692
139788,110669
139809,110709
139861,110704
139835,110723
139781,110686
139844,110712
139897,110734
139878,110725
139900,110700
139870,110716
139899,110715
139938,110756
139926,110724
139926,110740
139874,110720
139923,110698
139920,110743
139891,110696
139816,110719
139797,110654
139815,110685
139778,110672
139761,110634
139687,110637
139620,110594
139618,110596
139571,110572
139549,110601
139476,110529
139411,110507
139436,110516
139375,110514
139338,110488
139323,110506
139236,110474
139260,110455
139242,110475
139208,110460
139160,110429
139128,110410
139164,110467
139155,110442
139131,110414
139103,110443
139078,110386
139113,110442
139140,110442
139105,110412
139116,110408
139096,110435
139106,110387
139131,110423
139138,110447
139114,110422
139077,110432
139161,110397
139180,110418
139176,110469
139119,110408
139153,110408
139175,110439
139203,110426
139173,110459
139167,110402
139172,110406
139179,110438
139211,110422
139219,110435
139186,110442
139163,110403
139288,110455
139258,110449
139241,110418
139199,110431
139256,110423
139277,110479
139280,110467
139281,110469
139254,110465
139295,110449
139315,110479
139313,110472
139374,110462
139297,110449
139335,110447
139374,110494
139338,110462
139353,110470
139316,110475
139348,110441
139326,110491
139319,110467
139345,110455
139296,110464
139278,110435
139328,110483
139300,110469
139269,110437
139273,110428
139306,110458
139324,110482
139327,110484
139300,110427
139291,110431
139284,110448
139333,110483
139351,110486
139305,110464
139303,110457
139343,110444
139336,110468
139378,110508
139347,110497
139351,110444
139364,110496
139414,110489
139439,110497
139418,110492
139404,110459
139433,110504
139473,110521
139466,110506
139497,110540
139465,110499
139494,110510
139534,110516
139559,110549
139536,110532
139552,110513
139582,110528
139585,110559
139622,110564
139580,110561
139574,110532
139643,110559
139677,110572
139678,110586
139665,110552
139658,110543
139695,110571
139718,110589
139741,110619
139731,110594
139695,110581
139764,110589
139757,110606
139782,110605
139736,110606
139734,110578
139826,110630
139822,110600
139845,110628
139768,110629
139768,110588
139856,110619
139892,110624
139874,110641
139847,110613
139882,110599
139881,110664
139911,110641
139926,110677
139903,110627
139923,110631
139944,110684
139950,110672
139965,110667
139938,110648
139950,110636
139995,110699
139995,110675
140035,110665
139976,110676
140011,110644
140055,110697
140008,110691
140046,110670
139981,110699
140017,110677
140061,110706
140079,110717
140020,110704
140032,110717
140000,110694
140049,110716
140046,110697
140103,110723
140040,110676
140068,110696
140079,110708
140111,110699
140093,110743
140084,110698
140048,110697
140121,110749
140166,110724
140117,110711
140118,110707
140124,110726
140114,110708
140160,110710
140106,110698
140054,110661
140035,110673
140059,110661
140033,110664
139936,110648
139876,110595
139875,110585
139850,110597
139794,110583
139759,110528
139684,110511
139643,110515
139655,110499
139635,110510
139556,110505
139461,110450
139446,110418
139480,110466
139462,110447
139373,110411
139346,110361
139347,110395
139342,110406
139302,110387
139276,110390
139257,110356
139213,110375
139262,110351
139284,110364
139216,110382
139159,110329
139223,110341
139270,110413
139244,110400
139222,110331
139241,110361
139235,110377
139236,110371
139268,110366
139255,110393
139214,110321
139284,110356
139274,110380
139310,110401
139293,110383
139291,110357
139289,110361
139340,110394
139344,110386
139301,110411
139278,110383
139347,110394
139363,110418
139377,110413
139351,110377
139331,110380
139387,110386
139407,110403
139420,110432
139399,110391
139333,110400
139408,110406
139447,110409
139439,110438
139407,110390
139395,110385
139459,110416
139462,110419
139451,110379
139462,110378
139425,110422
139444,110433
139484,110407
139444,110433
139417,110402
139440,110389
139404,110442
139464,110411
139411,110403
139383,110400
139363,110367
139465,110417
139417,110410
139428,110391
139386,110384
139382,110384
139444,110406
139480,110413
139417,110423
139421,110391
139370,110392
139450,110417
139462,110380
139431,110404
139461,110388
139427,110374
139476,110435
139481,110402
139460,110416
139447,110405
139460,110388
139514,110419
139517,110415
139489,110428
139477,110394
139503,110423
139516,110443
139551,110450
139535,110419
139493,110417
139515,110406
139595,110450
139573,110456
139556,110418
139558,110454
139545,110433
139604,110458
139606,110423
139632,110466
139601,110447
139586,110472
139670,110475
139696,110468
139661,110473
139662,110452
139655,110465
139716,110486
139716,110482
139715,110483
139663,110471
139705,110458
139744,110509
139738,110492
139735,110480
139705,110478
139747,110520
139770,110479
139761,110495
139754,110489
139751,110483
139756,110519
139764,110499
139797,110518
139772,110485
139735,110490
139797,110502
139811,110510
139780,110537
139807,110505
139784,110520
139772,110483
139844,110557
139828,110519
139816,110487
139806,110485
139819,110522
139866,110521
139861,110535
139832,110526
139801,110493
139839,110503
139854,110502
139871,110538
139892,110501
139833,110518
139848,110529
139921,110540
139914,110542
139877,110533
139883,110496
139896,110537
139938,110539
139952,110553
139922,110559
139923,110553
139913,110551
139982,110531
139972,110558
139934,110525
139888,110528
139966,110552
139944,110566
139937,110569
139979,110545
139957,110544
139998,110565
139984,110578
139991,110540
139963,110561
139890,110504
139960,110518
139915,110552
139885,110520
139835,110490
139790,110477
139736,110455
139742,110468
139658,110441
139609,110395
139530,110350
139547,110364
139506,110359
139422,110321
139356,110338
139291,110301
139301,110283
139257,110272
139201,110264
139123,110189
139064,110205
139080,110197
139088,110190
139033,110212
138966,110123
138965,110165
138922,110161
138963,110173
138936,110145
138868,110124
138876,110124
138896,110152
138899,110133
138894,110127
138866,110110
138868,110140
138873,110121
138900,110140
138857,110129
138832,110109
138839,110112
138898,110145
138887,110140
138891,110094
138849,110111
138880,110087
138912,110112
138942,110159
138873,110126
138866,110121
138898,110106
138910,110139
138924,110105
138958,110144
138908,110114
138957,110143
138966,110160
139007,110182
138969,110152
138994,110127
139006,110163
139045,110169
139040,110161
139028,110151
139019,110174
139011,110156
139078,110139
139048,110167
138997,110157
138982,110139
138983,110147
139023,110134
139022,110157
138967,110126
138968,110128
138956,110131
138989,110146
138974,110146
138886,110083
138868,110098
138863,110099
138917,110135
138868,110101
138892,110104
138800,110070
138853,110086
138847,110060
138860,110093
138841,110085
138759,110044
138800,110059
138841,110100
138791,110083
138801,110052
138772,110033
138834,110084
138816,110059
138828,110095
138797,110069
138776,110067
138798,110083
138835,110058
138844,110088
138810,110031
138780,110061
138808,110080
138838,110076
138825,110099
138837,110058
138815,110084
138845,110076
138929,110119
138899,110110
138887,110095
138872,110077
138919,110087
138931,110117
138972,110125
138918,110115
138908,110087
138998,110137
138986,110121
138978,110124
138961,110111
138973,110114
139013,110148
139022,110141
138996,110140
138988,110111
138990,110118
139024,110137
139030,110146
139034,110136
139002,110129
139013,110131
138989,110135
139084,110156
139047,110170
139042,110140
139011,110111
139056,110155
139078,110137
139095,110138
139045,110106
139073,110171
139058,110164
139112,110172
139064,110154
139074,110155
139064,110166
139086,110167
139089,110185
139070,110157
139043,110166
139056,110145
139086,110152
139128,110178
139078,110162
139069,110152
139088,110139
139111,110189
139136,110174
139102,110150
139105,110160
139098,110176
139120,110166
139160,110201
139131,110185
139140,110148
139156,110179
139155,110212
139180,110201
139135,110181
139135,110172
139142,110166
139198,110197
139174,110179
139125,110181
139091,110116
139069,110136
139089,110157
139056,110159
138992,110108
138943,110062
138930,110075
138884,110089
138850,110035
138800,110024
138700,109999
138641,109980
138633,109965
138589,109939
138527,109930
138431,109891
138400,109888
138444,109875
138374,109887
138299,109873
138266,109811
138240,109855
138217,109825
138192,109790
138191,109794
138122,109788
138110,109769
138160,109785
138113,109799
138088,109787
138042,109768
138062,109765
138070,109782
138058,109779
138063,109745
138030,109736
138100,109780
138069,109758
138103,109765
138080,109800
138071,109759
138098,109756
138146,109825
138143,109812
138146,109782
138134,109786
138134,109837
138150,109775
138186,109803
138168,109808
138108,109784
138205,109823
138222,109833
138187,109836
138178,109831
138189,109791
138224,109815
138296,109862
138270,109863
138268,109805
138280,109826
138303,109880
138325,109871
138327,109869
138326,109858
138291,109862
138326,109868
138367,109881
138333,109891
138298,109862
138294,109876
138307,109858
138377,109874
138327,109875
138292,109880
138289,109844
138283,109863
138290,109867
138334,109840
138272,109844
138239,109830
138284,109851
138287,109865
138289,109840
138215,109826
138262,109808
138272,109853
138289,109852
138290,109857
138239,109810
138258,109833
138266,109875
138255,109869
138286,109829
138221,109814
138244,109846
138265,109820
138288,109865
138274,109864
138256,109831
138265,109838
138310,109847
138320,109857
138274,109843
138238,109862
138266,109849
138300,109880
138302,109867
138298,109836
138298,109836
138311,109820
138372,109862
138346,109879
138321,109870
138341,109852
138347,109868
138399,109881
138408,109896
138366,109905
138396,109851
138398,109890
138420,109902
138430,109912
138411,109903
138420,109885
138475,109932
138477,109909
138479,109919
138488,109917
138456,109924
138512,109907
138550,109962
138551,109940
138533,109920
138525,109898
138567,109930
138595,109975
138594,109966
138577,109947
138565,109944
138596,109967
138656,109968
138682,109973
138640,110000
138628,109944
138691,109993
138704,110021
138716,110014
138684,109999
138680,109954
138739,110040
138741,109993
138745,110016
138740,110038
138704,110002
138765,109998
138813,110056
138793,110035
138746,110005
138768,110036
138807,110039
138839,110055
138836,110079
138811,110035
138789,110049
138840,110026
138836,110079
138860,110046
138907,110061
138856,110032
138866,110066
138889,110082
138908,110077
138838,110063
138823,110019
138835,110023
138811,110041
138783,110045
138679,110006
138629,109945
138636,109972
138579,109960
138511,109926
138429,109869
138391,109844
138330,109885
138270,109824
138252,109830
138139,109776
138103,109791
138051,109772
138038,109736
137973,109735
137919,109700
137829,109686
137871,109699
137820,109664
137783,109644
137740,109677
137706,109618
137711,109670
137681,109656
137653,109609
137649,109620
137651,109626
137700,109624
137711,109622
137657,109626
137679,109596
137676,109624
137687,109621
137714,109657
137685,109655
137666,109616
137672,109604
137758,109651
137726,109660
137734,109635
137710,109627
137728,109628
137752,109690
137761,109640
137785,109660
137720,109653
137771,109668
137833,109686
137811,109700
137779,109673
137808,109672
137844,109670
137868,109702
137871,109725
137859,109711
137870,109690
137867,109716
137916,109719
137934,109739
137890,109707
137907,109690
137898,109747
137940,109727
137945,109720
137938,109710
137897,109697
137953,109754
137918,109725
137965,109721
137907,109700
137931,109695
137939,109751
137902,109724
137955,109740
137927,109736
137853,109684
137917,109716
137921,109763
137886,109712
137910,109705
137839,109709
137876,109688
137907,109721
137897,109734
137848,109707
137890,109678
137869,109732
137907,109729
137870,109730
137885,109693
137848,109730
137843,109705
137928,109726
137908,109708
137880,109729
137857,109710
137945,109750
137936,109757
137946,109757
137959,109745
137944,109750
138007,109748
138010,109797
137999,109758
138029,109765
137961,109739
138055,109799
138059,109813
138052,109794
138071,109771
138053,109773
138111,109804
138130,109810
138154,109842
138111,109847
138132,109800
138157,109821
138216,109853
138174,109858
138194,109810
138153,109866
138206,109859
138239,109870
138272,109878
138283,109858
138247,109887
138347,109881
138361,109944
138381,109898
138348,109925
138365,109911
138398,109934
138469,109969
138436,109960
138435,109922
138460,109962
138511,109979
138524,109971
138548,109959
138525,109991
138535,109978
138577,109996
138591,110009
138586,109974
138578,109998
138584,109989
138648,110010
138664,110008
138647,109993
138658,110037
138647,109996
138700,110015
138698,110056
138708,110045
138676,109980
138714,110034
138746,110058
138728,110041
138745,110047
138728,110049
138709,110045
138780,110067
138793,110099
138761,110060
138760,110026
138778,110064
138845,110080
138795,110086
138811,110093
138778,110032
138789,110073
138770,110044
138755,110053
138725,110028
138619,109989
138607,110003
138588,109997
138526,109960
138450,109941
138356,109890
138305,109876
138289,109899
138221,109846
138134,109821
138075,109782
137984,109773
137979,109779
137939,109738
137840,109705
137772,109687
137734,109686
137729,109657
137642,109665
137594,109613
137542,109598
137549,109631
137492,109608
137510,109611
137456,109586
137409,109558
137399,109543
137458,109559
137429,109582
137382,109589
137325,109504
137369,109534
137412,109570
137394,109569
137374,109544
137358,109525
137395,109532
137411,109569
137405,109555
137406,109555
137335,109557
137408,109570
137449,109564
137462,109595
137430,109543
137445,109586
137459,109595
137471,109606
137482,109582
137492,109598
137481,109590
137529,109616
137542,109596
137597,109637
137567,109645
137534,109601
137624,109669
137626,109674
137593,109651
137566,109618
137615,109637
137660,109638
137642,109654
137674,109663
137641,109664
137584,109601
137656,109665
137641,109687
137640,109659
137664,109642
137603,109653
137645,109649
137670,109647
137618,109664
137589,109655
137573,109604
137639,109678
137624,109624
137607,109633
137591,109607
137554,109617
137604,109636
137578,109633
137588,109619
137573,109621
137552,109589
137606,109625
137594,109632
137569,109616
137578,109632
137526,109582
137599,109643
137584,109630
137592,109609
137594,109634
137582,109603
137636,109638
137642,109650
137623,109657
137628,109665
137658,109635
137670,109669
137680,109692
137668,109686
137687,109630
137712,109699
137788,109672
137743,109688
137762,109689
137738,109691
137778,109710
137798,109745
137818,109707
137852,109726
137790,109729
137817,109738
137872,109756
137874,109754
137855,109759
137861,109722
137910,109783
137921,109773
137956,109777
137935,109777
137924,109776
137948,109771
138002,109813
138015,109833
137999,109803
137985,109814
137991,109837
138011,109818
138066,109815
138032,109803
138037,109784
138050,109828
138074,109812
138112,109847
138102,109868
138075,109828
138108,109823
138144,109866
138138,109853
138194,109854
138126,109857
138184,109872
138208,109883
138239,109891
138213,109908
138182,109841
138244,109880
138248,109922
138255,109880
138269,109897
138264,109885
138295,109926
138328,109903
138314,109937
138312,109897
138292,109876
138362,109936
138391,109964
138377,109924
138373,109931
138393,109909
138409,109960
138397,109941
138435,109955
138373,109943
138342,109931
138374,109941
138314,109927
138303,109882
138248,109910
138160,109842
138159,109856
138156,109850
138055,109828
137954,109821
137899,109739
137909,109751
137856,109777
137781,109754
137709,109672
137642,109650
137654,109701
137597,109646
137538,109652
137489,109605
137432,109569
137443,109592
137456,109609
137379,109570
137347,109559
137298,109555
137284,109557
137303,109541
137290,109566
137205,109485
137193,109526
137238,109544
137251,109536
137206,109513
137177,109512
137183,109499
137222,109514
137216,109541
137176,109507
137192,109475
137193,109527
137237,109544
137252,109547
137256,109555
137203,109512
137282,109522
137314,109561
137306,109560
137302,109556
137274,109543
137318,109551
137358,109606
137362,109547
137366,109566
137336,109554
137387,109562
137415,109603
137429,109591
137459,109604
137384,109588
137456,109598
137508,109608
137492,109618
137508,109625
137443,109612
137453,109614
137537,109623
137543,109663
137501,109622
137505,109587
137530,109635
137521,109634
137510,109619
137525,109636
137468,109565
137511,109625
137506,109630
137541,109604
137506,109593
137405,109556
137437,109584
137458,109604
137471,109590
137411,109578
137312,109528
137395,109546
137424,109558
137335,109551
137303,109522
137272,109534
137294,109501
137278,109532
137302,109514
137238,109508
137170,109464
137204,109513
137246,109496
137174,109467
137187,109467
137097,109468
137129,109467
137172,109490
137145,109484
137146,109473
137063,109454
137133,109496
137152,109472
137139,109495
137090,109461
137122,109460
137165,109506
137184,109491
137222,109496
137212,109488
137186,109502
137290,109520
137285,109545
137326,109544
137314,109549
137288,109516
137340,109574
137417,109570
137393,109595
137361,109551
137391,109544
137424,109549
137472,109587
137430,109579
137388,109557
137418,109542
137479,109594
137506,109608
137465,109586
137438,109579
137462,109610
137526,109636
137593,109589
137561,109631
137575,109611
137571,109596
137665,109644
137665,109681
137644,109642
137617,109625
137702,109653
137743,109748
137746,109663
137787,109718
137727,109681
137714,109705
137777,109718
137813,109721
137800,109734
137768,109685
137828,109708
137854,109747
137838,109733
137858,109735
137851,109685
137851,109740
137908,109751
137922,109737
137914,109758
137877,109717
137896,109761
137903,109760
137903,109747
137875,109759
137792,109705
137801,109724
137766,109715
137733,109667
137666,109670
137588,109621
137529,109639
137499,109595
137486,109566
137396,109553
137296,109510
137297,109481
137299,109509
137232,109515
137152,109457
137112,109437
137062,109409
137071,109435
137033,109433
136974,109380
136941,109333
136941,109386
136947,109357
136963,109376
136929,109349
136876,109340
136869,109344
136935,109340
136903,109364
136891,109348
136865,109337
136920,109335
136960,109383
136915,109414
136926,109350
136906,109341
136949,109393
136989,109387
136981,109380
136982,109355
136942,109350
136986,109348
137003,109388
137015,109406
136977,109364
136988,109336
137040,109387
137087,109424
137062,109424
137047,109404
137018,109360
137125,109436
137139,109425
137147,109445
137178,109436
137156,109440
137188,109440
137282,109475
137259,109497
137257,109486
137246,109451
137340,109500
137346,109508
137390,109540
137355,109474
137349,109496
137373,109521
137426,109550
137399,109520
137396,109519
137392,109514
137421,109541
137459,109550
137424,109523
137402,109529
137436,109504
137490,109564
137471,109552
137459,109573
137424,109533
137403,109536
137480,109553
137492,109574
137433,109566
137463,109546
137403,109539
137439,109553
137465,109560
137444,109576
137421,109517
137437,109512
137497,109583
137455,109610
137478,109564
137452,109554
137474,109554
137535,109602
137508,109614
137556,109592
137520,109576
137521,109596
137562,109617
137595,109595
137647,109646
137614,109628
137611,109635
137678,109637
137746,109653
137693,109645
137727,109650
137741,109650
137821,109683
137850,109708
137820,109731
137851,109704
137917,109736
137946,109774
137997,109788
137986,109756
137944,109729
137970,109774
138055,109820
138087,109790
138075,109807
138049,109781
138125,109830
138163,109851
138165,109821
138198,109882
138158,109844
138209,109865
138255,109863
138310,109866
138267,109879
138295,109895
138348,109886
138389,109914
138374,109952
138408,109904
138349,109902
138392,109927
138448,109968
138518,109955
138453,109948
138446,109922
138502,109985
138513,109997
138533,109978
138551,109991
138478,109975
138553,109971
138576,109981
138578,110010
138549,109963
138455,109938
138517,109970
138524,109988
138454,109927
138396,109937
138324,109906
138334,109888
138341,109874
138287,109903
138249,109854
138129,109834
138121,109823
138112,109774
138123,109832
138041,109760
137979,109752
137968,109775
137959,109762
137888,109791
137867,109748
137817,109690
137856,109723
137829,109719
137843,109736
137792,109689
137729,109684
137791,109728
137792,109715
137810,109692
137775,109716
137737,109706
137808,109727
137826,109702
137825,109729
137815,109713
137769,109694
137878,109728
137922,109727
137894,109779
137884,109726
137861,109730
137965,109763
138010,109800
137957,109773
137936,109792
137969,109787
138014,109790
138066,109795
138097,109846
138081,109812
138099,109826
138167,109838
138211,109857
138230,109865
138208,109867
138211,109871
138253,109864
138322,109900
138272,109934
138325,109891
138317,109929
138376,109910
138429,109968
138371,109920
138368,109907
138386,109916
138435,109946
138477,109962
138455,109971
138432,109935
138478,109943
138484,109973
138517,109982
138513,110002
138464,109950
138519,109930
138543,110014
138536,109984
138542,109992
138509,109956
138514,109987
138517,109973
138554,109971
138511,109957
138498,109952
138529,109987
138548,110001
138562,110046
138565,109970
138549,109969
138558,109963
138587,110003
138581,110028
138582,109990
138604,109977
138659,109996
138684,110029
138669,110034
138708,110025
138651,110037
138690,110050
138742,110039
138719,110072
138712,110041
138719,110004
138757,110089
138777,110053
138820,110090
138805,110089
138773,110035
138841,110081
138881,110120
138873,110147
138868,110103
138837,110068
138933,110126
138965,110153
138929,110169
138959,110127
138908,110094
138996,110140
139019,110171
139010,110151
139044,110147
139000,110159
139049,110186
139102,110199
139096,110165
139127,110195
139065,110202
139113,110187
139146,110215
139174,110231
139183,110208
139134,110205
139193,110237
139215,110230
139212,110236
139188,110258
139181,110211
139288,110233
139299,110284
139275,110248
139275,110257
139253,110222
139350,110260
139356,110276
139358,110254
139347,110274
139355,110252
139435,110321
139413,110307
139419,110287
139402,110307
139392,110260
139400,110283
139456,110313
139429,110277
139350,110270
139344,110258
139334,110256
139304,110224
139241,110206
139187,110181
139121,110208
139079,110184
139077,110155
139006,110129
138930,110096
138872,110075
138884,110072
138834,110089
138742,110054
138690,110038
138643,110010
138690,110011
138604,110022
138562,109942
138539,109971
138474,109943
138521,109974
138498,109975
138528,109945
138446,109934
138444,109894
138495,109956
138485,109948
138494,109933
138400,109948
138419,109887
138499,109955
138488,109930
138483,109941
138430,109896
138476,109915
138502,109974
138528,109940
138490,109941
138474,109922
138474,109942
138554,109956
138578,109990
138537,109962
138491,109919
138578,109958
138603,109991
138606,110004
138590,109950
138576,109968
138590,109988
138647,109989
138662,109970
138636,110006
138595,109972
138659,109996
138688,110011
138684,110011
138712,110004
138680,109985
138695,110027
138728,110012
138752,110032
138687,109993
138699,109990
138708,110045
138723,110020
138746,110003
138738,110012
138639,109975
138736,110011
138737,110059
138710,110015
138698,110014
138651,109983
138703,110007
138680,110019
138687,110001
138680,109992
138622,109965
138674,110020
138717,110007
138644,110012
138650,109973
138632,109960
138666,110015
138708,110018
138651,109967
138662,109978
138636,109961
138660,109988
138674,109996
138692,110003
138671,109988
138645,109964
138671,110005
138715,110014
138727,110026
138674,109981
138681,109996
138718,110023
138733,110016
138737,110035
138744,110025
138701,110006
138780,110021
138820,110042
138790,110077
138774,110028
138759,109978
138851,110062
138882,110062
138866,110069
138827,110052
138812,110025
138883,110028
138914,110104
138886,110101
138855,110048
138885,110043
138921,110108
138962,110072
138929,110085
138903,110069
138905,110088
138979,110097
138979,110096
138947,110106
138949,110076
139000,110080
139005,110132
139029,110121
139051,110105
138996,110106
139000,110088
139089,110139
139098,110137
139074,110161
139045,110102
139103,110136
139096,110141
139131,110149
139127,110113
139123,110120
139140,110134
139160,110207
139172,110164
139177,110173
139163,110125
139166,110152
139214,110180
139242,110183
139226,110193
139190,110181
139198,110156
139284,110225
139271,110218
139247,110194
139213,110179
139244,110176
139280,110198
139259,110169
139216,110180
139139,110113
139145,110142
139152,110144
139095,110122
139021,110099
138923,110059
138925,110051
138881,110054
138848,110028
138762,109992
138705,109951
138617,109939
138618,109928
138554,109921
138507,109856
138399,109844
138337,109834
138377,109847
138298,109823
138262,109809
138176,109795
138145,109750
138185,109797
138141,109776
138115,109756
138039,109741
138074,109723
138069,109773
138043,109724
138043,109721
137986,109677
138055,109741
138061,109726
138040,109709
137981,109720
137962,109680
138033,109746
138036,109744
138017,109723
137991,109703
137983,109669
138007,109704
137981,109731
138011,109714
137968,109691
137946,109665
138004,109740
138032,109711
138010,109733
137959,109726
137946,109687
138048,109715
138038,109731
138044,109704
137973,109707
137983,109682
138050,109745
138073,109749
138060,109732
138056,109710
138044,109745
138096,109724
138135,109761
138105,109760
138068,109736
138084,109719
138114,109740
138104,109763
138121,109726
138109,109732
138088,109733
138152,109770
138113,109770
138111,109736
138078,109735
138048,109755
138087,109722
138119,109722
138033,109746
138010,109683
138050,109691
138060,109754
138072,109743
138075,109699
138027,109725
137983,109708
138049,109699
138073,109746
138022,109707
137984,109693
137992,109699
138056,109714
138045,109733
138007,109702
138018,109718
138004,109703
138057,109718
138067,109735
138008,109697
138000,109709
138021,109713
138098,109737
138081,109772
138064,109728
138055,109740
138071,109766
138121,109755
138157,109774
138114,109779
138086,109748
138114,109755
138168,109749
138210,109781
138195,109770
138183,109771
138200,109807
138268,109797
138292,109815
138262,109825
138222,109773
138281,109811
138291,109849
138324,109836
138301,109816
138286,109811
138341,109832
138380,109875
138409,109859
138396,109822
138392,109810
138443,109882
138460,109860
138512,109906
138503,109909
138452,109883
138493,109864
138534,109933
138530,109902
138569,109924
138519,109880
138625,109948
138608,109968
138637,109956
138622,109944
138624,109944
138643,109984
138702,109966
138734,109980
138688,109974
138659,109979
138713,110014
138735,110016
138763,109971
138750,110007
138722,109954
138793,110014
138834,110024
138824,110035
138776,109975
138777,109981
138818,110024
138832,110040
138872,110048
138834,110018
138767,109994
138853,110027
138817,110028
138791,109993
138744,110000
138696,109985
138712,109982
138656,109935
138597,109934
138569,109899
138466,109861
138420,109878
138396,109827
138378,109834
138227,109760
138195,109758
138158,109750
138126,109761
137990,109727
137922,109661
137857,109665
137866,109669
137838,109637
137784,109641
137695,109581
137648,109555
137685,109592
137623,109561
137586,109567
137525,109501
137531,109514
137551,109551
137557,109533
137500,109546
137479,109505
137465,109520
137461,109494
137548,109545
137511,109509
137444,109508
137426,109503
137549,109523
137542,109569
137511,109509
137469,109530
137505,109524
137546,109553
137553,109566
137575,109567
137523,109515
137538,109546
137629,109575
137601,109588
137570,109555
137571,109541
137612,109557
137672,109586
137693,109616
137646,109587
137624,109543
137656,109572
137714,109621
137719,109598
137728,109591
137673,109589
137730,109590
137784,109632
137783,109650
137750,109638
137723,109596
137780,109594
137802,109671
137799,109646
137786,109617
137728,109605
137790,109634
137795,109648
137805,109618
137792,109655
137730,109581
137791,109609
137761,109664
137742,109624
137749,109608
137698,109559
137744,109632
137741,109591
137764,109585
137718,109594
137702,109567
137705,109628
137719,109588
137718,109606
137700,109621
137651,109572
137721,109570
137775,109629
137743,109599
137748,109584
137698,109575
137723,109621
137780,109632
137778,109639
137772,109609
137772,109593
137805,109685
137824,109627
137831,109629
137822,109679
137806,109640
137853,109666
137881,109661
137918,109677
137911,109704
137870,109652
137944,109680
137998,109739
137985,109710
137998,109701
137970,109696
138010,109719
138066,109755
138085,109739
138035,109716
138047,109719
138136,109788
138126,109764
138160,109768
138129,109741
138114,109773
138193,109794
138244,109816
138211,109812
138219,109806
138200,109792
138246,109813
138257,109806
138277,109804
138251,109808
138252,109814
138342,109834
138328,109829
138358,109833
138300,109835
138317,109809
138409,109880
138415,109874
138375,109866
138387,109829
138434,109881
138434,109849
138484,109881
138448,109901
138435,109845
138483,109897
138495,109930
138535,109893
138525,109892
138533,109923
138515,109913
138561,109940
138591,109966
138586,109913
138563,109911
138588,109954
138625,109978
138644,109957
138663,109933
138623,109939
138649,109958
138716,109984
138695,109970
138676,109984
138658,109925
138672,109985
138710,109984
138709,109951
138626,109937
138587,109893
138577,109917
138512,109896
138480,109882
138444,109865
138307,109835
138237,109808
138263,109777
138195,109796
138091,109737
137966,109687
137985,109683
137886,109699
137850,109647
137816,109639
137697,109569
137681,109582
137684,109601
137609,109578
137566,109517
137471,109529
137515,109529
137469,109510
137470,109504
137411,109505
137353,109448
137400,109484
137369,109489
137360,109500
137367,109460
137330,109448
137392,109488
137387,109458
137400,109474
137402,109464
137362,109485
137355,109492
137411,109482
137447,109528
137399,109484
137356,109462
137444,109499
137484,109531
137448,109512
137454,109492
137413,109506
137481,109513
137506,109527
137513,109522
137465,109513
137482,109488
137531,109555
137563,109535
137576,109547
137522,109529
137533,109521
137565,109541
137630,109589
137622,109558
137604,109558
137604,109546
137635,109586
137687,109573
137652,109578
137653,109584
137615,109571
137680,109593
137689,109593
137695,109577
137641,109562
137662,109569
137680,109604
137704,109599
137649,109567
137643,109559
137586,109560
137647,109555
137643,109577
137590,109549
137551,109530
137546,109541
137607,109544
137578,109601
137581,109566
137528,109534
137555,109521
137601,109546
137599,109577
137589,109569
137575,109519
137590,109527
137656,109569
137635,109592
137646,109563
137618,109539
137612,109579
137656,109587
137670,109634
137648,109614
137667,109543
137718,109590
137760,109627
137737,109624
137718,109619
137748,109605
137762,109623
137831,109673
137830,109678
137805,109630
137826,109634
137819,109654
137857,109694
137901,109658
137930,109660
137872,109666
137898,109674
137998,109700
138043,109716
137979,109744
137972,109678
138020,109716
138059,109758
138089,109754
138111,109725
138060,109740
138098,109767
138173,109789
138215,109785
138194,109782
138142,109728
138219,109774
138266,109781
138304,109843
138241,109822
138253,109800
138296,109827
138328,109827
138303,109834
138309,109829
138317,109807
138354,109842
138400,109885
138385,109850
138398,109868
138385,109831
138402,109871
138442,109867
138443,109884
138431,109839
138381,109842
138449,109865
138440,109882
138476,109876
138457,109867
138421,109859
138459,109873
138454,109891
138479,109900
138419,109865
138381,109828
138390,109843
138375,109841
138330,109826
138255,109801
138189,109763
138195,109799
138149,109741
138061,109712
137984,109696
137883,109652
137861,109641
137797,109625
137721,109602
137601,109548
137509,109524
137509,109515
137452,109510
137394,109468
137290,109417
137204,109410
137206,109413
137154,109383
137137,109375
137030,109325
137018,109331
137040,109372
136986,109329
136952,109349
136935,109285
136908,109296
136926,109339
136926,109296
136941,109319
136893,109299
136867,109270
136933,109319
136894,109321
136915,109292
136898,109310
136919,109289
136969,109356
136955,109329
136956,109310
136973,109329
136968,109340
137027,109346
137071,109359
137030,109381
137011,109308
137043,109360
137116,109382
137136,109385
137121,109405
137118,109352
137132,109385
137244,109438
137242,109475
137250,109420
137269,109445
137316,109436
137338,109503
137349,109490
137372,109465
137328,109472
137378,109494
137426,109499
137469,109511
137410,109518
137405,109496
137443,109503
137464,109525
137504,109518
137416,109499
137418,109488
137467,109510
137444,109504
137495,109523
137442,109503
137425,109469
137420,109493
137462,109524
137455,109518
137440,109510
137411,109467
137404,109491
137450,109541
137445,109491
137419,109488
137416,109493
137456,109504
137467,109525
137506,109537
137468,109526
137446,109488
137495,109532
137531,109558
137564,109535
137539,109545
137508,109525
137577,109564
137617,109574
137595,109574
137634,109578
137612,109543
137662,109592
137702,109582
137738,109617
137695,109596
137722,109608
137798,109633
137795,109631
137845,109655
137816,109642
137857,109648
137895,109679
137953,109713
137938,109691
137974,109682
137940,109693
138049,109760
138091,109755
138081,109759
138080,109733
138074,109754
138153,109778
138169,109772
138192,109799
138171,109763
138176,109804
138240,109789
138290,109837
138277,109821
138271,109800
138269,109807
138349,109831
138386,109843
138371,109842
138388,109862
138406,109850
138454,109869
138479,109893
138508,109878
138459,109868
138484,109880
138552,109919
138574,109912
138572,109925
138535,109910
138576,109904
138632,109931
138626,109966
138629,109930
138654,109939
138669,109954
138699,109977
138723,109967
138738,109993
138696,109986
138738,109972
138755,109996
138812,110013
138771,109981
138758,109947
138761,109989
138757,110022
138776,109961
138710,109955
138618,109904
138613,109922
138568,109930
138518,109888
138429,109877
138334,109807
138277,109801
138225,109760
138190,109784
138083,109729
137980,109667
137890,109664
137866,109645
137851,109673
137742,109590
137618,109554
137588,109536
137550,109539
137554,109521
137463,109513
137377,109438
137413,109467
137421,109496
137366,109450
137349,109463
137313,109434
137308,109474
137352,109451
137298,109418
137308,109422
137252,109391
137325,109442
137335,109476
137338,109447
137326,109443
137315,109453
137318,109479
137387,109449
137408,109512
137385,109492
137345,109480
137412,109475
137496,109498
137472,109514
137484,109503
137449,109477
137520,109520
137545,109524
137574,109548
137551,109523
137541,109545
137617,109549
137649,109623
137685,109573
137692,109574
137669,109549
137747,109590
137810,109632
137805,109622
137802,109623
137763,109583
137849,109629
137881,109670
137851,109667
137859,109627
137792,109615
137859,109637
137904,109679
137898,109620
137868,109643
137843,109645
137878,109643
137906,109679
137869,109638
137843,109649
137841,109618
137858,109658
137824,109628
137820,109660
137791,109596
137792,109619
137799,109637
137813,109588
137797,109618
137767,109565
137743,109587
137807,109618
137843,109648
137807,109593
137790,109605
137767,109598
137832,109605
137840,109648
137816,109610
137826,109621
137845,109624
137858,109647
137925,109672
137885,109644
137869,109617
137891,109629
137970,109674
137947,109677
137956,109685
137930,109666
137949,109682
138049,109686
138082,109737
138041,109713
138041,109683
138092,109723
138105,109730
138185,109755
138174,109765
138162,109740
138189,109765
138225,109767
138269,109811
138292,109792
138256,109796
138290,109810
138393,109833
138418,109850
138408,109801
138401,109819
138436,109835
138467,109878
138507,109897
138467,109874
138504,109866
138538,109832
138605,109910
138638,109909
138597,109915
138574,109895
138641,109915
138668,109933
138730,109945
138694,109953
138653,109885
138741,109966
138771,109953
138771,109989
138825,109990
138777,109960
138811,109963
138882,110008
138909,110018
138904,109985
138860,109969
138932,110025
138924,110043
138980,110062
138943,110021
138896,109982
139004,110025
139040,110054
139033,110076
139056,110050
139039,110022
139081,110076
139095,110097
139125,110049
139097,110077
139041,110059
139100,110057
139134,110074
139075,110044
139048,110034
138946,110024
138942,110034
138948,110001
138829,109984
138757,109929
138652,109909
138616,109888
138583,109877
138477,109806
138378,109775
138245,109737
138256,109716
138187,109735
138071,109705
137949,109637
137857,109594
137847,109602
137843,109598
137716,109539
137644,109541
137560,109520
137552,109502
137555,109488
137466,109469
137438,109437
137393,109426
137402,109468
137391,109431
137370,109461
137335,109416
137301,109413
137345,109400
137341,109441
137330,109381
137295,109403
137297,109370
137371,109428
137323,109446
137346,109418
137292,109385
137279,109411
137346,109414
137397,109431
137328,109417
137336,109441
137309,109418
137397,109418
137417,109463
137424,109422
137352,109429
137350,109447
137425,109473
137492,109471
137449,109448
137472,109442
137504,109475
137515,109500
137538,109497
137543,109471
137553,109464
137547,109483
137619,109526
137603,109505
137629,109507
137590,109454
137617,109502
137621,109555
137652,109536
137640,109527
137575,109469
137622,109515
137666,109544
137623,109519
137627,109518
137572,109473
137584,109487
137589,109520
137607,109502
137562,109488
137521,109436
137554,109492
137572,109487
137576,109507
137512,109477
137489,109453
137526,109448
137548,109477
137548,109494
137498,109480
137445,109412
137508,109484
137543,109472
137543,109448
137530,109475
137454,109443
137522,109461
137526,109485
137559,109502
137558,109464
137453,109435
137571,109502
137606,109506
137602,109494
137561,109492
137546,109477
137642,109496
137647,109497
137691,109542
137626,109518
137640,109502
137672,109532
137752,109557
137750,109553
137709,109523
137720,109549
137776,109566
137807,109571
137821,109569
137811,109572
137828,109547
137868,109593
137923,109626
137933,109618
137884,109599
137923,109568
137948,109633
138003,109664
138010,109649
137982,109641
138034,109631
138111,109651
138150,109699
138136,109676
138158,109675
138130,109719
138219,109716
138216,109750
138229,109706
138237,109714
138231,109692
138313,109720
138346,109762
138314,109730
138312,109714
138313,109748
138372,109777
138375,109778
138401,109763
138341,109763
138375,109750
138443,109797
138461,109790
138451,109799
138409,109804
138445,109768
138513,109813
138501,109831
138521,109800
138532,109800
138480,109831
138543,109857
138587,109852
138588,109837
138559,109843
138546,109796
138632,109851
138638,109888
138580,109850
138563,109846
138584,109808
138645,109829
138628,109840
138625,109835
138513,109779
138473,109767
138466,109778
138442,109743
138362,109732
138243,109705
138175,109640
138162,109671
138085,109634
137981,109608
137876,109537
137805,109533
137790,109528
137704,109511
137636,109489
137529,109420
137459,109409
137452,109411
137377,109402
137322,109349
137215,109303
137236,109315
137189,109306
137192,109317
137136,109283
137026,109264
137081,109266
137057,109255
137090,109290
137067,109240
136994,109226
137037,109252
137086,109272
137054,109270
137052,109271
136977,109237
137059,109252
137081,109284
137107,109286
137082,109278
137028,109236
137152,109258
137136,109309
137168,109306
137152,109303
137100,109257
137179,109316
137210,109333
137246,109334
137239,109286
137186,109320
137264,109313
137322,109368
137316,109377
137327,109343
137306,109306
137356,109402
137426,109378
137409,109390
137377,109372
137433,109368
137455,109405
137506,109418
137471,109397
137463,109379
137461,109383
137511,109436
137493,109450
137560,109419
137513,109427
137465,109357
137529,109454
137529,109426
137554,109438
137519,109443
137478,109371
137554,109452
137554,109412
137545,109411
137516,109414
137469,109413
137526,109433
137537,109415
137479,109396
137491,109382
137492,109388
137531,109404
137511,109428
137546,109403
137507,109392
137464,109382
137510,109408
137547,109443
137544,109417
137504,109414
137482,109414
137575,109450
137590,109470
137564,109431
137597,109416
137559,109443
137599,109466
137669,109459
137692,109503
137686,109487
137652,109455
137711,109502
137762,109500
137726,109518
137720,109472
137791,109548
137853,109529
137846,109549
137854,109505
137837,109519
137887,109511
137924,109579
137963,109554
137965,109578
137941,109560
137960,109546
138035,109575
138050,109642
138013,109584
138028,109572
138051,109615
138131,109648
138140,109649
138145,109638
138116,109610
138147,109646
138191,109670
138211,109668
138247,109697
138208,109632
138252,109693
138302,109688
138352,109726
138330,109697
138292,109713
138328,109701
138399,109726
138371,109753
138378,109708
138338,109691
138451,109735
138436,109754
138437,109747
138455,109751
138408,109724
138448,109756
138485,109753
138532,109780
138548,109783
138466,109761
138510,109753
138570,109791
138582,109775
138563,109784
138528,109790
138587,109758
138629,109798
138623,109823
138568,109787
138508,109722
138580,109813
138559,109792
138528,109779
138474,109744
138366,109674
138402,109722
138340,109698
138287,109674
138237,109625
138124,109581
138149,109641
138060,109580
137992,109530
137906,109502
137784,109463
137783,109462
137757,109478
137715,109425
137633,109410
137505,109407
137543,109378
137520,109379
137467,109341
137414,109314
137372,109341
137397,109315
137415,109354
137361,109336
137311,109298
137311,109276
137351,109338
137388,109323
137350,109313
137306,109287
137348,109319
137374,109316
137418,109349
137414,109360
137362,109325
137359,109295
137484,109380
137495,109366
137441,109349
137438,109337
137481,109359
137565,109367
137568,109410
137611,109419
137554,109419
137541,109358
137676,109440
137643,109432
137675,109421
137689,109420
137671,109475
137766,109465
137770,109468
137771,109497
137743,109468
137774,109467
137840,109510
137864,109505
137866,109509
137828,109479
137880,109485
137944,109534
137913,109528
137915,109526
137904,109479
137920,109534
137984,109543
137937,109522
137961,109537
137915,109524
137941,109501
137970,109572
137994,109538
137961,109510
137886,109522
137936,109496
137973,109528
137979,109542
137990,109523
137919,109499
137924,109510
137976,109531
137972,109516
137941,109516
137921,109495
137973,109560
138006,109547
138016,109550
137985,109541
137967,109522
138021,109523
138041,109542
138086,109598
138045,109536
138017,109525
138067,109580
138105,109571
138146,109586
138107,109592
138102,109564
138185,109589
138244,109657
138226,109658
138235,109629
138180,109599
138270,109656
138306,109658
138336,109659
138348,109665
138281,109652
138402,109695
138429,109699
138437,109733
138430,109687
138388,109708
138480,109713
138511,109714
138552,109756
138522,109737
138490,109708
138569,109758
138572,109765
138629,109757
138578,109749
138597,109729
138631,109783
138683,109783
138684,109796
138653,109753
138664,109770
138725,109802
138723,109811
138753,109826
138752,109791
138721,109784
138825,109839
138872,109847
138869,109843
138846,109856
138805,109838
138916,109848
138933,109875
138908,109891
138914,109853
138897,109849
138982,109883
138950,109889
138989,109886
138939,109847
138892,109856
138984,109901
138999,109912
138979,109881
138942,109860
138925,109845
138952,109871
138961,109868
138891,109851
138843,109801
138804,109801
138779,109807
138766,109794
138662,109745
138584,109716
138492,109688
138504,109709
138449,109674
138385,109628
138286,109603
138186,109609
138186,109583
138139,109575
138047,109549
137941,109477
137957,109452
137905,109506
137893,109480
137800,109448
137770,109418
137706,109431
137726,109430
137665,109399
137664,109367
137604,109363
137593,109363
137655,109356
137660,109390
137587,109390
137539,109346
137612,109357
137622,109403
137635,109363
137657,109384
137639,109371
137659,109380
137686,109395
137718,109392
137731,109435
137682,109393
137726,109401
137808,109442
137772,109423
137784,109449
137732,109401
137828,109447
137854,109479
137894,109442
137854,109441
137852,109441
137894,109438
137935,109469
137978,109499
137925,109496
137911,109494
137975,109486
138028,109541
138002,109542
138024,109498
137959,109485
138049,109524
138088,109538
138083,109558
138075,109499
138039,109499
138089,109559
138110,109531
138088,109541
138089,109494
138035,109507
138104,109533
138111,109551
138086,109512
138087,109504
138033,109486
138078,109547
138083,109539
138051,109494
138046,109486
138016,109472
138035,109485
138064,109503
138050,109541
137994,109462
137983,109463
137993,109533
138016,109486
138036,109488
137960,109475
137972,109459
137993,109489
138050,109505
138052,109533
138018,109460
137990,109494
138091,109511
138092,109526
138111,109521
138057,109507
138056,109488
138135,109520
138179,109572
138152,109530
138131,109533
138125,109527
138216,109565
138254,109588
138231,109579
138185,109539
138220,109545
138242,109581
138264,109587
138309,109605
138243,109540
138253,109561
138348,109592
138355,109637
138327,109582
138301,109582
138334,109586
138374,109635
138415,109609
138401,109651
138377,109584
138384,109624
138457,109658
138494,109659
138473,109628
138423,109615
138487,109637
138495,109676
138521,109655
138514,109665
138501,109634
138495,109654
138582,109682
138610,109707
138554,109655
138531,109654
138583,109655
138629,109703
138602,109697
138645,109701
138586,109677
138603,109683
138678,109711
138646,109735
138693,109695
138650,109667
138667,109719
138706,109733
138694,109720
138736,109736
138657,109697
138699,109694
138757,109744
138736,109734
138763,109761
138718,109712
138720,109749
138757,109731
138755,109735
138717,109741
138611,109669
138633,109669
138640,109698
138595,109695
138501,109607
138395,109575
138374,109593
138325,109573
138243,109518
138161,109499
138043,109422
138055,109460
137961,109427
137897,109406
137833,109329
137712,109303
137655,109317
137640,109329
137575,109269
137457,109239
137377,109193
137402,109201
137377,109211
137330,109179
137278,109152
137220,109139
137202,109163
137215,109125
137184,109146
137183,109120
137130,109106
137186,109136
137188,109152
137163,109130
137175,109114
137115,109098
137148,109132
137201,109151
137200,109146
137201,109117
137170,109144
137217,109166
137264,109180
137270,109138
137250,109179
137219,109154
137301,109164
137349,109189
137316,109198
137304,109137
137318,109149
137357,109218
137384,109219
137386,109212
137397,109211
137371,109189
137446,109216
137488,109261
137480,109241
137418,109184
137456,109173
137531,109245
137508,109276
137495,109232
137502,109233
137471,109221
137562,109253
137566,109261
137551,109253
137493,109230
137502,109232
137512,109249
137535,109274
137505,109235
137481,109190
137512,109217
137545,109220
137568,109259
137503,109248
137438,109207
137426,109168
137511,109257
137488,109262
137476,109219
137438,109176
137423,109201
137450,109213
137476,109214
137461,109219
137418,109170
137404,109216
137454,109195
137511,109223
137429,109214
137382,109182
137416,109204
137458,109199
137484,109201
137460,109236
137382,109170
137451,109178
137473,109224
137507,109205
137488,109242
137412,109171
137467,109205
137503,109208
137536,109228
137466,109181
137441,109199
137520,109189
137539,109240
137554,109216
137527,109232
137475,109189
137544,109254
137563,109235
137614,109237
137562,109240
137504,109190
137593,109250
137628,109263
137651,109255
137637,109279
137578,109210
137681,109248
137714,109328
137696,109299
137736,109268
137692,109285
137786,109318
137774,109335
137799,109298
137837,109335
137767,109291
137868,109316
137912,109364
137879,109378
137862,109316
137862,109306
137910,109378
137946,109369
137952,109348
137927,109380
137921,109346
137952,109395
138002,109379
138036,109392
138019,109423
138002,109361
138079,109390
138137,109414
138107,109439
138094,109392
138090,109400
138130,109436
138166,109444
138202,109449
138134,109412
138156,109408
138204,109452
138205,109468
138229,109459
138164,109446
138154,109443
138248,109459
138301,109466
138259,109461
138203,109428
138175,109454
138195,109408
138190,109467
138150,109402
138029,109331
138008,109351
137967,109381
137909,109309
137834,109320
137749,109242
137680,109229
137690,109243
137570,109255
137473,109158
137401,109146
137343,109085
137326,109091
137222,109073
137175,109073
137043,108998
137007,108964
137046,109010
136988,108983
136923,108962
136806,108893
136788,108886
136828,108917
136827,108905
136765,108881
136738,108876
136714,108893
136728,108870
136763,108911
136724,108877
136663,108850
136695,108847
136757,108908
136749,108908
136746,108888
136732,108873
136768,108876
136817,108908
136790,108930
136802,108889
136771,108867
136843,108906
136876,108945
136864,108945
136835,108908
136874,108889
136905,108947
136922,108939
136982,108946
136907,108972
136895,108892
136965,108941
136999,108955
137033,108986
137004,108970
136947,108945
137050,109002
137084,109016
137066,108996
137091,108989
137083,108985
137095,108996
137158,109041
137152,109030
137120,108996
137092,108991
137173,109023
137154,109037
137173,109039
137138,109018
137070,108979
137144,109032
137163,109026
137163,109018
137146,108987
137100,108999
137146,108980
137171,109004
137113,109010
137110,108984
137074,108948
137112,109022
137129,109032
137125,109014
137092,108965
137058,108954
137100,109003
137143,108997
137109,109019
137096,108982
137070,108948
137128,109024
137159,109004
137157,108997
137146,108961
137141,109005
137183,109044
137190,109023
137207,109031
137180,109016
137147,108993
137275,109059
137244,109029
137260,109065
137245,109022
137240,109019
137305,109074
137326,109090
137308,109058
137345,109059
137355,109081
137388,109093
137432,109094
137405,109106
137405,109089
137414,109089
137502,109160
137520,109125
137514,109155
137533,109127
137509,109158
137574,109157
137647,109209
137610,109166
137577,109160
137583,109155
137686,109176
137704,109219
137697,109194
137693,109184
137727,109210
137747,109248
137787,109236
137775,109246
137745,109197
137784,109226
137824,109287
137869,109271
137841,109273
137840,109229
137881,109225
137897,109272
137905,109295
137926,109272
137906,109297
137910,109278
137988,109284
137982,109312
137995,109288
137974,109292
137974,109300
137995,109297
138034,109321
138038,109305
138006,109285
138055,109326
138100,109331
138083,109355
138108,109352
138098,109304
138161,109357
138154,109381
138154,109389
138149,109361
138168,109355
138206,109389
138228,109373
138203,109381
138211,109379
138180,109323
138237,109367
138201,109396
138154,109379
138100,109331
138028,109258
138059,109310
137980,109308
137919,109252
137869,109236
137788,109181
137747,109200
137688,109169
137667,109138
137580,109135
137464,109049
137434,109104
137445,109082
137371,109074
137301,109028
137236,108978
137244,108996
137257,109019
137227,108998
137138,108972
137089,108920
137105,108970
137137,108959
137087,108956
137069,108917
137041,108935
137053,108945
137083,108969
137066,108930
137045,108903
137017,108892
137097,108926
137090,108965
137104,108936
137116,108948
137040,108922
